phoneTimestamp,sensorTimestamp,ecg
1711718036195,599616186419705634,6811
1711718036201,599616186427369762,6806
1711718036209,599616186435033890,6783
1711718036217,599616186442698018,6788
1711718036225,599616186450362146,6765
1711718036233,599616186458026274,6730
1711718036240,599616186465690402,6728
1711718036248,599616186473354530,6674
1711718036256,599616186481018658,6538
1711718036263,599616186488682786,6392
1711718036271,599616186496346914,6232
1711718036279,599616186504011042,6072
1711718036286,599616186511675170,5952
1711718036294,599616186519339298,5869
1711718036302,599616186527003426,5820
1711718036309,599616186534667554,5748
1711718036317,599616186542331682,5623
1711718036325,599616186549995810,5556
1711718036332,599616186557659938,5549
1711718036340,599616186565324066,5521
1711718036348,599616186572988194,5501
1711718036355,599616186580652322,5496
1711718036363,599616186588316450,5422
1711718036371,599616186595980578,5295
1711718036377,599616186603644706,5244
1711718036385,599616186611308834,5246
1711718036393,599616186618972962,5234
1711718036401,599616186626637090,5197
1711718036409,599616186634301218,5121
1711718036417,599616186641965346,5047
1711718036424,599616186649629474,5031
1711718036432,599616186657293602,5021
1711718036440,599616186664957730,4998
1711718036447,599616186672621858,4970
1711718036455,599616186680285986,4901
1711718036463,599616186687950114,4818
1711718036470,599616186695614242,4785
1711718036478,599616186703278370,4776
1711718036486,599616186710942498,4753
1711718036493,599616186718606626,4718
1711718036501,599616186726270754,4665
1711718036509,599616186733934882,4614
1711718036516,599616186741599010,4512
1711718036524,599616186749263138,4357
1711718036532,599616186756927266,4304
1711718036539,599616186764591394,4317
1711718036547,599616186772255522,4260
1711718036555,599616186779919650,4176
1711718036561,599616186787583778,4123
1711718036569,599616186795247906,4095
1711718036577,599616186802912034,4091
1711718036585,599616186810576162,4091
1711718036593,599616186818240290,4084
1711718036601,599616186825904418,4091
1711718036608,599616186833568546,4058
1711718036616,599616186841232674,3940
1711718036624,599616186848896802,3850
1711718036631,599616186856560930,3829
1711718036639,599616186864225058,3785
1711718036647,599616186871889186,3732
1711718036654,599616186879553314,3690
1711718036662,599616186887217442,3651
1711718036670,599616186894881570,3637
1711718036677,599616186902545698,3611
1711718036685,599616186910209826,3563
1711718036693,599616186917873954,3526
1711718036700,599616186925538082,3470
1711718036708,599616186933202210,3551
1711718036716,599616186940866338,4049
1711718036723,599616186948530466,4683
1711718036731,599616186956194594,4776
1711718036739,599616186963858722,3875
1711718036745,599616186971522850,2620
1711718036753,599616186979166954,2479
1711718036761,599616186986831361,3120
1711718036769,599616186994495768,3130
1711718036777,599616187002160175,2843
1711718036785,599616187009824582,2931
1711718036792,599616187017488989,2989
1711718036800,599616187025153396,2859
1711718036808,599616187032817803,2826
1711718036815,599616187040482210,2826
1711718036823,599616187048146617,2718
1711718036831,599616187055811024,2653
1711718036838,599616187063475431,2639
1711718036846,599616187071139838,2495
1711718036854,599616187078804245,2308
1711718036861,599616187086468652,2241
1711718036869,599616187094133059,2243
1711718036877,599616187101797466,2262
1711718036884,599616187109461873,2296
1711718036892,599616187117126280,2312
1711718036900,599616187124790687,2303
1711718036907,599616187132455094,2310
1711718036915,599616187140119501,2338
1711718036923,599616187147783908,2387
1711718036929,599616187155448315,2447
1711718036937,599616187163112722,2488
1711718036945,599616187170777129,2488
1711718036953,599616187178441536,2468
1711718036961,599616187186105943,2444
1711718036969,599616187193770350,2419
1711718036976,599616187201434757,2370
1711718036984,599616187209099164,2280
1711718036992,599616187216763571,2136
1711718036999,599616187224427978,1967
1711718037007,599616187232092385,1849
1711718037015,599616187239756792,1801
1711718037022,599616187247421199,1713
1711718037030,599616187255085606,1565
1711718037038,599616187262750013,1488
1711718037045,599616187270414420,1472
1711718037053,599616187278078827,1456
1711718037061,599616187285743234,1474
1711718037068,599616187293407641,1514
1711718037076,599616187301072048,1539
1711718037084,599616187308736455,1544
1711718037091,599616187316400862,1507
1711718037099,599616187324065269,1440
1711718037107,599616187331729676,1384
1711718037113,599616187339394083,1379
1711718037121,599616187347058490,1412
1711718037129,599616187354722897,1423
1711718037137,599616187362387304,1386
1711718037145,599616187370051711,1356
1711718037153,599616187377716118,1379
1711718037160,599616187385380525,1412
1711718037168,599616187393044932,1426
1711718037176,599616187400709339,1435
1711718037183,599616187408373746,1414
1711718037191,599616187416038153,1363
1711718037198,599616187423702560,1352
1711718037206,599616187431366967,1379
1711718037214,599616187439031374,1396
1711718037221,599616187446695781,1396
1711718037229,599616187454360188,1372
1711718037237,599616187462024595,1322
1711718037244,599616187469689002,1301
1711718037252,599616187477353409,1317
1711718037260,599616187485017816,1324
1711718037267,599616187492682223,1324
1711718037275,599616187500346630,1303
1711718037283,599616187508011037,1257
1711718037289,599616187515675444,1229
1711718037297,599616187523339851,1231
1711718037305,599616187531004258,1227
1711718037313,599616187538708811,1203
1711718037321,599616187546372661,1183
1711718037329,599616187554036511,1178
1711718037336,599616187561700361,1187
1711718037344,599616187569364211,1171
1711718037352,599616187577028061,1097
1711718037359,599616187584691911,1039
1711718037367,599616187592355761,1014
1711718037375,599616187600019611,949
1711718037382,599616187607683461,833
1711718037390,599616187615347311,761
1711718037398,599616187623011161,791
1711718037405,599616187630675011,828
1711718037413,599616187638338861,810
1711718037421,599616187646002711,773
1711718037428,599616187653666561,717
1711718037436,599616187661330411,669
1711718037444,599616187668994261,652
1711718037451,599616187676658111,740
1711718037459,599616187684321961,1129
1711718037467,599616187691985811,1773
1711718037473,599616187699649661,2157
1711718037481,599616187707313511,1632
1711718037489,599616187714977361,391
1711718037497,599616187722641211,-64
1711718037505,599616187730305061,544
1711718037513,599616187737968911,750
1711718037520,599616187745632761,412
1711718037528,599616187753296611,317
1711718037536,599616187760960461,314
1711718037543,599616187768624311,219
1711718037551,599616187776288161,213
1711718037559,599616187783952011,261
1711718037566,599616187791615861,277
1711718037574,599616187799279711,282
1711718037582,599616187806943561,296
1711718037589,599616187814607411,284
1711718037597,599616187822271261,236
1711718037605,599616187829935111,229
1711718037612,599616187837598961,284
1711718037620,599616187845262811,324
1711718037628,599616187852926661,338
1711718037635,599616187860590511,372
1711718037643,599616187868254361,419
1711718037651,599616187875918211,465
1711718037657,599616187883582061,541
1711718037665,599616187891245911,618
1711718037673,599616187898909761,662
1711718037681,599616187906573611,699
1711718037689,599616187914237461,740
1711718037697,599616187921901311,775
1711718037704,599616187929565161,812
1711718037712,599616187937229011,828
1711718037720,599616187944892861,782
1711718037727,599616187952556711,683
1711718037735,599616187960220561,564
1711718037743,599616187967884411,460
1711718037750,599616187975548261,391
1711718037758,599616187983212111,354
1711718037766,599616187990875961,317
1711718037773,599616187998539811,261
1711718037781,599616188006203661,213
1711718037789,599616188013867511,215
1711718037796,599616188021531361,250
1711718037804,599616188029195211,273
1711718037812,599616188036859061,273
1711718037819,599616188044522911,254
1711718037827,599616188052186761,229
1711718037835,599616188059850611,206
1711718037841,599616188067514461,166
1711718037849,599616188075178311,143
1711718037857,599616188082842161,175
1711718037865,599616188090506011,182
1711718037873,599616188098169872,138
1711718037881,599616188105833722,145
1711718037888,599616188113497572,201
1711718037896,599616188121161422,238
1711718037904,599616188128825272,266
1711718037911,599616188136489122,282
1711718037919,599616188144152972,252
1711718037927,599616188151816822,229
1711718037934,599616188159480672,263
1711718037942,599616188167144522,303
1711718037950,599616188174808372,321
1711718037957,599616188182472222,314
1711718037965,599616188190136072,231
1711718037973,599616188197799922,136
1711718037980,599616188205463772,150
1711718037988,599616188213127622,206
1711718037996,599616188220791472,224
1711718038003,599616188228455322,231
1711718038011,599616188236119172,215
1711718038019,599616188243783022,171
1711718038025,599616188251446872,104
1711718038033,599616188259110722,18
1711718038041,599616188266774572,4
1711718038049,599616188274438422,43
1711718038057,599616188282102272,25
1711718038065,599616188289766122,-18
1711718038072,599616188297429972,11
1711718038080,599616188305093822,60
1711718038088,599616188312757672,55
1711718038095,599616188320421522,46
1711718038103,599616188328085372,53
1711718038111,599616188335749222,37
1711718038118,599616188343413072,23
1711718038126,599616188351076922,53
1711718038134,599616188358740772,71
1711718038141,599616188366404622,34
1711718038149,599616188374068472,-20
1711718038157,599616188381732322,-39
1711718038164,599616188389396172,-34
1711718038172,599616188397060022,-27
1711718038180,599616188404723872,2
1711718038187,599616188412387722,25
1711718038195,599616188420051572,2
1711718038203,599616188427715422,62
1711718038209,599616188435379272,458
1711718038217,599616188443043122,1095
1711718038225,599616188450706972,1447
1711718038233,599616188458370822,893
1711718038241,599616188466034672,-382
1711718038248,599616188473698522,-898
1711718038256,599616188481362372,-333
1711718038264,599616188489026222,-94
1711718038271,599616188496690072,-314
1711718038279,599616188504353922,-261
1711718038287,599616188512017772,-159
1711718038294,599616188519681622,-224
1711718038302,599616188527345472,-222
1711718038310,599616188535009322,-162
1711718038317,599616188542673172,-148
1711718038325,599616188550337022,-148
1711718038333,599616188558000872,-180
1711718038340,599616188565664722,-222
1711718038348,599616188573328572,-189
1711718038356,599616188580992422,-145
1711718038363,599616188588656272,-125
1711718038371,599616188596320122,-87
1711718038379,599616188603983972,-43
1711718038385,599616188611647822,0
1711718038393,599616188619311672,64
1711718038401,599616188626975522,122
1711718038409,599616188634639372,162
1711718038417,599616188642303222,215
1711718038425,599616188649967072,277
1711718038432,599616188657570742,340
1711718038440,599616188665235428,412
1711718038448,599616188672900114,458
1711718038455,599616188680564800,456
1711718038463,599616188688229486,442
1711718038471,599616188695894172,405
1711718038478,599616188703558858,331
1711718038486,599616188711223544,247
1711718038494,599616188718888230,141
1711718038501,599616188726552916,-37
1711718038509,599616188734217602,-208
1711718038517,599616188741882288,-263
1711718038524,599616188749546974,-282
1711718038532,599616188757211660,-372
1711718038540,599616188764876346,-458
1711718038547,599616188772541032,-446
1711718038555,599616188780205718,-426
1711718038563,599616188787870404,-428
1711718038569,599616188795535090,-393
1711718038577,599616188803199776,-388
1711718038585,599616188810864462,-416
1711718038593,599616188818529148,-398
1711718038601,599616188826193834,-368
1711718038609,599616188833858520,-361
1711718038616,599616188841523206,-317
1711718038624,599616188849187892,-238
1711718038632,599616188856852578,-180
1711718038639,599616188864517264,-141
1711718038647,599616188872181950,-129
1711718038655,599616188879846636,-136
1711718038662,599616188887511322,-113
1711718038670,599616188895176008,-60
1711718038678,599616188902840694,-18
1711718038685,599616188910505380,27
1711718038693,599616188918170066,41
1711718038701,599616188925834752,4
1711718038708,599616188933499438,2
1711718038716,599616188941164124,55
1711718038724,599616188948828810,87
1711718038731,599616188956493496,108
1711718038739,599616188964158182,129
1711718038747,599616188971822868,108
1711718038753,599616188979487554,85
1711718038761,599616188987152240,113
1711718038769,599616188994816926,155
1711718038777,599616189002481612,182
1711718038785,599616189010146298,180
1711718038793,599616189017810984,127
1711718038800,599616189025475670,81
1711718038808,599616189033140356,108
1711718038816,599616189040805042,152
1711718038823,599616189048469728,145
1711718038831,599616189056134414,81
1711718038839,599616189063799100,-16
1711718038846,599616189071463786,-92
1711718038854,599616189079128472,-97
1711718038862,599616189086793158,-81
1711718038869,599616189094457844,-78
1711718038877,599616189102122530,-74
1711718038885,599616189109787216,-83
1711718038892,599616189117451902,-111
1711718038900,599616189125116588,-113
1711718038908,599616189132781274,-81
1711718038915,599616189140445960,-46
1711718038923,599616189148110646,-53
1711718038931,599616189155775332,-108
1711718038937,599616189163440018,-20
1711718038945,599616189171104704,428
1711718038953,599616189178769390,963
1711718038961,599616189186434076,970
1711718038969,599616189194098762,115
1711718038977,599616189201763448,-937
1711718038984,599616189209428134,-970
1711718038992,599616189217097880,-363
1711718039000,599616189224762496,-263
1711718039007,599616189232427112,-382
1711718039015,599616189240091728,-275
1711718039023,599616189247756344,-252
1711718039030,599616189255420960,-402
1711718039038,599616189263085576,-541
1711718039046,599616189270750192,-555
1711718039053,599616189278414808,-486
1711718039061,599616189286079424,-449
1711718039069,599616189293744040,-483
1711718039076,599616189301408656,-525
1711718039084,599616189309073272,-564
1711718039092,599616189316737888,-643
1711718039099,599616189324402504,-664
1711718039107,599616189332067120,-592
1711718039115,599616189339731736,-537
1711718039121,599616189347396352,-507
1711718039129,599616189355060968,-463
1711718039137,599616189362725584,-432
1711718039145,599616189370390200,-386
1711718039153,599616189378054816,-303
1711718039161,599616189385719432,-240
1711718039168,599616189393384048,-187
1711718039176,599616189401048664,-122
1711718039184,599616189408713280,-90
1711718039191,599616189416377896,-78
1711718039199,599616189424042512,-76
1711718039207,599616189431707128,-125
1711718039214,599616189439371744,-206
1711718039222,599616189447036360,-287
1711718039229,599616189454700976,-382
1711718039237,599616189462365592,-469
1711718039245,599616189470030208,-520
1711718039252,599616189477694824,-564
1711718039260,599616189485359440,-585
1711718039268,599616189493024056,-569
1711718039275,599616189500688672,-560
1711718039283,599616189508353288,-557
1711718039291,599616189516017904,-539
1711718039297,599616189523682520,-516
1711718039305,599616189531347136,-500
1711718039313,599616189539011752,-500
1711718039321,599616189546676368,-532
1711718039329,599616189554340984,-553
1711718039337,599616189562005600,-541
1711718039344,599616189569670216,-520
1711718039352,599616189577334832,-483
1711718039360,599616189584999448,-432
1711718039367,599616189592664064,-395
1711718039375,599616189600328680,-377
1711718039383,599616189607993296,-372
1711718039390,599616189615657912,-372
1711718039398,599616189623322528,-347
1711718039406,599616189630987144,-300
1711718039413,599616189638651760,-270
1711718039421,599616189646316376,-250
1711718039429,599616189653980992,-250
1711718039436,599616189661645608,-280
1711718039444,599616189669310224,-287
1711718039452,599616189676974840,-268
1711718039459,599616189684639456,-250
1711718039467,599616189692304072,-224
1711718039475,599616189699968688,-219
1711718039481,599616189707633304,-250
1711718039489,599616189715297920,-247
1711718039497,599616189722962536,-213
1711718039505,599616189730627152,-196
1711718039513,599616189738291768,-180
1711718039521,599616189745956384,-159
1711718039528,599616189753621000,-162
1711718039536,599616189761285616,-222
1711718039544,599616189768950232,-328
1711718039551,599616189776634982,-377
1711718039559,599616189784299319,-391
1711718039567,599616189791963656,-504
1711718039574,599616189799627993,-669
1711718039582,599616189807292330,-710
1711718039590,599616189814956667,-645
1711718039597,599616189822621004,-597
1711718039605,599616189830285341,-567
1711718039613,599616189837949678,-546
1711718039620,599616189845614015,-627
1711718039628,599616189853278352,-766
1711718039636,599616189860942689,-794
1711718039643,599616189868607026,-715
1711718039651,599616189876271363,-453
1711718039659,599616189883935700,111
1711718039665,599616189891600037,520
1711718039673,599616189899264374,120
1711718039681,599616189906928711,-990
1711718039689,599616189914593048,-1650
1711718039697,599616189922257385,-1180
1711718039705,599616189929921722,-664
1711718039712,599616189937586059,-777
1711718039720,599616189945250396,-847
1711718039728,599616189952914733,-701
1711718039735,599616189960579070,-650
1711718039743,599616189968243407,-622
1711718039751,599616189975907744,-539
1711718039758,599616189983572081,-509
1711718039766,599616189991236418,-509
1711718039774,599616189998900755,-472
1711718039781,599616190006565092,-416
1711718039789,599616190014229429,-356
1711718039797,599616190021893766,-321
1711718039804,599616190029558103,-365
1711718039812,599616190037222440,-472
1711718039820,599616190044886777,-544
1711718039827,599616190052551114,-509
1711718039835,599616190060215451,-412
1711718039843,599616190067879788,-338
1711718039849,599616190075544125,-282
1711718039857,599616190083208462,-208
1711718039865,599616190090872799,-138
1711718039873,599616190098537136,-71
1711718039881,599616190106201473,18
1711718039889,599616190113865810,97
1711718039896,599616190121530147,120
1711718039904,599616190129194484,131
1711718039912,599616190136858821,127
1711718039919,599616190144523158,62
1711718039927,599616190152187495,-16
1711718039935,599616190159851832,-87
1711718039942,599616190167516169,-180
1711718039950,599616190175180506,-245
1711718039958,599616190182844843,-263
1711718039965,599616190190509180,-284
1711718039973,599616190198173517,-296
1711718039981,599616190205837854,-291
1711718039988,599616190213502191,-296
1711718039996,599616190221166528,-284
1711718040004,599616190228830865,-250
1711718040011,599616190236495202,-277
1711718040019,599616190244159539,-340
1711718040027,599616190251823876,-324
1711718040033,599616190259488213,-284
1711718040041,599616190267152550,-328
1711718040049,599616190274816887,-430
1711718040057,599616190282481224,-507
1711718040065,599616190290145561,-518
1711718040073,599616190297809898,-481
1711718040080,599616190305474235,-444
1711718040088,599616190313138572,-402
1711718040096,599616190320802909,-342
1711718040103,599616190328467246,-294
1711718040111,599616190336121568,-277
1711718040119,599616190343786045,-261
1711718040126,599616190351450522,-238
1711718040134,599616190359114999,-208
1711718040142,599616190366779476,-159
1711718040149,599616190374443953,-125
1711718040157,599616190382108430,-129
1711718040165,599616190389772907,-157
1711718040172,599616190397437384,-164
1711718040180,599616190405101861,-136
1711718040188,599616190412766338,-92
1711718040195,599616190420430815,-57
1711718040203,599616190428095292,-104
1711718040211,599616190435759769,-254
1711718040217,599616190443424246,-351
1711718040225,599616190451088723,-307
1711718040233,599616190458753200,-245
1711718040241,599616190466417677,-194
1711718040249,599616190474082154,-118
1711718040257,599616190481746631,-120
1711718040264,599616190489411108,-203
1711718040272,599616190497075585,-217
1711718040280,599616190504740062,-175
1711718040287,599616190512404539,-162
1711718040295,599616190520069016,-169
1711718040303,599616190527733493,-217
1711718040310,599616190535397970,-284
1711718040318,599616190543062447,-270
1711718040326,599616190550726924,-215
1711718040333,599616190558391401,-199
1711718040341,599616190566055878,-201
1711718040349,599616190573720355,-240
1711718040356,599616190581384832,-333
1711718040364,599616190589049309,-282
1711718040372,599616190596713786,143
1711718040379,599616190604378263,764
1711718040387,599616190612042740,1051
1711718040395,599616190619707217,409
1711718040401,599616190627371694,-886
1711718040409,599616190635036171,-1261
1711718040417,599616190642700648,-527
1711718040425,599616190650365125,-261
1711718040433,599616190658029602,-497
1711718040440,599616190665694079,-412
1711718040448,599616190673358556,-307
1711718040456,599616190681023033,-398
1711718040463,599616190688687510,-370
1711718040471,599616190696351987,-259
1711718040479,599616190704016464,-226
1711718040486,599616190711680941,-206
1711718040494,599616190719345418,-180
1711718040502,599616190727009895,-182
1711718040509,599616190734674372,-164
1711718040517,599616190742338849,-125
1711718040525,599616190750003326,-87
1711718040532,599616190757667803,-43
1711718040540,599616190765332280,-6
1711718040548,599616190772996757,-18
1711718040555,599616190780661234,-69
1711718040563,599616190788325711,-64
1711718040571,599616190795990188,27
1711718040577,599616190803654665,111
1711718040585,599616190811319142,152
1711718040593,599616190818983619,164
1711718040601,599616190826648096,141
1711718040609,599616190834312573,152
1711718040617,599616190841977050,213
1711718040624,599616190849641527,231
1711718040632,599616190857306004,185
1711718040640,599616190864970481,115
1711718040647,599616190872634958,20
1711718040655,599616190880299435,-76
1711718040663,599616190887963912,-129
1711718040670,599616190895628406,-159
1711718040678,599616190903292883,-203
1711718040686,599616190910957360,-245
1711718040693,599616190918621837,-314
1711718040701,599616190926286314,-402
1711718040709,599616190933950791,-386
1711718040716,599616190941615268,-321
1711718040724,599616190949279745,-312
1711718040732,599616190956944222,-298
1711718040739,599616190964608699,-289
1711718040747,599616190972273176,-342
1711718040755,599616190979937653,-349
1711718040761,599616190987602130,-284
1711718040769,599616190995266607,-254
1711718040777,599616191002931084,-231
1711718040785,599616191010595561,-178
1711718040793,599616191018260038,-178
1711718040801,599616191025924515,-219
1711718040808,599616191033588992,-213
1711718040816,599616191041253469,-178
1711718040824,599616191048917946,-152
1711718040831,599616191056582423,-122
1711718040839,599616191064246900,-104
1711718040847,599616191071911377,-111
1711718040854,599616191079575854,-94
1711718040862,599616191087240331,-74
1711718040870,599616191094904808,-74
1711718040877,599616191102569285,-62
1711718040885,599616191110233762,-57
1711718040893,599616191117898239,-94
1711718040900,599616191125562716,-118
1711718040908,599616191133227193,-92
1711718040916,599616191140891670,-64
1711718040923,599616191148556147,-34
1711718040931,599616191156220624,-23
1711718040939,599616191163885101,-97
1711718040945,599616191171549578,-203
1711718040953,599616191179214055,-206
1711718040961,599616191186878532,-138
1711718040969,599616191194543009,-69
1711718040977,599616191202207486,6
1711718040985,599616191209871963,46
1711718040992,599616191217536440,18
1711718041000,599616191225200917,-34
1711718041008,599616191232865394,-76
1711718041015,599616191240529871,-85
1711718041023,599616191248194348,-67
1711718041031,599616191255858825,-48
1711718041038,599616191263523302,-76
1711718041046,599616191271187779,-164
1711718041054,599616191278852256,-259
1711718041061,599616191286516733,-326
1711718041069,599616191294181210,-333
1711718041077,599616191301845687,-324
1711718041084,599616191309510164,-395
1711718041092,599616191317174641,-291
1711718041100,599616191324839118,284
1711718041107,599616191332503595,923
1711718041115,599616191340168072,858
1711718041123,599616191347832549,-208
1711718041129,599616191355497026,-1252
1711718041137,599616191363161503,-1034
1711718041145,599616191370825980,-421
1711718041153,599616191378490457,-488
1711718041161,599616191386154934,-599
1711718041169,599616191393819411,-423
1711718041176,599616191401483888,-393
1711718041184,599616191409148365,-469
1711718041192,599616191416812842,-416
1711718041199,599616191424477319,-335
1711718041207,599616191432141796,-305
1711718041215,599616191439806273,-254
1711718041222,599616191447470750,-226
1711718041230,599616191455120198,-314
1711718041238,599616191462784884,-391
1711718041245,599616191470449570,-326
1711718041253,599616191478114256,-236
1711718041261,599616191485778942,-182
1711718041268,599616191493443628,-122
1711718041276,599616191501108314,-76
1711718041284,599616191508773000,-71
1711718041291,599616191516437686,-62
1711718041299,599616191524102372,0
1711718041307,599616191531767058,101
1711718041313,599616191539431744,187
1711718041321,599616191547096430,213
1711718041329,599616191554761116,178
1711718041337,599616191562425802,155
1711718041345,599616191570090488,196
1711718041353,599616191577755174,231
1711718041360,599616191585419860,194
1711718041368,599616191593084546,104
1711718041376,599616191600749232,-6
1711718041383,599616191608413918,-101
1711718041391,599616191616078604,-145
1711718041399,599616191623743290,-162
1711718041406,599616191631407976,-192
1711718041414,599616191639072662,-229
1711718041422,599616191646737348,-277
1711718041429,599616191654402034,-349
1711718041437,599616191662066720,-365
1711718041445,599616191669731406,-291
1711718041452,599616191677396092,-238
1711718041460,599616191685060778,-231
1711718041468,599616191692725464,-206
1711718041475,599616191700390150,-178
1711718041483,599616191708054836,-162
1711718041491,599616191715719522,-111
1711718041497,599616191723384208,-60
1711718041505,599616191731048894,-46
1711718041513,599616191738713580,-27
1711718041521,599616191746378266,0
1711718041529,599616191754042952,-23
1711718041537,599616191761707638,-74
1711718041544,599616191769372324,-87
1711718041552,599616191777037010,-71
1711718041559,599616191784701696,-104
1711718041567,599616191792366382,-201
1711718041575,599616191800031068,-252
1711718041582,599616191807695754,-217
1711718041590,599616191815360440,-192
1711718041598,599616191823025126,-180
1711718041605,599616191830689812,-143
1711718041613,599616191838354498,-120
1711718041621,599616191846019184,-173
1711718041628,599616191853683870,-226
1711718041636,599616191861348556,-194
1711718041644,599616191869013242,-150
1711718041651,599616191876677928,-134
1711718041659,599616191884342614,-94
1711718041667,599616191892007300,-62
1711718041673,599616191899671986,-67
1711718041681,599616191907336672,-69
1711718041689,599616191915001358,-55
1711718041697,599616191922666044,-18
1711718041705,599616191930330730,60
1711718041713,599616191937995416,122
1711718041720,599616191945660102,118
1711718041728,599616191953324788,94
1711718041736,599616191960989474,92
1711718041743,599616191968654160,92
1711718041751,599616191976318846,62
1711718041759,599616191983983532,-16
1711718041766,599616191991648218,-129
1711718041774,599616191999312904,-236
1711718041782,599616192006977590,-305
1711718041789,599616192014642296,-312
1711718041797,599616192022306982,-266
1711718041805,599616192029971668,-229
1711718041812,599616192037636354,-250
1711718041820,599616192045301040,-273
1711718041828,599616192052965726,-62
1711718041835,599616192060630412,532
1711718041843,599616192068295098,1106
1711718041851,599616192075959784,986
1711718041857,599616192083624470,-85
1711718041865,599616192091289156,-1153
1711718041873,599616192098953842,-988
1711718041881,599616192106618528,-368
1711718041889,599616192114283214,-398
1711718041897,599616192121947900,-507
1711718041904,599616192129612586,-342
1711718041912,599616192137277272,-331
1711718041920,599616192144941958,-416
1711718041927,599616192152606644,-356
1711718041935,599616192160271330,-287
1711718041943,599616192167936016,-289
1711718041950,599616192175600702,-254
1711718041958,599616192183265388,-240
1711718041966,599616192190930074,-317
1711718041973,599616192198594760,-326
1711718041981,599616192206259446,-231
1711718041989,599616192213924132,-164
1711718041996,599616192221588818,-118
1711718042004,599616192229253504,-57
1711718042012,599616192236918190,-39
1711718042019,599616192244582876,-39
1711718042027,599616192252247562,-25
1711718042035,599616192259912248,6
1711718042041,599616192267576934,90
1711718042049,599616192275241620,180
1711718042057,599616192282906306,210
1711718042065,599616192290570992,196
1711718042073,599616192298235678,148
1711718042081,599616192305900364,99
1711718042088,599616192313565050,115
1711718042096,599616192321229736,108
1711718042104,599616192328894422,0
1711718042111,599616192336559108,-129
1711718042119,599616192344223794,-208
1711718042127,599616192351888480,-252
1711718042134,599616192359553166,-268
1711718042142,599616192367217852,-263
1711718042150,599616192374882538,-300
1711718042157,599616192382547224,-386
1711718042165,599616192390211910,-412
1711718042173,599616192397876596,-342
1711718042180,599616192405541282,-280
1711718042188,599616192413205968,-259
1711718042196,599616192420870654,-231
1711718042203,599616192428535340,-203
1711718042211,599616192436200026,-194
1711718042219,599616192443864712,-164
1711718042225,599616192451529398,-94
1711718042233,599616192459194084,-48
1711718042241,599616192466858770,-34
1711718042249,599616192474523456,-23
1711718042257,599616192482188142,-13
1711718042265,599616192489852828,-9
1711718042272,599616192497517514,-30
1711718042280,599616192505182200,-64
1711718042288,599616192512846886,-74
1711718042295,599616192520511572,-81
1711718042303,599616192528176258,-141
1711718042311,599616192535840944,-196
1711718042318,599616192543505630,-164
1711718042326,599616192551170316,-108
1711718042334,599616192558835002,-97
1711718042341,599616192566499688,-71
1711718042349,599616192574164394,-39
1711718042357,599616192581829080,-37
1711718042364,599616192589493766,-13
1711718042372,599616192597158452,20
1711718042380,599616192604823138,9
1711718042387,599616192612487824,4
1711718042395,599616192620152510,20
1711718042403,599616192627817196,-25
1711718042409,599616192635481882,-55
1711718042417,599616192643146568,13
1711718042425,599616192650811254,60
1711718042433,599616192658475940,46
1711718042441,599616192666140626,60
1711718042449,599616192673805312,74
1711718042456,599616192681469998,55
1711718042464,599616192689134684,50
1711718042472,599616192696799370,41
1711718042479,599616192704464056,18
1711718042487,599616192712128742,-2
1711718042495,599616192719793428,-62
1711718042502,599616192727458114,-155
1711718042510,599616192735122800,-194
1711718042518,599616192742787486,-226
1711718042525,599616192750452172,-261
1711718042533,599616192758116858,-41
1711718042541,599616192765781544,532
1711718042548,599616192773446230,1014
1711718042556,599616192781110916,852
1711718042564,599616192788775602,-90
1711718042571,599616192796440288,-1076
1711718042579,599616192804104974,-1055
1711718042587,599616192811769660,-507
1711718042593,599616192819434346,-474
1711718042601,599616192827099032,-645
1711718042609,599616192834763718,-564
1711718042617,599616192842428404,-483
1711718042625,599616192850093090,-483
1711718042633,599616192857757776,-421
1711718042640,599616192865422462,-361
1711718042648,599616192873087148,-386
1711718042656,599616192880751834,-405
1711718042663,599616192888416520,-347
1711718042671,599616192896081206,-277
1711718042679,599616192903745892,-231
1711718042686,599616192911410578,-182
1711718042694,599616192919075264,-166
1711718042702,599616192926739950,-173
1711718042709,599616192934404636,-125
1711718042717,599616192942069322,-34
1711718042725,599616192949734008,34
1711718042732,599616192957398694,99
1711718042740,599616192965063380,106
1711718042748,599616192972728066,50
1711718042755,599616192980392752,64
1711718042763,599616192988057438,131
1711718042771,599616192995722124,143
1711718042777,599616193003386810,164
1711718042785,599616193011051496,206
1711718042793,599616193018716182,169
1711718042801,599616193026380868,90
1711718042809,599616193034045554,37
1711718042817,599616193041710240,-25
1711718042824,599616193049374926,-99
1711718042832,599616193057039612,-203
1711718042839,599616193064704298,-363
1711718042847,599616193072368984,-476
1711718042855,599616193080033670,-442
1711718042862,599616193087698356,-363
1711718042870,599616193095363042,-321
1711718042878,599616193103027728,-287
1711718042885,599616193110692414,-273
1711718042893,599616193118357100,-273
1711718042901,599616193126021786,-229
1711718042908,599616193133686494,-162
1711718042916,599616193141351180,-111
1711718042924,599616193149015866,-76
1711718042931,599616193156680552,-99
1711718042939,599616193164345238,-185
1711718042947,599616193172009924,-217
1711718042953,599616193179674610,-152
1711718042961,599616193187339296,-90
1711718042969,599616193195003982,-64
1711718042977,599616193202668668,-53
1711718042985,599616193210333354,-50
1711718042993,599616193217998040,-34
1711718043000,599616193225662726,-6
1711718043008,599616193233327412,-30
1711718043016,599616193240992098,-97
1711718043023,599616193248656784,-118
1711718043031,599616193256321470,-129
1711718043039,599616193263986156,-192
1711718043046,599616193271650842,-201
1711718043054,599616193279315528,-134
1711718043062,599616193286980214,-94
1711718043069,599616193294644900,-85
1711718043077,599616193302309586,-85
1711718043085,599616193309974272,-155
1711718043092,599616193317638958,-236
1711718043100,599616193325303644,-210
1711718043108,599616193332968330,-138
1711718043115,599616193340633016,-97
1711718043123,599616193348297702,-43
1711718043131,599616193355962388,0
1711718043137,599616193363627074,-4
1711718043145,599616193371291760,4
1711718043153,599616193378956446,30
1711718043161,599616193386621132,27
1711718043169,599616193394285818,27
1711718043177,599616193401950504,41
1711718043184,599616193409615190,23
1711718043192,599616193417279876,-11
1711718043200,599616193424944562,-43
1711718043207,599616193432609248,-64
1711718043215,599616193440273934,-50
1711718043223,599616193447938620,-53
1711718043230,599616193455603306,-127
1711718043238,599616193463267992,-11
1711718043246,599616193470932678,544
1711718043253,599616193478597364,1097
1711718043261,599616193486262050,993
1711718043269,599616193493926736,46
1711718043276,599616193501591422,-949
1711718043284,599616193509256108,-849
1711718043292,599616193516920794,-263
1711718043299,599616193524585480,-296
1711718043307,599616193532250166,-497
1711718043315,599616193539914852,-400
1711718043321,599616193547579538,-349
1711718043329,599616193555244224,-405
1711718043337,599616193562908910,-379
1711718043345,599616193570573596,-335
1711718043353,599616193578238282,-328
1711718043361,599616193585902968,-305
1711718043368,599616193593567654,-291
1711718043376,599616193601232340,-333
1711718043384,599616193608897026,-375
1711718043391,599616193616561712,-347
1711718043399,599616193624226398,-282
1711718043407,599616193631891084,-215
1711718043414,599616193639555770,-150
1711718043422,599616193647220456,-101
1711718043430,599616193654885142,-78
1711718043437,599616193662549828,-41
1711718043445,599616193670214514,30
1711718043453,599616193677879200,118
1711718043460,599616193685543886,208
1711718043468,599616193693238688,280
1711718043476,599616193700902956,307
1711718043483,599616193708567224,310
1711718043491,599616193716231492,324
1711718043499,599616193723895760,312
1711718043505,599616193731560028,215
1711718043513,599616193739224296,90
1711718043521,599616193746888564,-20
1711718043529,599616193754552832,-143
1711718043537,599616193762217100,-243
1711718043545,599616193769881368,-273
1711718043552,599616193777545636,-261
1711718043560,599616193785209904,-243
1711718043568,599616193792874172,-305
1711718043575,599616193800538440,-453
1711718043583,599616193808202708,-534
1711718043591,599616193815866976,-546
1711718043598,599616193823531244,-555
1711718043606,599616193831195512,-500
1711718043614,599616193838859780,-439
1711718043621,599616193846524048,-446
1711718043629,599616193854188316,-421
1711718043637,599616193861852584,-331
1711718043644,599616193869516852,-259
1711718043652,599616193877181120,-215
1711718043660,599616193884845388,-173
1711718043667,599616193892509656,-169
1711718043675,599616193900173924,-171
1711718043683,599616193907838192,-122
1711718043689,599616193915502460,-55
1711718043697,599616193923166728,-9
1711718043705,599616193930830996,16
1711718043713,599616193938495264,0
1711718043721,599616193946159532,-34
1711718043729,599616193953823800,-11
1711718043736,599616193961488068,43
1711718043744,599616193969152336,55
1711718043752,599616193976816604,2
1711718043759,599616193984480872,-74
1711718043767,599616193992145140,-155
1711718043775,599616193999809408,-194
1711718043782,599616194007473676,-145
1711718043790,599616194015137944,-81
1711718043798,599616194022802212,-76
1711718043805,599616194030466480,-104
1711718043813,599616194038130748,-127
1711718043821,599616194045795016,-118
1711718043828,599616194053459284,-48
1711718043836,599616194061123552,50
1711718043844,599616194068787820,104
1711718043851,599616194076452088,104
1711718043859,599616194084116356,97
1711718043867,599616194091780624,90
1711718043873,599616194099444892,90
1711718043881,599616194107109160,125
1711718043889,599616194114773428,143
1711718043897,599616194122437696,120
1711718043905,599616194130101964,85
1711718043913,599616194137766232,4
1711718043920,599616194145430500,-101
1711718043928,599616194153094768,-101
1711718043936,599616194160759036,-60
1711718043943,599616194168423304,-97
1711718043951,599616194176087572,13
1711718043959,599616194183751840,530
1711718043966,599616194191416108,1183
1711718043974,599616194199080376,1430
1711718043982,599616194206744644,731
1711718043989,599616194214408912,-520
1711718043997,599616194222073180,-794
1711718044005,599616194229737448,-194
1711718044012,599616194237401716,-148
1711718044020,599616194245065984,-426
1711718044027,599616194252690164,-368
1711718044035,599616194260354989,-314
1711718044043,599616194268019814,-370
1711718044049,599616194275684639,-326
1711718044057,599616194283349464,-287
1711718044065,599616194291014289,-319
1711718044073,599616194298679114,-314
1711718044081,599616194306343939,-312
1711718044089,599616194314008764,-382
1711718044096,599616194321673589,-442
1711718044104,599616194329338414,-488
1711718044112,599616194337003239,-585
1711718044119,599616194344668064,-604
1711718044127,599616194352332889,-511
1711718044135,599616194359997714,-437
1711718044142,599616194367662539,-363
1711718044150,599616194375327364,-270
1711718044158,599616194382992189,-206
1711718044165,599616194390657014,-145
1711718044173,599616194398321839,-60
1711718044181,599616194405986664,30
1711718044188,599616194413651489,108
1711718044196,599616194421316314,175
1711718044204,599616194428981139,222
1711718044211,599616194436645964,224
1711718044219,599616194444310789,171
1711718044227,599616194451975614,97
1711718044233,599616194459640439,20
1711718044241,599616194467305264,-118
1711718044249,599616194474970089,-319
1711718044257,599616194482634914,-483
1711718044265,599616194490299739,-527
1711718044273,599616194497964564,-490
1711718044280,599616194505629389,-449
1711718044288,599616194513294214,-414
1711718044296,599616194520959039,-375
1711718044303,599616194528623864,-358
1711718044311,599616194536288689,-347
1711718044319,599616194543953514,-287
1711718044326,599616194551618339,-217
1711718044334,599616194559283164,-175
1711718044342,599616194566947989,-138
1711718044349,599616194574612814,-131
1711718044357,599616194582277639,-150
1711718044365,599616194589942464,-111
1711718044372,599616194597607289,-50
1711718044380,599616194605272114,-25
1711718044388,599616194612936939,23
1711718044395,599616194620601764,64
1711718044403,599616194628266589,27
1711718044411,599616194635931414,9
1711718044417,599616194643596239,50
1711718044425,599616194651261064,74
1711718044433,599616194658925889,90
1711718044441,599616194666590714,97
1711718044449,599616194674255539,13
1711718044457,599616194681920364,-64
1711718044464,599616194689585189,-30
1711718044472,599616194697250014,32
1711718044480,599616194704914839,50
1711718044487,599616194712579664,27
1711718044495,599616194720244489,-67
1711718044503,599616194727909314,-125
1711718044510,599616194735574139,-60
1711718044518,599616194743238964,16
1711718044526,599616194750903789,41
1711718044533,599616194758568614,55
1711718044541,599616194766233439,48
1711718044549,599616194773898264,11
1711718044556,599616194781563089,11
1711718044564,599616194789227914,83
1711718044572,599616194796892739,159
1711718044579,599616194804557564,185
1711718044587,599616194812242524,129
1711718044595,599616194819907070,16
1711718044601,599616194827571616,-39
1711718044609,599616194835236162,-39
1711718044617,599616194842900708,-34
1711718044625,599616194850565254,-4
1711718044633,599616194858229800,-16
1711718044641,599616194865894346,-157
1711718044648,599616194873558892,-326
1711718044656,599616194881223438,-344
1711718044664,599616194888887984,-280
1711718044671,599616194896552530,-263
1711718044679,599616194904217076,-259
1711718044687,599616194911881622,-240
1711718044694,599616194919546168,-85
1711718044702,599616194927210714,432
1711718044710,599616194934875260,1113
1711718044717,599616194942539806,1294
1711718044725,599616194950204352,414
1711718044733,599616194957868898,-826
1711718044740,599616194965533444,-926
1711718044748,599616194973197990,-328
1711718044756,599616194980862536,-361
1711718044763,599616194988527082,-576
1711718044771,599616194996191628,-430
1711718044779,599616195003856174,-391
1711718044785,599616195011520720,-532
1711718044793,599616195019185266,-564
1711718044801,599616195026849812,-500
1711718044809,599616195034514358,-469
1711718044817,599616195042178904,-463
1711718044825,599616195049843450,-400
1711718044832,599616195057507996,-335
1711718044840,599616195065172542,-331
1711718044848,599616195072837088,-305
1711718044855,599616195080501634,-233
1711718044863,599616195088166180,-201
1711718044871,599616195095830726,-178
1711718044878,599616195103495272,-113
1711718044886,599616195111159818,-62
1711718044894,599616195118824364,-20
1711718044901,599616195126488910,62
1711718044909,599616195134153456,141
1711718044917,599616195141818002,203
1711718044924,599616195149482548,284
1711718044932,599616195157147094,335
1711718044940,599616195164811640,340
1711718044947,599616195172476186,349
1711718044955,599616195180140732,335
1711718044963,599616195187805278,277
1711718044969,599616195195469824,208
1711718044977,599616195203134370,64
1711718044985,599616195210798916,-173
1711718044993,599616195218463462,-340
1711718045001,599616195226128008,-375
1711718045009,599616195233792554,-379
1711718045016,599616195241457100,-344
1711718045024,599616195249121646,-289
1711718045032,599616195256786192,-280
1711718045039,599616195264450738,-294
1711718045047,599616195272115284,-275
1711718045055,599616195279779830,-226
1711718045062,599616195287444376,-178
1711718045070,599616195295108922,-138
1711718045078,599616195302773468,-85
1711718045085,599616195310438014,-62
1711718045093,599616195318102560,-138
1711718045101,599616195325767106,-247
1711718045108,599616195333431652,-245
1711718045116,599616195341096198,-164
1711718045124,599616195348760744,-136
1711718045131,599616195356425290,-155
1711718045139,599616195364089836,-145
1711718045147,599616195371744368,-122
1711718045153,599616195379409054,-92
1711718045161,599616195387073740,-48
1711718045169,599616195394738426,-18
1711718045177,599616195402403112,-53
1711718045185,599616195410067798,-127
1711718045193,599616195417732484,-141
1711718045200,599616195425397170,-90
1711718045208,599616195433061856,-34
1711718045216,599616195440726542,11
1711718045223,599616195448391228,11
1711718045231,599616195456055914,-55
1711718045239,599616195463720600,-90
1711718045246,599616195471385286,-43
1711718045254,599616195479049972,20
1711718045262,599616195486714658,64
1711718045269,599616195494379344,60
1711718045277,599616195502044030,-67
1711718045285,599616195509708716,-238
1711718045292,599616195517373402,-231
1711718045300,599616195525038088,-120
1711718045307,599616195532702774,-53
1711718045315,599616195540367460,-9
1711718045323,599616195548032146,-62
1711718045329,599616195555696832,-182
1711718045337,599616195563361518,-182
1711718045345,599616195571026204,-108
1711718045353,599616195578690890,-94
1711718045361,599616195586355576,-101
1711718045369,599616195594020262,-104
1711718045376,599616195601684948,-129
1711718045384,599616195609349634,-150
1711718045392,599616195617014320,-134
1711718045399,599616195624679006,-92
1711718045407,599616195632343692,-67
1711718045415,599616195640008378,-97
1711718045422,599616195647673064,-106
1711718045430,599616195655337750,155
1711718045438,599616195663002436,775
1711718045445,599616195670667122,1331
1711718045453,599616195678331808,1143
1711718045461,599616195685996494,27
1711718045468,599616195693661180,-879
1711718045476,599616195701325866,-622
1711718045484,599616195708990552,-196
1711718045491,599616195716655238,-344
1711718045499,599616195724319924,-430
1711718045507,599616195731984610,-312
1711718045513,599616195739649296,-351
1711718045521,599616195747313982,-479
1711718045529,599616195754978668,-483
1711718045537,599616195762643354,-414
1711718045545,599616195770308040,-384
1711718045553,599616195777972726,-384
1711718045560,599616195785637412,-347
1711718045568,599616195793302098,-282
1711718045576,599616195800966784,-245
1711718045583,599616195808631470,-217
1711718045591,599616195816296156,-187
1711718045599,599616195823960842,-189
1711718045606,599616195831625528,-240
1711718045614,599616195839290214,-273
1711718045622,599616195846954900,-224
1711718045629,599616195854619586,-131
1711718045637,599616195862284272,-53
1711718045645,599616195869948958,-4
1711718045652,599616195877613644,71
1711718045660,599616195885278330,182
1711718045668,599616195892943016,219
1711718045675,599616195900607702,187
1711718045683,599616195908272388,196
1711718045691,599616195915937074,210
1711718045697,599616195923601760,169
1711718045705,599616195931271506,101
1711718045713,599616195938936122,6
1711718045721,599616195946600738,-127
1711718045729,599616195954265354,-243
1711718045737,599616195961929970,-298
1711718045744,599616195969594586,-319
1711718045752,599616195977259202,-307
1711718045760,599616195984923818,-312
1711718045767,599616195992588434,-435
1711718045775,599616196000253050,-539
1711718045783,599616196007917666,-472
1711718045790,599616196015582282,-388
1711718045798,599616196023246898,-377
1711718045806,599616196030911514,-354
1711718045813,599616196038576130,-319
1711718045821,599616196046240746,-305
1711718045829,599616196053905362,-289
1711718045836,599616196061569978,-243
1711718045844,599616196069234594,-194
1711718045852,599616196076899210,-180
1711718045859,599616196084563826,-215
1711718045867,599616196092228442,-282
1711718045875,599616196099893058,-300
1711718045881,599616196107557674,-245
1711718045889,599616196115222290,-185
1711718045897,599616196122886906,-129
1711718045905,599616196130551522,-85
1711718045913,599616196138216138,-81
1711718045921,599616196145880754,-85
1711718045928,599616196153545370,-60
1711718045936,599616196161209986,-11
1711718045944,599616196168874602,23
1711718045951,599616196176539218,46
1711718045959,599616196184203834,67
1711718045967,599616196191868450,37
1711718045974,599616196199533066,-9
1711718045982,599616196207197682,4
1711718045990,599616196214862298,46
1711718045997,599616196222526914,76
1711718046005,599616196230191530,76
1711718046013,599616196237856146,39
1711718046020,599616196245520762,43
1711718046028,599616196253185378,64
1711718046036,599616196260849994,43
1711718046043,599616196268514610,67
1711718046051,599616196276179226,115
1711718046059,599616196283843842,71
1711718046065,599616196291508458,-9
1711718046073,599616196299173074,-9
1711718046081,599616196306837690,-6
1711718046089,599616196314502306,-48
1711718046097,599616196322166922,-62
1711718046105,599616196329831538,-101
1711718046112,599616196337496154,-206
1711718046120,599616196345160770,-250
1711718046128,599616196352825386,-189
1711718046135,599616196360490002,-145
1711718046143,599616196368154618,-129
1711718046151,599616196375819234,-125
1711718046158,599616196383483850,-166
1711718046166,599616196391148466,-145
1711718046174,599616196398813082,185
1711718046181,599616196406477698,812
1711718046189,599616196414142314,1254
1711718046197,599616196421806930,842
1711718046204,599616196429471546,-400
1711718046212,599616196437136162,-1111
1711718046220,599616196444800778,-639
1711718046227,599616196452465394,-252
1711718046235,599616196460130010,-432
1711718046243,599616196467794626,-463
1711718046249,599616196475459242,-398
1711718046257,599616196483123858,-500
1711718046265,599616196490808608,-493
1711718046273,599616196498472945,-365
1711718046281,599616196506137282,-326
1711718046289,599616196513801619,-326
1711718046296,599616196521465956,-333
1711718046304,599616196529130293,-384
1711718046312,599616196536794630,-391
1711718046319,599616196544458967,-317
1711718046327,599616196552123304,-256
1711718046335,599616196559787641,-224
1711718046342,599616196567451978,-175
1711718046350,599616196575116315,-127
1711718046358,599616196582780652,-71
1711718046365,599616196590444989,13
1711718046373,599616196598109326,81
1711718046381,599616196605773663,118
1711718046388,599616196613438000,175
1711718046396,599616196621102337,208
1711718046404,599616196628766674,185
1711718046411,599616196636431011,215
1711718046419,599616196644095348,294
1711718046427,599616196651759685,305
1711718046433,599616196659424022,270
1711718046441,599616196667088359,224
1711718046449,599616196674752696,120
1711718046457,599616196682417033,-39
1711718046465,599616196690081370,-180
1711718046473,599616196697745707,-256
1711718046480,599616196705410044,-277
1711718046488,599616196713074381,-277
1711718046496,599616196720738718,-273
1711718046503,599616196728403055,-254
1711718046511,599616196736067392,-224
1711718046519,599616196743731729,-203
1711718046526,599616196751396066,-175
1711718046534,599616196759060403,-118
1711718046542,599616196766724740,-74
1711718046549,599616196774389077,-69
1711718046557,599616196782053414,-69
1711718046565,599616196789717751,-62
1711718046572,599616196797382088,-43
1711718046580,599616196805046425,-18
1711718046588,599616196812710762,-23
1711718046595,599616196820375099,-78
1711718046603,599616196828039436,-152
1711718046609,599616196835703773,-226
1711718046617,599616196843368110,-280
1711718046625,599616196851032447,-233
1711718046633,599616196858696784,-157
1711718046641,599616196866361121,-143
1711718046649,599616196874025458,-141
1711718046656,599616196881689795,-120
1711718046664,599616196889354132,-97
1711718046672,599616196897018469,-41
1711718046679,599616196904682806,32
1711718046687,599616196912347143,48
1711718046695,599616196920011480,18
1711718046702,599616196927675817,-37
1711718046710,599616196935340154,-83
1711718046718,599616196943004491,-57
1711718046725,599616196950668828,4
1711718046733,599616196958333165,16
1711718046741,599616196965997502,-18
1711718046748,599616196973661839,-43
1711718046756,599616196981326176,-25
1711718046764,599616196988990513,23
1711718046771,599616196996654850,64
1711718046779,599616197004319187,48
1711718046787,599616197011983524,-53
1711718046793,599616197019647861,-150
1711718046801,599616197027312198,-129
1711718046809,599616197034976535,-67
1711718046817,599616197042640872,-48
1711718046825,599616197050280146,-34
1711718046833,599616197057944832,-57
1711718046840,599616197065609518,-171
1711718046848,599616197073274204,-224
1711718046856,599616197080938890,-155
1711718046863,599616197088603576,-125
1711718046871,599616197096268262,-152
1711718046879,599616197103932948,-192
1711718046886,599616197111597634,-314
1711718046894,599616197119262320,-465
1711718046902,599616197126927006,-474
1711718046909,599616197134591692,-421
1711718046917,599616197142256378,-368
1711718046925,599616197149921064,-25
1711718046932,599616197157585750,592
1711718046940,599616197165250436,919
1711718046948,599616197172915122,395
1711718046955,599616197180579808,-798
1711718046963,599616197188244494,-1326
1711718046971,599616197195909180,-738
1711718046977,599616197203573866,-391
1711718046985,599616197211238552,-597
1711718046993,599616197218903238,-553
1711718047001,599616197226567924,-361
1711718047009,599616197234232610,-333
1711718047017,599616197241897296,-300
1711718047024,599616197249561982,-247
1711718047032,599616197257226668,-245
1711718047040,599616197264891354,-226
1711718047047,599616197272556040,-157
1711718047055,599616197280220726,-85
1711718047063,599616197287885412,-39
1711718047070,599616197295550098,-16
1711718047078,599616197303214784,-16
1711718047086,599616197310879470,11
1711718047093,599616197318544156,74
1711718047101,599616197326208842,111
1711718047109,599616197333873528,136
1711718047116,599616197341538214,120
1711718047124,599616197349202900,39
1711718047132,599616197356867586,0
1711718047139,599616197364532272,53
1711718047147,599616197372196958,143
1711718047155,599616197379861644,236
1711718047161,599616197387526330,305
1711718047169,599616197395191016,338
1711718047177,599616197402855702,344
1711718047185,599616197410520388,328
1711718047193,599616197418185074,259
1711718047201,599616197425849760,99
1711718047208,599616197433514446,-64
1711718047216,599616197441179132,-136
1711718047224,599616197448843818,-175
1711718047231,599616197456508504,-224
1711718047239,599616197464173190,-224
1711718047247,599616197471837876,-187
1711718047254,599616197479502562,-164
1711718047262,599616197487167248,-150
1711718047270,599616197494831934,-159
1711718047277,599616197502496620,-224
1711718047285,599616197510161306,-259
1711718047293,599616197517825992,-210
1711718047300,599616197525490678,-173
1711718047308,599616197533155364,-159
1711718047316,599616197540820050,-104
1711718047323,599616197548484736,-50
1711718047331,599616197556149422,-41
1711718047339,599616197563814108,-25
1711718047345,599616197571478794,-2
1711718047353,599616197579143480,20
1711718047361,599616197586808166,57
1711718047369,599616197594472852,97
1711718047377,599616197602137538,113
1711718047385,599616197609802244,122
1711718047392,599616197617466930,134
1711718047400,599616197625131616,152
1711718047408,599616197632796302,196
1711718047415,599616197640460988,231
1711718047423,599616197648125674,217
1711718047431,599616197655790360,194
1711718047438,599616197663455046,173
1711718047446,599616197671119732,106
1711718047454,599616197678784418,48
1711718047461,599616197686449104,53
1711718047469,599616197694113790,-11
1711718047477,599616197701778476,-178
1711718047484,599616197709443162,-240
1711718047492,599616197717107848,-182
1711718047500,599616197724772534,-192
1711718047507,599616197732437220,-233
1711718047515,599616197740101906,-208
1711718047523,599616197747766592,-171
1711718047529,599616197755431278,-150
1711718047537,599616197763095964,-115
1711718047545,599616197770760650,-87
1711718047553,599616197778425336,-76
1711718047561,599616197786090022,-60
1711718047569,599616197793754708,-76
1711718047576,599616197801419394,-108
1711718047584,599616197809084080,-108
1711718047592,599616197816748766,-127
1711718047599,599616197824413452,-150
1711718047607,599616197832078138,-143
1711718047615,599616197839742824,-222
1711718047622,599616197847407510,-386
1711718047630,599616197855072196,-446
1711718047638,599616197862736882,-393
1711718047645,599616197870401568,-206
1711718047653,599616197878066254,338
1711718047661,599616197885730940,960
1711718047668,599616197893395626,928
1711718047676,599616197901060312,-27
1711718047684,599616197908724998,-1078
1711718047691,599616197916389684,-1074
1711718047699,599616197924054370,-476
1711718047707,599616197931719056,-379
1711718047713,599616197939383742,-518
1711718047721,599616197947048428,-437
1711718047729,599616197954713114,-344
1711718047737,599616197962377800,-310
1711718047745,599616197970042486,-217
1711718047753,599616197977707172,-157
1711718047760,599616197985371858,-173
1711718047768,599616197993036544,-166
1711718047775,599616198000701230,-113
1711718047783,599616198008365916,-57
1711718047791,599616198016030602,4
1711718047798,599616198023695288,55
1711718047806,599616198031359974,18
1711718047814,599616198039024660,-94
1711718047821,599616198046689346,-131
1711718047829,599616198054354032,-34
1711718047837,599616198062018718,64
1711718047844,599616198069683404,97
1711718047852,599616198077348090,127
1711718047860,599616198085012776,148
1711718047867,599616198092677462,152
1711718047875,599616198100342148,217
1711718047883,599616198108006834,319
1711718047889,599616198115671520,370
1711718047897,599616198123336206,379
1711718047905,599616198131000892,368
1711718047913,599616198138665578,328
1711718047921,599616198146330264,261
1711718047929,599616198153994950,159
1711718047936,599616198161659636,6
1711718047944,599616198169354438,-143
1711718047952,599616198177018706,-206
1711718047959,599616198184682974,-224
1711718047967,599616198192347242,-243
1711718047975,599616198200011510,-217
1711718047982,599616198207675778,-194
1711718047990,599616198215340046,-206
1711718047998,599616198223004314,-199
1711718048005,599616198230668582,-256
1711718048013,599616198238332850,-386
1711718048021,599616198245997118,-393
1711718048028,599616198253661386,-314
1711718048036,599616198261325654,-296
1711718048044,599616198268989922,-275
1711718048051,599616198276654190,-222
1711718048059,599616198284318458,-182
1711718048067,599616198291982726,-141
1711718048073,599616198299646994,-101
1711718048081,599616198307311262,-94
1711718048089,599616198314975530,-74
1711718048097,599616198322639798,-27
1711718048105,599616198330304066,-9
1711718048113,599616198337968334,-18
1711718048120,599616198345632602,-71
1711718048128,599616198353296870,-159
1711718048136,599616198360961138,-162
1711718048143,599616198368625406,-92
1711718048151,599616198376289674,-83
1711718048159,599616198383953942,-101
1711718048166,599616198391618210,-92
1711718048174,599616198399282478,-113
1711718048182,599616198406946746,-148
1711718048189,599616198414611014,-155
1711718048197,599616198422275282,-173
1711718048205,599616198429939550,-238
1711718048212,599616198437603818,-263
1711718048220,599616198445268086,-233
1711718048228,599616198452932354,-206
1711718048235,599616198460596622,-189
1711718048243,599616198468260890,-203
1711718048251,599616198475925158,-238
1711718048257,599616198483589426,-206
1711718048265,599616198491253694,-138
1711718048273,599616198498917962,-106
1711718048281,599616198506582230,-81
1711718048289,599616198514246498,-60
1711718048297,599616198521910766,-62
1711718048304,599616198529575034,-69
1711718048312,599616198537239302,-76
1711718048320,599616198544903570,-64
1711718048327,599616198552567838,-46
1711718048335,599616198560232106,-67
1711718048343,599616198567896374,-148
1711718048350,599616198575560642,-282
1711718048358,599616198583224910,-382
1711718048366,599616198590889178,-377
1711718048373,599616198598553446,-298
1711718048381,599616198606217714,23
1711718048389,599616198613881982,673
1711718048396,599616198621546250,1173
1711718048404,599616198629210518,835
1711718048412,599616198636874786,-340
1711718048419,599616198644539054,-1053
1711718048427,599616198652203322,-571
1711718048435,599616198659867590,-157
1711718048441,599616198667531858,-382
1711718048449,599616198675196126,-449
1711718048457,599616198682860394,-291
1711718048465,599616198690524662,-259
1711718048473,599616198698188930,-245
1711718048481,599616198705853198,-148
1711718048488,599616198713517466,-106
1711718048496,599616198721181734,-136
1711718048504,599616198728815922,-115
1711718048511,599616198736480608,-48
1711718048519,599616198744145294,-23
1711718048527,599616198751809980,0
1711718048534,599616198759474666,30
1711718048542,599616198767139352,-64
1711718048550,599616198774804038,-208
1711718048557,599616198782468724,-162
1711718048565,599616198790133410,-39
1711718048573,599616198797798096,13
1711718048580,599616198805462782,76
1711718048588,599616198813127468,143
1711718048596,599616198820792154,169
1711718048603,599616198828456840,215
1711718048611,599616198836121526,321
1711718048619,599616198843786212,416
1711718048625,599616198851450898,414
1711718048633,599616198859115584,307
1711718048641,599616198866780270,199
1711718048649,599616198874444956,155
1711718048657,599616198882109642,104
1711718048665,599616198889774328,2
1711718048672,599616198897439014,-118
1711718048680,599616198905103700,-250
1711718048688,599616198912768386,-338
1711718048695,599616198920433072,-375
1711718048703,599616198928097758,-363
1711718048711,599616198935762444,-310
1711718048718,599616198943427130,-287
1711718048726,599616198951091816,-287
1711718048734,599616198958756502,-275
1711718048741,599616198966421188,-305
1711718048749,599616198974085874,-324
1711718048757,599616198981750560,-259
1711718048764,599616198989415246,-199
1711718048772,599616198997079932,-180
1711718048780,599616199004744618,-155
1711718048787,599616199012409304,-127
1711718048795,599616199020073990,-108
1711718048803,599616199027738676,-85
1711718048809,599616199035403362,-55
1711718048817,599616199043068048,-25
1711718048825,599616199050732734,-4
1711718048833,599616199058397420,11
1711718048841,599616199066062106,20
1711718048849,599616199073726792,46
1711718048856,599616199081391478,78
1711718048864,599616199089056164,87
1711718048872,599616199096720850,76
1711718048879,599616199104385536,39
1711718048887,599616199112050222,-32
1711718048895,599616199119714908,-64
1711718048902,599616199127379594,-41
1711718048910,599616199135044280,-34
1711718048918,599616199142708966,-53
1711718048925,599616199150373652,-83
1711718048933,599616199158038338,-122
1711718048940,599616199165703024,-125
1711718048948,599616199173367710,-81
1711718048956,599616199181032396,-53
1711718048963,599616199188697082,-34
1711718048971,599616199196361768,-41
1711718048979,599616199204026454,-101
1711718048985,599616199211691140,-148
1711718048993,599616199219355826,-122
1711718049001,599616199227020512,-74
1711718049009,599616199234685198,-25
1711718049017,599616199242349884,20
1711718049025,599616199250014570,46
1711718049032,599616199257679256,32
1711718049040,599616199265343942,-4
1711718049048,599616199273008628,-30
1711718049055,599616199280673314,-25
1711718049063,599616199288343060,-34
1711718049071,599616199296007676,-99
1711718049078,599616199303672292,-201
1711718049086,599616199311336908,-314
1711718049094,599616199319001524,-370
1711718049101,599616199326666140,-349
1711718049109,599616199334330756,-338
1711718049117,599616199341995372,-324
1711718049124,599616199349659988,-104
1711718049132,599616199357324604,393
1711718049140,599616199364989220,923
1711718049147,599616199372653836,1007
1711718049155,599616199380318452,120
1711718049163,599616199387983068,-1025
1711718049169,599616199395647684,-1002
1711718049177,599616199403312300,-458
1711718049185,599616199410976916,-581
1711718049193,599616199418641532,-731
1711718049201,599616199426306148,-504
1711718049209,599616199433970764,-412
1711718049216,599616199441635380,-456
1711718049224,599616199449299996,-412
1711718049232,599616199456964612,-388
1711718049239,599616199464629228,-388
1711718049247,599616199472293844,-317
1711718049255,599616199479958460,-238
1711718049262,599616199487623076,-182
1711718049270,599616199495287692,-152
1711718049278,599616199502952308,-203
1711718049285,599616199510616924,-229
1711718049293,599616199518281540,-138
1711718049301,599616199525946156,-46
1711718049308,599616199533610772,4
1711718049316,599616199541275388,64
1711718049324,599616199548940004,101
1711718049331,599616199556604620,134
1711718049339,599616199564269236,222
1711718049347,599616199571933852,324
1711718049353,599616199579598468,414
1711718049361,599616199587263084,476
1711718049369,599616199594927700,483
1711718049377,599616199602592316,460
1711718049385,599616199610256932,460
1711718049393,599616199617921548,449
1711718049400,599616199625586164,370
1711718049408,599616199633250780,219
1711718049416,599616199640915396,-4
1711718049423,599616199648580012,-226
1711718049431,599616199656244628,-303
1711718049439,599616199663909244,-277
1711718049446,599616199671573860,-256
1711718049454,599616199679238476,-236
1711718049462,599616199686903092,-229
1711718049469,599616199694567708,-247
1711718049477,599616199702232324,-229
1711718049485,599616199709896940,-169
1711718049492,599616199717561556,-115
1711718049500,599616199725226172,-81
1711718049508,599616199732890788,-64
1711718049515,599616199740555404,-55
1711718049523,599616199748220020,-32
1711718049531,599616199755884636,-6
1711718049537,599616199763549252,23
1711718049545,599616199771213868,62
1711718049553,599616199778878484,83
1711718049561,599616199786543100,78
1711718049569,599616199794207716,78
1711718049577,599616199801872332,92
1711718049584,599616199809536948,111
1711718049592,599616199817201564,115
1711718049600,599616199824866180,104
1711718049607,599616199832530796,94
1711718049615,599616199840195412,64
1711718049623,599616199847880162,-6
1711718049630,599616199855544499,-83
1711718049638,599616199863208836,-155
1711718049646,599616199870873173,-182
1711718049653,599616199878537510,-178
1711718049661,599616199886201847,-250
1711718049669,599616199893866184,-351
1711718049676,599616199901530521,-349
1711718049684,599616199909194858,-294
1711718049692,599616199916859195,-275
1711718049699,599616199924523532,-238
1711718049707,599616199932187869,-189
1711718049715,599616199939852206,-226
1711718049721,599616199947516543,-282
1711718049729,599616199955180880,-266
1711718049737,599616199962845217,-236
1711718049745,599616199970509554,-238
1711718049753,599616199978173891,-224
1711718049761,599616199985838228,-187
1711718049768,599616199993502565,-152
1711718049776,599616200001166902,-113
1711718049784,599616200008831239,-99
1711718049791,599616200016495576,-92
1711718049799,599616200024159913,-69
1711718049807,599616200031824250,-134
1711718049814,599616200039488587,-300
1711718049822,599616200047152924,-405
1711718049830,599616200054817261,-412
1711718049837,599616200062481598,-407
1711718049845,599616200070145935,-388
1711718049853,599616200077810272,-356
1711718049860,599616200085474609,-344
1711718049868,599616200093138946,-358
1711718049876,599616200100803283,-370
1711718049883,599616200108467620,-328
1711718049891,599616200116131957,-37
1711718049899,599616200123796294,604
1711718049905,599616200131460631,1164
1711718049913,599616200139124968,983
1711718049921,599616200146789305,-120
1711718049929,599616200154453642,-1009
1711718049937,599616200162117979,-650
1711718049945,599616200169782316,-115
1711718049952,599616200177446653,-287
1711718049960,599616200185110990,-451
1711718049968,599616200192775327,-349
1711718049975,599616200200439664,-317
1711718049983,599616200208104001,-305
1711718049991,599616200215768338,-217
1711718049998,599616200223432675,-169
1711718050006,599616200231097012,-224
1711718050014,599616200238761349,-284
1711718050021,599616200246425686,-219
1711718050029,599616200254090023,-127
1711718050037,599616200261754360,-92
1711718050044,599616200269418697,-41
1711718050052,599616200277083034,6
1711718050060,599616200284747371,2
1711718050067,599616200292411708,34
1711718050075,599616200300076045,125
1711718050083,599616200307740382,187
1711718050089,599616200315404719,243
1711718050097,599616200323069056,319
1711718050105,599616200330733393,363
1711718050113,599616200338397730,393
1711718050121,599616200346062067,460
1711718050129,599616200353726404,527
1711718050136,599616200361390741,541
1711718050144,599616200369055078,451
1711718050152,599616200376719415,277
1711718050159,599616200384383752,162
1711718050167,599616200392048089,111
1711718050175,599616200399712426,46
1711718050182,599616200407351700,-27
1711718050190,599616200415016386,-94
1711718050197,599616200422681072,-217
1711718050205,599616200430345758,-358
1711718050213,599616200438010444,-377
1711718050220,599616200445675130,-312
1711718050228,599616200453339816,-280
1711718050236,599616200461004502,-259
1711718050243,599616200468669188,-266
1711718050251,599616200476333874,-338
1711718050259,599616200483998560,-363
1711718050265,599616200491663246,-303
1711718050273,599616200499327932,-252
1711718050281,599616200506992618,-219
1711718050289,599616200514657304,-213
1711718050297,599616200522321990,-300
1711718050305,599616200529986676,-379
1711718050312,599616200537651362,-317
1711718050320,599616200545316048,-226
1711718050328,599616200552980734,-206
1711718050335,599616200560645420,-192
1711718050343,599616200568310106,-166
1711718050351,599616200575974792,-145
1711718050358,599616200583639478,-111
1711718050366,599616200591304164,-55
1711718050374,599616200598968850,-18
1711718050381,599616200606633536,-6
1711718050389,599616200614298222,13
1711718050397,599616200621962908,16
1711718050404,599616200629627594,-9
1711718050412,599616200637292280,-4
1711718050420,599616200644956966,30
1711718050427,599616200652621652,48
1711718050435,599616200660286338,60
1711718050443,599616200667951024,74
1711718050449,599616200675615710,69
1711718050457,599616200683280396,71
1711718050465,599616200690945082,53
1711718050473,599616200698609768,-13
1711718050481,599616200706274454,-48
1711718050489,599616200713939140,-55
1711718050496,599616200721603826,-125
1711718050504,599616200729268512,-178
1711718050512,599616200736933198,-155
1711718050519,599616200744597884,-115
1711718050527,599616200752262570,-83
1711718050535,599616200759927256,-25
1711718050542,599616200767591942,2
1711718050550,599616200775256628,-23
1711718050558,599616200782921314,-74
1711718050565,599616200790586000,-127
1711718050573,599616200798250686,-157
1711718050581,599616200805915372,-194
1711718050588,599616200813580058,-245
1711718050596,599616200821244744,-247
1711718050604,599616200828909430,-224
1711718050611,599616200836574116,-233
1711718050619,599616200844238802,-229
1711718050627,599616200851903488,-187
1711718050633,599616200859568174,-166
1711718050641,599616200867232860,-169
1711718050649,599616200874897546,-46
1711718050657,599616200882562232,407
1711718050665,599616200890226918,946
1711718050673,599616200897891604,840
1711718050680,599616200905556290,-217
1711718050688,599616200913220976,-1164
1711718050696,599616200920885662,-923
1711718050703,599616200928550348,-372
1711718050711,599616200936215034,-384
1711718050719,599616200943879720,-421
1711718050726,599616200951544406,-273
1711718050734,599616200959209092,-247
1711718050742,599616200966903894,-280
1711718050749,599616200974568162,-231
1711718050757,599616200982232430,-171
1711718050765,599616200989896698,-127
1711718050772,599616200997560966,-62
1711718050780,599616201005225234,-9
1711718050788,599616201012889502,-23
1711718050795,599616201020553770,-41
1711718050803,599616201028218038,2
1711718050811,599616201035882306,53
1711718050817,599616201043546574,83
1711718050825,599616201051210842,113
1711718050833,599616201058875110,39
1711718050841,599616201066539378,-111
1711718050849,599616201074203646,-83
1711718050857,599616201081867914,67
1711718050864,599616201089532182,150
1711718050872,599616201097196450,224
1711718050880,599616201104860718,326
1711718050887,599616201112524986,354
1711718050895,599616201120189254,312
1711718050903,599616201127853522,307
1711718050910,599616201135517790,349
1711718050918,599616201143182058,338
1711718050926,599616201150846326,238
1711718050933,599616201158510594,94
1711718050941,599616201166174862,-18
1711718050949,599616201173839130,-53
1711718050956,599616201181503398,-67
1711718050964,599616201189167666,-97
1711718050972,599616201196831934,-101
1711718050979,599616201204496202,-113
1711718050987,599616201212160470,-155
1711718050995,599616201219824738,-145
1711718051001,599616201227489006,-87
1711718051009,599616201235153274,-64
1711718051017,599616201242817542,-60
1711718051025,599616201250481810,-90
1711718051033,599616201258146078,-164
1711718051041,599616201265810346,-166
1711718051048,599616201273474614,-99
1711718051056,599616201281138882,-71
1711718051064,599616201288803150,-48
1711718051071,599616201296467418,-16
1711718051079,599616201304131686,-25
1711718051087,599616201311795954,-34
1711718051094,599616201319460222,11
1711718051102,599616201327124490,62
1711718051110,599616201334788758,78
1711718051117,599616201342453026,83
1711718051125,599616201350117294,97
1711718051133,599616201357781562,69
1711718051140,599616201365445830,0
1711718051148,599616201373110098,-20
1711718051156,599616201380774366,-23
1711718051163,599616201388438634,-120
1711718051171,599616201396102902,-201
1711718051179,599616201403767170,-182
1711718051185,599616201411431438,-199
1711718051193,599616201419095706,-261
1711718051201,599616201426759974,-254
1711718051209,599616201434424242,-224
1711718051217,599616201442088510,-247
1711718051225,599616201449752778,-305
1711718051232,599616201457417046,-347
1711718051240,599616201465081314,-321
1711718051248,599616201472745582,-259
1711718051255,599616201480409850,-203
1711718051263,599616201488074118,-159
1711718051271,599616201495738386,-185
1711718051278,599616201503402654,-314
1711718051286,599616201511066922,-398
1711718051294,599616201518731190,-370
1711718051301,599616201526365378,-393
1711718051309,599616201534030064,-469
1711718051316,599616201541694750,-458
1711718051324,599616201549359436,-426
1711718051332,599616201557024122,-430
1711718051339,599616201564688808,-419
1711718051347,599616201572353494,-407
1711718051355,599616201580018180,-398
1711718051361,599616201587682866,-393
1711718051369,599616201595347552,-465
1711718051377,599616201603012238,-372
1711718051385,599616201610676924,173
1711718051393,599616201618341610,715
1711718051401,599616201626006296,537
1711718051408,599616201633670982,-472
1711718051416,599616201641335668,-1294
1711718051424,599616201649000354,-970
1711718051431,599616201656665040,-398
1711718051439,599616201664329726,-439
1711718051447,599616201671994412,-474
1711718051454,599616201679659098,-284
1711718051462,599616201687323784,-245
1711718051470,599616201694988470,-275
1711718051477,599616201702653156,-222
1711718051485,599616201710317842,-171
1711718051493,599616201717982528,-136
1711718051500,599616201725647214,-71
1711718051508,599616201733311900,-23
1711718051516,599616201740976586,-6
1711718051523,599616201748641272,18
1711718051531,599616201756305958,39
1711718051539,599616201763970644,43
1711718051545,599616201771635330,87
1711718051553,599616201779300016,166
1711718051561,599616201786964702,182
1711718051569,599616201794629388,125
1711718051577,599616201802294074,106
1711718051585,599616201809958760,187
1711718051592,599616201817623446,280
1711718051600,599616201825288132,365
1711718051608,599616201832952818,463
1711718051615,599616201840617504,490
1711718051623,599616201848282190,449
1711718051631,599616201855946876,416
1711718051638,599616201863611562,375
1711718051646,599616201871276248,319
1711718051654,599616201878940934,275
1711718051661,599616201886605620,150
1711718051669,599616201894270306,-76
1711718051677,599616201901934992,-215
1711718051684,599616201909599678,-208
1711718051692,599616201917264364,-189
1711718051700,599616201924929050,-189
1711718051707,599616201932593736,-182
1711718051715,599616201940258422,-199
1711718051723,599616201947923108,-203
1711718051729,599616201955587794,-152
1711718051737,599616201963252480,-97
1711718051745,599616201970917166,-64
1711718051753,599616201978581852,-53
1711718051761,599616201986246538,-115
1711718051769,599616201993911224,-173
1711718051776,599616202001575910,-131
1711718051784,599616202009240596,-74
1711718051792,599616202016905282,-48
1711718051799,599616202024569968,-23
1711718051807,599616202032234654,-25
1711718051815,599616202039899340,-50
1711718051822,599616202047564026,-41
1711718051830,599616202055228712,6
1711718051838,599616202062893398,53
1711718051845,599616202070558084,69
1711718051853,599616202078222770,62
1711718051861,599616202085887476,43
1711718051868,599616202093552162,30
1711718051876,599616202101216848,4
1711718051884,599616202108881534,-32
1711718051891,599616202116546220,-39
1711718051899,599616202124210906,-87
1711718051907,599616202131875592,-222
1711718051913,599616202139540278,-333
1711718051921,599616202147204964,-344
1711718051929,599616202154869650,-333
1711718051937,599616202162534336,-338
1711718051945,599616202170199022,-331
1711718051953,599616202177863708,-347
1711718051960,599616202185528394,-407
1711718051968,599616202193193080,-430
1711718051976,599616202200857766,-393
1711718051983,599616202208522452,-342
1711718051991,599616202216187138,-284
1711718051999,599616202223851824,-229
1711718052006,599616202231516510,-203
1711718052014,599616202239181196,-226
1711718052022,599616202246845882,-263
1711718052029,599616202254510568,-291
1711718052037,599616202262175254,-321
1711718052045,599616202269839940,-351
1711718052052,599616202277504626,-361
1711718052060,599616202285169312,-356
1711718052068,599616202292833998,-340
1711718052075,599616202300498684,-333
1711718052083,599616202308163370,-347
1711718052091,599616202315828056,-331
1711718052097,599616202323492742,-324
1711718052105,599616202331157428,-402
1711718052113,599616202338822114,-344
1711718052121,599616202346486800,106
1711718052129,599616202354151486,726
1711718052137,599616202361816172,1027
1711718052144,599616202369480858,472
1711718052152,599616202377145544,-724
1711718052160,599616202384810230,-1106
1711718052167,599616202392474916,-507
1711718052175,599616202400139602,-358
1711718052183,599616202407804288,-581
1711718052190,599616202415468974,-449
1711718052198,599616202423133660,-317
1711718052206,599616202430798346,-365
1711718052213,599616202438463032,-324
1711718052221,599616202446127718,-240
1711718052229,599616202453792404,-219
1711718052236,599616202461457090,-152
1711718052244,599616202469121776,-64
1711718052252,599616202476786462,-69
1711718052259,599616202484451148,-85
1711718052267,599616202492115834,-46
1711718052275,599616202499780520,4
1711718052281,599616202507445206,64
1711718052289,599616202515109892,125
1711718052297,599616202522774578,108
1711718052305,599616202530439264,50
1711718052313,599616202538103950,74
1711718052321,599616202545768636,159
1711718052328,599616202553433322,247
1711718052336,599616202561098008,342
1711718052344,599616202568762694,407
1711718052351,599616202576427380,432
1711718052359,599616202584092066,476
1711718052367,599616202591756752,472
1711718052374,599616202599421438,400
1711718052382,599616202607086124,356
1711718052390,599616202614750810,317
1711718052397,599616202622415496,206
1711718052405,599616202630080182,64
1711718052413,599616202637744868,-16
1711718052420,599616202645439670,-48
1711718052428,599616202653103938,-97
1711718052436,599616202660768206,-138
1711718052443,599616202668432474,-192
1711718052451,599616202676096742,-289
1711718052459,599616202683761010,-312
1711718052465,599616202691425278,-226
1711718052473,599616202699089546,-169
1711718052481,599616202706753814,-155
1711718052489,599616202714418082,-173
1711718052497,599616202722082350,-238
1711718052505,599616202729746618,-252
1711718052512,599616202737410886,-185
1711718052520,599616202745075154,-127
1711718052528,599616202752739422,-83
1711718052535,599616202760403690,-67
1711718052543,599616202768067958,-111
1711718052551,599616202775732226,-94
1711718052558,599616202783396494,0
1711718052566,599616202791060762,41
1711718052574,599616202798725030,50
1711718052581,599616202806389298,76
1711718052589,599616202814053566,55
1711718052597,599616202821717834,16
1711718052604,599616202829382102,30
1711718052612,599616202837046370,18
1711718052620,599616202844710638,-46
1711718052627,599616202852374906,-55
1711718052635,599616202860039174,-62
1711718052641,599616202867703442,-171
1711718052649,599616202875367710,-236
1711718052657,599616202883031978,-155
1711718052665,599616202890696246,-106
1711718052673,599616202898360514,-231
1711718052681,599616202906024782,-377
1711718052688,599616202913689050,-379
1711718052696,599616202921353318,-335
1711718052704,599616202929017586,-324
1711718052711,599616202936681854,-300
1711718052719,599616202944346122,-270
1711718052727,599616202952010390,-252
1711718052734,599616202959674658,-210
1711718052742,599616202967338926,-157
1711718052750,599616202975003194,-120
1711718052757,599616202982667462,-111
1711718052765,599616202990331730,-148
1711718052773,599616202997995998,-215
1711718052780,599616203005660266,-289
1711718052788,599616203013324534,-354
1711718052796,599616203020988802,-358
1711718052803,599616203028653070,-324
1711718052811,599616203036317338,-300
1711718052819,599616203043981606,-291
1711718052825,599616203051645874,-303
1711718052833,599616203059310142,-365
1711718052841,599616203066974410,-432
1711718052849,599616203074638678,-382
1711718052857,599616203082302946,-97
1711718052865,599616203089967214,444
1711718052872,599616203097631482,990
1711718052880,599616203105295750,900
1711718052888,599616203112960018,-231
1711718052895,599616203120624286,-1227
1711718052903,599616203128288554,-875
1711718052911,599616203135952822,-291
1711718052918,599616203143617090,-419
1711718052926,599616203151281358,-500
1711718052934,599616203158945626,-335
1711718052941,599616203166609894,-303
1711718052949,599616203174274162,-291
1711718052957,599616203181938430,-231
1711718052964,599616203189602698,-213
1711718052972,599616203197266966,-208
1711718052980,599616203204901156,-236
1711718052987,599616203212565842,-275
1711718052995,599616203220230528,-245
1711718053003,599616203227895214,-199
1711718053009,599616203235559900,-155
1711718053017,599616203243224586,-83
1711718053025,599616203250889272,-67
1711718053033,599616203258553958,-111
1711718053041,599616203266218644,-94
1711718053049,599616203273883330,-13
1711718053056,599616203281548016,69
1711718053064,599616203289212702,155
1711718053072,599616203296877388,236
1711718053079,599616203304542074,291
1711718053087,599616203312206760,338
1711718053095,599616203319871446,402
1711718053102,599616203327536132,453
1711718053110,599616203335200818,423
1711718053118,599616203342865504,349
1711718053125,599616203350530190,291
1711718053133,599616203358194876,199
1711718053141,599616203365859562,50
1711718053148,599616203373524248,-60
1711718053156,599616203381188934,-94
1711718053164,599616203388853620,-101
1711718053171,599616203396518306,-145
1711718053179,599616203404182992,-261
1711718053187,599616203411847678,-388
1711718053193,599616203419512364,-416
1711718053201,599616203427177050,-351
1711718053209,599616203434841736,-282
1711718053217,599616203442506422,-261
1711718053225,599616203450171108,-319
1711718053233,599616203457835794,-382
1711718053240,599616203465500480,-340
1711718053248,599616203473165166,-256
1711718053256,599616203480829852,-201
1711718053263,599616203488494538,-150
1711718053271,599616203496159224,-125
1711718053279,599616203503823910,-136
1711718053286,599616203511488596,-111
1711718053294,599616203519153282,-48
1711718053302,599616203526817968,-2
1711718053309,599616203534482654,27
1711718053317,599616203542147340,18
1711718053325,599616203549812026,-64
1711718053332,599616203557476712,-99
1711718053340,599616203565141398,-32
1711718053348,599616203572806084,0
1711718053355,599616203580470770,-46
1711718053363,599616203588135456,-74
1711718053371,599616203595800142,-67
1711718053377,599616203603464828,-64
1711718053385,599616203611129514,-34
1711718053393,599616203618794200,23
1711718053401,599616203626458886,60
1711718053409,599616203634123572,78
1711718053417,599616203641788258,76
1711718053424,599616203649452944,57
1711718053432,599616203657117630,32
1711718053440,599616203664782316,-2
1711718053447,599616203672447002,-4
1711718053455,599616203680111688,50
1711718053463,599616203687776374,83
1711718053470,599616203695441060,76
1711718053478,599616203703105746,87
1711718053486,599616203710770432,111
1711718053493,599616203718435118,111
1711718053501,599616203726099804,90
1711718053509,599616203733764490,50
1711718053516,599616203741429176,-46
1711718053524,599616203749093862,-159
1711718053532,599616203756758548,-182
1711718053539,599616203764453350,-162
1711718053547,599616203772117618,-208
1711718053555,599616203779781886,-256
1711718053561,599616203787446154,-263
1711718053569,599616203795110422,-282
1711718053577,599616203802774690,-210
1711718053585,599616203810438958,199
1711718053593,599616203818103226,858
1711718053601,599616203825767494,1185
1711718053608,599616203833431762,590
1711718053616,599616203841096030,-699
1711718053624,599616203848760298,-1231
1711718053631,599616203856424566,-585
1711718053639,599616203864088834,-208
1711718053647,599616203871753102,-409
1711718053654,599616203879417370,-377
1711718053662,599616203887081638,-219
1711718053670,599616203894745906,-252
1711718053677,599616203902410174,-263
1711718053685,599616203910074442,-231
1711718053693,599616203917738710,-298
1711718053700,599616203925402978,-342
1711718053708,599616203933067246,-312
1711718053716,599616203940731514,-344
1711718053723,599616203948395782,-347
1711718053731,599616203956060050,-256
1711718053739,599616203963724318,-194
1711718053745,599616203971388586,-152
1711718053753,599616203979052854,-81
1711718053761,599616203986717122,-23
1711718053769,599616203994381390,20
1711718053777,599616204002045658,87
1711718053785,599616204009709926,164
1711718053792,599616204017374194,245
1711718053800,599616204025038462,333
1711718053807,599616204032702730,391
1711718053815,599616204040366998,426
1711718053823,599616204048031266,474
1711718053830,599616204055695534,509
1711718053838,599616204063359802,500
1711718053846,599616204071024070,437
1711718053853,599616204078688338,270
1711718053861,599616204086352606,46
1711718053869,599616204094016874,-94
1711718053876,599616204101681142,-164
1711718053884,599616204109345410,-222
1711718053892,599616204117009678,-236
1711718053899,599616204124673946,-219
1711718053907,599616204132338214,-217
1711718053915,599616204140002482,-229
1711718053921,599616204147666750,-215
1711718053929,599616204155331018,-171
1711718053937,599616204162995286,-120
1711718053945,599616204170659554,-83
1711718053953,599616204178323822,-60
1711718053961,599616204185988090,-41
1711718053968,599616204193652358,-32
1711718053976,599616204201316626,-13
1711718053984,599616204208980894,30
1711718053991,599616204216645162,74
1711718053999,599616204224309430,90
1711718054007,599616204231973698,83
1711718054014,599616204239637966,74
1711718054022,599616204247302234,85
1711718054030,599616204254966502,104
1711718054037,599616204262630770,113
1711718054045,599616204270295038,120
1711718054053,599616204277959306,67
1711718054060,599616204285623574,-25
1711718054068,599616204293287842,-20
1711718054076,599616204300952110,46
1711718054083,599616204308616378,69
1711718054091,599616204316280646,48
1711718054099,599616204323914834,-23
1711718054105,599616204331579520,-76
1711718054113,599616204339244206,-50
1711718054121,599616204346908892,-18
1711718054129,599616204354573578,-2
1711718054137,599616204362238264,43
1711718054145,599616204369902950,92
1711718054152,599616204377567636,101
1711718054160,599616204385232322,120
1711718054168,599616204392897008,164
1711718054175,599616204400561694,180
1711718054183,599616204408226380,185
1711718054191,599616204415891066,155
1711718054198,599616204423555752,18
1711718054206,599616204431220438,-111
1711718054214,599616204438885124,-104
1711718054221,599616204446549810,-48
1711718054229,599616204454214496,-20
1711718054237,599616204461879182,-16
1711718054244,599616204469543868,-101
1711718054252,599616204477208554,-256
1711718054260,599616204484873240,-275
1711718054267,599616204492537926,-60
1711718054275,599616204500202612,426
1711718054283,599616204507867298,1000
1711718054289,599616204515531984,1088
1711718054297,599616204523196670,259
1711718054305,599616204530861356,-923
1711718054313,599616204538526042,-1109
1711718054321,599616204546190728,-414
1711718054329,599616204553855414,-217
1711718054336,599616204561520100,-460
1711718054344,599616204569184786,-458
1711718054352,599616204576849472,-382
1711718054359,599616204584514158,-391
1711718054367,599616204592178844,-338
1711718054375,599616204599843530,-268
1711718054382,599616204607508216,-280
1711718054390,599616204615172902,-331
1711718054398,599616204622837588,-372
1711718054405,599616204630502274,-349
1711718054413,599616204638166960,-268
1711718054421,599616204645831646,-217
1711718054428,599616204653496332,-189
1711718054436,599616204661161018,-150
1711718054444,599616204668825704,-111
1711718054451,599616204676490390,-74
1711718054459,599616204684155076,-2
1711718054467,599616204691819762,81
1711718054473,599616204699484448,138
1711718054481,599616204707149134,201
1711718054489,599616204714813820,268
1711718054497,599616204722478506,319
1711718054505,599616204730143192,382
1711718054513,599616204737807878,446
1711718054520,599616204745472564,453
1711718054528,599616204753137250,435
1711718054536,599616204760801936,407
1711718054543,599616204768466622,319
1711718054551,599616204776131308,194
1711718054559,599616204783795994,97
1711718054566,599616204791460680,0
1711718054574,599616204799125366,-83
1711718054582,599616204806790052,-129
1711718054589,599616204814454738,-185
1711718054597,599616204822119424,-210
1711718054605,599616204829784110,-173
1711718054612,599616204837448796,-157
1711718054620,599616204845113482,-150
1711718054628,599616204852778168,-113
1711718054635,599616204860442854,-122
1711718054643,599616204868107540,-192
1711718054651,599616204875772226,-206
1711718054657,599616204883467028,-166
1711718054665,599616204891131296,-145
1711718054673,599616204898795564,-111
1711718054681,599616204906459832,-69
1711718054689,599616204914124100,-64
1711718054697,599616204921788368,-113
1711718054704,599616204929452636,-201
1711718054712,599616204937116904,-236
1711718054720,599616204944781172,-182
1711718054727,599616204952445440,-152
1711718054735,599616204960109708,-226
1711718054743,599616204967773976,-319
1711718054750,599616204975438244,-314
1711718054758,599616204983102512,-261
1711718054766,599616204990766780,-217
1711718054773,599616204998431048,-175
1711718054781,599616205006095316,-187
1711718054789,599616205013759584,-266
1711718054796,599616205021423852,-294
1711718054804,599616205029088120,-243
1711718054812,599616205036752388,-201
1711718054819,599616205044416656,-187
1711718054827,599616205052080924,-178
1711718054835,599616205059745192,-203
1711718054841,599616205067409460,-206
1711718054849,599616205075073728,-120
1711718054857,599616205082737996,-34
1711718054865,599616205090402264,-11
1711718054873,599616205098066532,0
1711718054881,599616205105730800,-9
1711718054888,599616205113395068,-48
1711718054896,599616205121059336,-46
1711718054904,599616205128723604,6
1711718054911,599616205136387872,37
1711718054919,599616205144052140,18
1711718054927,599616205151716408,-81
1711718054934,599616205159380676,-210
1711718054942,599616205167044944,-231
1711718054950,599616205174709212,-175
1711718054957,599616205182373480,-143
1711718054965,599616205190037748,67
1711718054972,599616205197702016,634
1711718054980,599616205205366284,1192
1711718054988,599616205213030552,1164
1711718054995,599616205220694820,250
1711718055003,599616205228359088,-777
1711718055011,599616205236023356,-643
1711718055017,599616205243687624,-25
1711718055025,599616205251351892,-134
1711718055033,599616205259016160,-398
1711718055041,599616205266680428,-280
1711718055049,599616205274344696,-201
1711718055057,599616205282008964,-247
1711718055064,599616205289673232,-210
1711718055072,599616205297337500,-192
1711718055080,599616205305001768,-266
1711718055087,599616205312666036,-284
1711718055095,599616205320330304,-226
1711718055103,599616205327994572,-199
1711718055110,599616205335658840,-189
1711718055118,599616205343323108,-187
1711718055126,599616205350987376,-240
1711718055133,599616205358651644,-273
1711718055141,599616205366315912,-199
1711718055149,599616205373980180,-106
1711718055156,599616205381644448,-62
1711718055164,599616205389308716,-23
1711718055172,599616205396972984,27
1711718055179,599616205404637252,76
1711718055187,599616205412301520,150
1711718055195,599616205419965788,233
1711718055201,599616205427630056,222
1711718055209,599616205435294324,141
1711718055217,599616205442928512,129
1711718055225,599616205450593198,138
1711718055233,599616205458257884,85
1711718055241,599616205465922570,20
1711718055248,599616205473587256,-55
1711718055256,599616205481251942,-166
1711718055264,599616205488916628,-273
1711718055271,599616205496581314,-393
1711718055279,599616205504246000,-500
1711718055287,599616205511910686,-488
1711718055294,599616205519575372,-426
1711718055302,599616205527240058,-409
1711718055310,599616205534904744,-375
1711718055317,599616205542569430,-326
1711718055325,599616205550234116,-333
1711718055333,599616205557898802,-349
1711718055340,599616205565563488,-300
1711718055348,599616205573228174,-254
1711718055356,599616205580892860,-229
1711718055363,599616205588557546,-217
1711718055371,599616205596222232,-266
1711718055379,599616205603886918,-294
1711718055385,599616205611551604,-240
1711718055393,599616205619216290,-201
1711718055401,599616205626880976,-187
1711718055409,599616205634545662,-138
1711718055417,599616205642210348,-113
1711718055425,599616205649875034,-111
1711718055432,599616205657539720,-81
1711718055440,599616205665204406,-48
1711718055448,599616205672869092,-43
1711718055455,599616205680533778,-43
1711718055463,599616205688198464,-78
1711718055471,599616205695863150,-148
1711718055478,599616205703527836,-166
1711718055486,599616205711192522,-134
1711718055494,599616205718857208,-108
1711718055501,599616205726521894,-76
1711718055509,599616205734186580,-60
1711718055517,599616205741851266,-69
1711718055524,599616205749515952,-60
1711718055532,599616205757180638,-13
1711718055540,599616205764845324,53
1711718055547,599616205772510010,120
1711718055555,599616205780174696,162
1711718055563,599616205787839382,173
1711718055569,599616205795504068,127
1711718055577,599616205803168754,48
1711718055585,599616205810833440,41
1711718055593,599616205818498126,90
1711718055601,599616205826162812,118
1711718055609,599616205833827498,122
1711718055616,599616205841492184,111
1711718055624,599616205849156870,94
1711718055632,599616205856821556,92
1711718055639,599616205864486242,104
1711718055647,599616205872150928,106
1711718055655,599616205879815614,182
1711718055662,599616205887480300,516
1711718055670,599616205895144986,1062
1711718055678,599616205902809672,1423
1711718055685,599616205910474358,921
1711718055693,599616205918139044,-342
1711718055701,599616205925803730,-796
1711718055708,599616205933468416,-180
1711718055716,599616205941133102,-43
1711718055724,599616205948797788,-342
1711718055731,599616205956462474,-231
1711718055739,599616205964127160,-81
1711718055747,599616205971791846,-157
1711718055753,599616205979456532,-201
1711718055761,599616205987121218,-219
1711718055769,599616205994785904,-282
1711718055777,599616206002480706,-305
1711718055785,599616206010144974,-273
1711718055793,599616206017809242,-231
1711718055800,599616206025473510,-259
1711718055808,599616206033137778,-423
1711718055816,599616206040802046,-592
1711718055823,599616206048466314,-576
1711718055831,599616206056130582,-476
1711718055839,599616206063794850,-421
1711718055846,599616206071459118,-368
1711718055854,599616206079123386,-319
1711718055862,599616206086787654,-280
1711718055869,599616206094451922,-192
1711718055877,599616206102116190,-76
1711718055885,599616206109780458,27
1711718055892,599616206117444726,108
1711718055900,599616206125108994,141
1711718055908,599616206132773262,138
1711718055915,599616206140437530,150
1711718055923,599616206148101798,150
1711718055931,599616206155766066,94
1711718055937,599616206163430334,0
1711718055945,599616206171094602,-113
1711718055953,599616206178758870,-217
1711718055961,599616206186423138,-273
1711718055969,599616206194087406,-270
1711718055977,599616206201751674,-252
1711718055984,599616206209415942,-254
1711718055992,599616206217080210,-277
1711718056000,599616206224744478,-326
1711718056007,599616206232408746,-391
1711718056015,599616206240073014,-384
1711718056023,599616206247737282,-303
1711718056030,599616206255401550,-256
1711718056038,599616206263065818,-247
1711718056046,599616206270730086,-226
1711718056053,599616206278394354,-210
1711718056061,599616206286058622,-224
1711718056069,599616206293722890,-245
1711718056076,599616206301387158,-233
1711718056084,599616206309051426,-199
1711718056092,599616206316715694,-169
1711718056099,599616206324379962,-145
1711718056107,599616206332044230,-125
1711718056115,599616206339708498,-83
1711718056121,599616206347372766,-34
1711718056129,599616206355037034,-18
1711718056137,599616206362701302,-4
1711718056145,599616206370365570,27
1711718056153,599616206378029838,43
1711718056160,599616206385694106,43
1711718056168,599616206393358374,39
1711718056176,599616206401022642,41
1711718056183,599616206408686910,67
1711718056191,599616206416351178,74
1711718056199,599616206424015446,2
1711718056206,599616206431679714,-90
1711718056214,599616206439343982,-178
1711718056222,599616206447008250,-256
1711718056229,599616206454672518,-240
1711718056237,599616206462336786,-155
1711718056245,599616206470001054,-101
1711718056252,599616206477665322,-64
1711718056260,599616206485329590,-20
1711718056268,599616206492993858,-11
1711718056275,599616206500658126,-13
1711718056283,599616206508322394,18
1711718056291,599616206515986662,46
1711718056297,599616206523650930,37
1711718056305,599616206531315198,6
1711718056313,599616206538979466,-41
1711718056321,599616206546643734,-57
1711718056329,599616206554308002,-13
1711718056337,599616206561942192,2
1711718056344,599616206569606878,-83
1711718056352,599616206577271564,-189
1711718056360,599616206584936250,-152
1711718056367,599616206592600936,210
1711718056375,599616206600265622,882
1711718056383,599616206607930308,1435
1711718056390,599616206615594994,1125
1711718056398,599616206623259680,-217
1711718056406,599616206630924366,-1076
1711718056413,599616206638589052,-513
1711718056421,599616206646253738,-27
1711718056429,599616206653918424,-256
1711718056436,599616206661583110,-284
1711718056444,599616206669247796,-143
1711718056452,599616206676912482,-208
1711718056459,599616206684577168,-219
1711718056467,599616206692241854,-104
1711718056475,599616206699906540,-48
1711718056481,599616206707571226,-41
1711718056489,599616206715235912,-50
1711718056497,599616206722900598,-106
1711718056505,599616206730565284,-129
1711718056513,599616206738229970,-127
1711718056521,599616206745894656,-159
1711718056528,599616206753559342,-166
1711718056536,599616206761224028,-175
1711718056544,599616206768888714,-243
1711718056551,599616206776553400,-273
1711718056559,599616206784218086,-243
1711718056567,599616206791882772,-206
1711718056574,599616206799547458,-127
1711718056582,599616206807212144,-39
1711718056590,599616206814876830,-4
1711718056597,599616206822541516,30
1711718056605,599616206830206202,111
1711718056613,599616206837870888,175
1711718056620,599616206845535574,201
1711718056628,599616206853200260,192
1711718056636,599616206860864946,106
1711718056643,599616206868529632,-30
1711718056651,599616206876194318,-127
1711718056659,599616206883859004,-178
1711718056665,599616206891523690,-213
1711718056673,599616206899188376,-240
1711718056681,599616206906853062,-294
1711718056689,599616206914517748,-338
1711718056697,599616206922182434,-331
1711718056705,599616206929847120,-296
1711718056712,599616206937511806,-291
1711718056720,599616206945176492,-351
1711718056728,599616206952841178,-451
1711718056735,599616206960505864,-509
1711718056743,599616206968170550,-500
1711718056751,599616206975835236,-435
1711718056758,599616206983499922,-358
1711718056766,599616206991164608,-312
1711718056774,599616206998829294,-289
1711718056781,599616207006493980,-273
1711718056789,599616207014158666,-250
1711718056797,599616207021823352,-231
1711718056804,599616207029488038,-250
1711718056812,599616207037152724,-268
1711718056820,599616207044817410,-247
1711718056827,599616207052482096,-215
1711718056835,599616207060146782,-192
1711718056843,599616207067811468,-159
1711718056849,599616207075476154,-108
1711718056857,599616207083140840,-64
1711718056865,599616207090805526,-46
1711718056873,599616207098470212,-71
1711718056881,599616207106134898,-152
1711718056889,599616207113799584,-194
1711718056896,599616207121494386,-136
1711718056904,599616207129158654,-87
1711718056912,599616207136822922,-92
1711718056919,599616207144487190,-74
1711718056927,599616207152151458,-53
1711718056935,599616207159815726,-64
1711718056942,599616207167479994,-50
1711718056950,599616207175144262,11
1711718056958,599616207182808530,69
1711718056965,599616207190472798,108
1711718056973,599616207198137066,104
1711718056981,599616207205801334,23
1711718056988,599616207213465602,-41
1711718056996,599616207221129870,-16
1711718057004,599616207228794138,4
1711718057011,599616207236458406,-2
1711718057019,599616207244122674,13
1711718057027,599616207251786942,25
1711718057033,599616207259451210,30
1711718057041,599616207267115478,34
1711718057049,599616207274779746,-16
1711718057057,599616207282444014,-71
1711718057065,599616207290108282,-60
1711718057073,599616207297772550,20
1711718057080,599616207305436818,365
1711718057088,599616207313101086,981
1711718057096,599616207320765354,1240
1711718057103,599616207328429622,564
1711718057111,599616207336093890,-553
1711718057119,599616207343758158,-801
1711718057126,599616207351422426,-201
1711718057134,599616207359086694,-11
1711718057142,599616207366750962,-210
1711718057149,599616207374415230,-150
1711718057157,599616207382079498,-25
1711718057165,599616207389743766,-55
1711718057172,599616207397408034,-60
1711718057180,599616207405072302,-18
1711718057188,599616207412736570,-16
1711718057195,599616207420400838,-6
1711718057203,599616207428065106,41
1711718057211,599616207435729374,71
1711718057217,599616207443393642,32
1711718057225,599616207451057910,-90
1711718057233,599616207458722178,-219
1711718057241,599616207466386446,-243
1711718057249,599616207474050714,-185
1711718057257,599616207481714982,-131
1711718057264,599616207489379250,-125
1711718057272,599616207497043518,-182
1711718057280,599616207504707786,-203
1711718057287,599616207512372054,-131
1711718057295,599616207520036322,-90
1711718057302,599616207527700590,-85
1711718057310,599616207535364858,-18
1711718057318,599616207543029126,32
1711718057325,599616207550693394,20
1711718057333,599616207558357662,34
1711718057341,599616207566021930,53
1711718057348,599616207573686198,0
1711718057356,599616207581350466,-81
1711718057364,599616207589014734,-164
1711718057371,599616207596679002,-282
1711718057379,599616207604343270,-363
1711718057387,599616207612007538,-351
1711718057393,599616207619671806,-321
1711718057401,599616207627336074,-305
1711718057409,599616207635000342,-324
1711718057417,599616207642664610,-405
1711718057425,599616207650328878,-442
1711718057433,599616207657993146,-368
1711718057440,599616207665657414,-300
1711718057448,599616207673321682,-259
1711718057456,599616207680955870,-210
1711718057463,599616207688620556,-201
1711718057471,599616207696285242,-208
1711718057479,599616207703949928,-162
1711718057486,599616207711614614,-90
1711718057494,599616207719279300,-41
1711718057502,599616207726943986,-9
1711718057509,599616207734608672,-50
1711718057517,599616207742273358,-152
1711718057525,599616207749938044,-162
1711718057532,599616207757602730,-90
1711718057540,599616207765267416,-97
1711718057548,599616207772932102,-157
1711718057555,599616207780596788,-166
1711718057563,599616207788261474,-150
1711718057571,599616207795926160,-134
1711718057577,599616207803590846,-87
1711718057585,599616207811255532,-48
1711718057593,599616207818920218,-48
1711718057601,599616207826584904,-53
1711718057609,599616207834249590,-83
1711718057617,599616207841914276,-152
1711718057624,599616207849578962,-159
1711718057632,599616207857243648,-97
1711718057640,599616207864908334,-57
1711718057647,599616207872573020,-32
1711718057655,599616207880237706,23
1711718057663,599616207887902392,67
1711718057670,599616207895567078,81
1711718057678,599616207903231764,101
1711718057686,599616207910896450,118
1711718057693,599616207918561136,113
1711718057701,599616207926225822,115
1711718057709,599616207933890508,122
1711718057716,599616207941555194,120
1711718057724,599616207949219880,78
1711718057732,599616207956884566,-11
1711718057739,599616207964549252,-46
1711718057747,599616207972213938,-4
1711718057755,599616207979878624,6
1711718057761,599616207987543310,-4
1711718057769,599616207995207996,129
1711718057777,599616208002872682,592
1711718057785,599616208010537368,1150
1711718057793,599616208018202054,1227
1711718057801,599616208025866740,430
1711718057808,599616208033531426,-794
1711718057816,599616208041196112,-1097
1711718057824,599616208048860798,-426
1711718057831,599616208056525484,-185
1711718057839,599616208064190170,-382
1711718057847,599616208071854856,-287
1711718057854,599616208079519542,-171
1711718057862,599616208087184228,-229
1711718057870,599616208094848914,-201
1711718057877,599616208102513600,-127
1711718057885,599616208110178286,-115
1711718057893,599616208117842972,-81
1711718057900,599616208125507658,-46
1711718057908,599616208133172344,-85
1711718057916,599616208140837030,-122
1711718057923,599616208148501716,-136
1711718057931,599616208156166402,-155
1711718057939,599616208163831088,-136
1711718057945,599616208171495774,-136
1711718057953,599616208179160460,-210
1711718057961,599616208186825146,-233
1711718057969,599616208194489832,-173
1711718057977,599616208202154518,-106
1711718057985,599616208209819204,-32
1711718057992,599616208217483890,60
1711718058000,599616208225148576,118
1711718058008,599616208232813262,138
1711718058015,599616208240503096,164
1711718058023,599616208248167433,187
1711718058031,599616208255831770,166
1711718058038,599616208263496107,85
1711718058046,599616208271160444,-11
1711718058054,599616208278824781,-129
1711718058061,599616208286489118,-256
1711718058069,599616208294153455,-321
1711718058077,599616208301817792,-317
1711718058084,599616208309482129,-305
1711718058092,599616208317146466,-331
1711718058100,599616208324810803,-416
1711718058107,599616208332475140,-486
1711718058115,599616208340139477,-453
1711718058123,599616208347803814,-400
1711718058129,599616208355468151,-375
1711718058137,599616208363132488,-324
1711718058145,599616208370796825,-331
1711718058153,599616208378461162,-414
1711718058161,599616208386125499,-405
1711718058169,599616208393789836,-305
1711718058176,599616208401454173,-247
1711718058184,599616208409118510,-210
1711718058192,599616208416782847,-171
1711718058199,599616208424447184,-180
1711718058207,599616208432111521,-175
1711718058215,599616208439775858,-113
1711718058222,599616208447440195,-106
1711718058230,599616208455104532,-192
1711718058238,599616208462768869,-233
1711718058245,599616208470433206,-215
1711718058253,599616208478097543,-208
1711718058261,599616208485761880,-180
1711718058268,599616208493426217,-122
1711718058276,599616208501090554,-106
1711718058284,599616208508754891,-159
1711718058291,599616208516419228,-219
1711718058299,599616208524083565,-233
1711718058307,599616208531747902,-201
1711718058313,599616208539412239,-150
1711718058321,599616208547076576,-101
1711718058329,599616208554740913,-78
1711718058337,599616208562405250,-111
1711718058345,599616208570069587,-182
1711718058353,599616208577733924,-187
1711718058360,599616208585398261,-94
1711718058368,599616208593062598,-2
1711718058376,599616208600726935,39
1711718058383,599616208608391272,39
1711718058391,599616208616055609,-32
1711718058399,599616208623719946,-120
1711718058406,599616208631384283,-106
1711718058414,599616208639048620,-46
1711718058422,599616208646712957,-27
1711718058429,599616208654377294,-20
1711718058437,599616208662041631,-6
1711718058445,599616208669705968,2
1711718058452,599616208677370305,27
1711718058460,599616208685034642,74
1711718058467,599616208692698979,94
1711718058475,599616208700363316,67
1711718058483,599616208708027653,127
1711718058489,599616208715691990,504
1711718058497,599616208723356327,1092
1711718058505,599616208731020664,1379
1711718058513,599616208738685001,717
1711718058521,599616208746349338,-595
1711718058529,599616208754013675,-958
1711718058536,599616208761678012,-280
1711718058544,599616208769342349,-94
1711718058552,599616208777006686,-340
1711718058559,599616208784671023,-240
1711718058567,599616208792335360,-122
1711718058575,599616208799979676,-180
1711718058582,599616208807644292,-148
1711718058590,599616208815308908,-83
1711718058598,599616208822973524,-111
1711718058605,599616208830638140,-148
1711718058613,599616208838302756,-162
1711718058621,599616208845967372,-194
1711718058628,599616208853631988,-240
1711718058636,599616208861296604,-296
1711718058644,599616208868961220,-333
1711718058651,599616208876625836,-317
1711718058659,599616208884290452,-294
1711718058667,599616208891955068,-259
1711718058673,599616208899619684,-199
1711718058681,599616208907284300,-196
1711718058689,599616208914948916,-229
1711718058697,599616208922613532,-178
1711718058705,599616208930278148,-81
1711718058713,599616208937942764,-11
1711718058720,599616208945607380,57
1711718058728,599616208953271996,71
1711718058736,599616208960936612,6
1711718058743,599616208968601228,-16
1711718058751,599616208976265844,-11
1711718058759,599616208983930460,-67
1711718058766,599616208991595076,-162
1711718058774,599616208999259692,-296
1711718058782,599616209006924308,-428
1711718058789,599616209014588924,-488
1711718058797,599616209022253540,-507
1711718058805,599616209029918156,-511
1711718058812,599616209037582772,-476
1711718058820,599616209045247388,-423
1711718058828,599616209052912004,-412
1711718058835,599616209060576620,-439
1711718058843,599616209068241236,-426
1711718058851,599616209075905852,-361
1711718058857,599616209083570468,-296
1711718058865,599616209091235084,-240
1711718058873,599616209098899700,-231
1711718058881,599616209106564316,-307
1711718058889,599616209114228932,-354
1711718058897,599616209121893548,-294
1711718058904,599616209129558164,-219
1711718058912,599616209137222780,-173
1711718058920,599616209144887396,-125
1711718058927,599616209152552012,-108
1711718058935,599616209160216628,-125
1711718058943,599616209167881244,-97
1711718058950,599616209175545860,-30
1711718058958,599616209183210476,13
1711718058966,599616209190875092,46
1711718058973,599616209198539708,60
1711718058981,599616209206204324,32
1711718058989,599616209213868940,39
1711718058996,599616209221533556,92
1711718059004,599616209229198172,118
1711718059012,599616209236862788,97
1711718059019,599616209244527404,18
1711718059027,599616209252192020,-111
1711718059035,599616209259856636,-152
1711718059041,599616209267521252,-87
1711718059049,599616209275185868,-41
1711718059057,599616209282850484,-25
1711718059065,599616209290515100,-9
1711718059073,599616209298179716,-30
1711718059081,599616209305844332,-46
1711718059088,599616209313508948,23
1711718059096,599616209321173564,120
1711718059104,599616209328838180,178
1711718059111,599616209336502796,208
1711718059119,599616209344167412,194
1711718059127,599616209351832028,150
1711718059134,599616209359496686,155
1711718059142,599616209367161302,196
1711718059150,599616209374825918,215
1711718059157,599616209382490534,224
1711718059165,599616209390155150,201
1711718059173,599616209397819766,115
1711718059180,599616209405484382,48
1711718059188,599616209413148998,67
1711718059196,599616209420813614,74
1711718059203,599616209428478230,2
1711718059211,599616209436142846,-9
1711718059219,599616209443807462,312
1711718059225,599616209451472078,902
1711718059233,599616209459136694,1238
1711718059241,599616209466801310,710
1711718059249,599616209474465926,-541
1711718059257,599616209482130542,-1083
1711718059265,599616209489795158,-511
1711718059272,599616209497459774,-254
1711718059280,599616209505124390,-488
1711718059288,599616209512789006,-426
1711718059295,599616209520453622,-319
1711718059303,599616209528118238,-423
1711718059311,599616209535782854,-453
1711718059318,599616209543447470,-423
1711718059326,599616209551112086,-435
1711718059334,599616209558776702,-395
1711718059341,599616209566441318,-338
1711718059349,599616209574105934,-324
1711718059357,599616209581770550,-307
1711718059364,599616209589435166,-319
1711718059372,599616209597099782,-370
1711718059380,599616209604764398,-340
1711718059387,599616209612429014,-252
1711718059395,599616209620093630,-217
1711718059403,599616209627758246,-182
1711718059409,599616209635422862,-108
1711718059417,599616209643087478,-48
1711718059425,599616209650752094,11
1711718059433,599616209658416710,101
1711718059441,599616209666081326,171
1711718059449,599616209673745942,229
1711718059456,599616209681410558,300
1711718059464,599616209689075174,335
1711718059472,599616209696739790,326
1711718059479,599616209704404406,310
1711718059487,599616209712069022,259
1711718059495,599616209719733638,164
1711718059502,599616209727398254,69
1711718059510,599616209735062870,-37
1711718059518,599616209742727486,-150
1711718059525,599616209750392102,-199
1711718059533,599616209758056718,-210
1711718059541,599616209765721334,-229
1711718059548,599616209773385950,-217
1711718059556,599616209781050566,-217
1711718059564,599616209788715182,-294
1711718059571,599616209796379798,-347
1711718059579,599616209804044414,-303
1711718059587,599616209811709030,-243
1711718059593,599616209819373646,-201
1711718059601,599616209827038262,-157
1711718059609,599616209834702878,-127
1711718059617,599616209842367494,-127
1711718059625,599616209850032110,-120
1711718059632,599616209857696726,-76
1711718059640,599616209865361342,-18
1711718059648,599616209873025958,20
1711718059655,599616209880690574,37
1711718059663,599616209888355190,34
1711718059671,599616209896019806,39
1711718059678,599616209903684422,71
1711718059686,599616209911349038,111
1711718059694,599616209919033788,138
1711718059701,599616209926698125,157
1711718059709,599616209934362462,148
1711718059717,599616209942026799,106
1711718059724,599616209949691136,83
1711718059732,599616209957355473,41
1711718059740,599616209965019810,-41
1711718059747,599616209972684147,-60
1711718059755,599616209980348484,-48
1711718059763,599616209988012821,-108
1711718059769,599616209995677158,-125
1711718059777,599616210003341495,-53
1711718059785,599616210011005832,-9
1711718059793,599616210018670169,2
1711718059801,599616210026334506,-6
1711718059809,599616210033998843,-101
1711718059816,599616210041663180,-171
1711718059824,599616210049327517,-122
1711718059832,599616210056991854,-55
1711718059839,599616210064656191,4
1711718059847,599616210072320528,46
1711718059855,599616210079984865,-71
1711718059862,599616210087649202,-233
1711718059870,599616210095313539,-213
1711718059878,599616210102977876,-136
1711718059885,599616210110642213,-134
1711718059893,599616210118306550,-138
1711718059901,599616210125970887,-203
1711718059908,599616210133635224,-335
1711718059916,599616210141299561,-363
1711718059924,599616210148963898,-296
1711718059931,599616210156628235,-254
1711718059939,599616210164292572,-236
1711718059947,599616210171956909,-240
1711718059953,599616210179621246,-273
1711718059961,599616210187285583,-136
1711718059969,599616210194949920,382
1711718059977,599616210202614257,1062
1711718059985,599616210210278594,1298
1711718059993,599616210217942931,551
1711718060000,599616210225607268,-706
1711718060008,599616210233271605,-958
1711718060016,599616210240935942,-303
1711718060023,599616210248600279,-196
1711718060031,599616210256264616,-456
1711718060039,599616210263928953,-370
1711718060046,599616210271593290,-289
1711718060054,599616210279257627,-361
1711718060062,599616210286921964,-319
1711718060069,599616210294586301,-240
1711718060077,599616210302250638,-256
1711718060085,599616210309914975,-261
1711718060092,599616210317579312,-252
1711718060100,599616210325243649,-307
1711718060108,599616210332907986,-335
1711718060115,599616210340572323,-261
1711718060123,599616210348236660,-196
1711718060131,599616210355900997,-173
1711718060137,599616210363565334,-125
1711718060145,599616210371229671,-78
1711718060153,599616210378894008,-43
1711718060161,599616210386558345,37
1711718060169,599616210394222682,131
1711718060177,599616210401887019,175
1711718060184,599616210409551356,224
1711718060192,599616210417215693,303
1711718060200,599616210424880030,354
1711718060207,599616210432544367,388
1711718060215,599616210440208704,430
1711718060223,599616210447873041,423
1711718060230,599616210455537378,377
1711718060238,599616210463201715,284
1711718060246,599616210470866052,81
1711718060253,599616210478535422,-162
1711718060261,599616210486199690,-287
1711718060269,599616210493863958,-319
1711718060276,599616210501528226,-340
1711718060284,599616210509192494,-349
1711718060292,599616210516856762,-388
1711718060299,599616210524521030,-444
1711718060307,599616210532185298,-426
1711718060315,599616210539849566,-375
1711718060321,599616210547513834,-340
1711718060329,599616210555178102,-287
1711718060337,599616210562842370,-275
1711718060345,599616210570506638,-349
1711718060353,599616210578170906,-370
1711718060361,599616210585835174,-305
1711718060368,599616210593499442,-256
1711718060376,599616210601163710,-210
1711718060384,599616210608827978,-157
1711718060391,599616210616492246,-141
1711718060399,599616210624156514,-127
1711718060407,599616210631820782,-94
1711718060414,599616210639485050,-62
1711718060422,599616210647149318,-23
1711718060430,599616210654813586,6
1711718060437,599616210662477854,-37
1711718060445,599616210670142122,-120
1711718060453,599616210677806390,-129
1711718060460,599616210685470658,-81
1711718060468,599616210693134926,-37
1711718060476,599616210700799194,9
1711718060483,599616210708463462,60
1711718060491,599616210716127730,64
1711718060499,599616210723791998,9
1711718060505,599616210731456266,-11
1711718060513,599616210739120534,37
1711718060521,599616210746784802,78
1711718060529,599616210754449070,92
1711718060537,599616210762113338,74
1711718060545,599616210769777606,30
1711718060552,599616210777441874,41
1711718060560,599616210785106142,115
1711718060568,599616210792770410,192
1711718060575,599616210800434678,252
1711718060583,599616210808098946,263
1711718060591,599616210815763214,215
1711718060598,599616210823427482,187
1711718060606,599616210831091750,201
1711718060614,599616210838756018,180
1711718060621,599616210846420286,120
1711718060629,599616210854084554,55
1711718060637,599616210861748822,-11
1711718060644,599616210869413090,-43
1711718060652,599616210877077358,-9
1711718060660,599616210884741626,30
1711718060667,599616210892405894,43
1711718060675,599616210900070162,34
1711718060683,599616210907734430,23
1711718060689,599616210915398698,245
1711718060697,599616210923062966,847
1711718060705,599616210930727234,1331
1711718060713,599616210938391502,1034
1711718060721,599616210946055770,-85
1711718060729,599616210953720038,-953
1711718060736,599616210961384306,-673
1711718060744,599616210969048574,-229
1711718060752,599616210976712842,-446
1711718060759,599616210984377110,-588
