phoneTimestamp,sensorTimestamp,ecg
1710767730353,599616154806473118,1227
1710767730361,599616154814134738,1815
1710767730369,599616154821796358,2517
1710767730376,599616154829457978,3304
1710767730384,599616154837119598,3899
1710767730392,599616154844781218,4464
1710767730399,599616154852442838,5040
1710767730407,599616154860104458,5545
1710767730415,599616154867766078,6041
1710767730422,599616154875427698,6502
1710767730430,599616154883089318,6883
1710767730438,599616154890750938,7264
1710767730445,599616154898412558,7672
1710767730453,599616154906074178,8053
1710767730461,599616154913735798,8382
1710767730468,599616154921397418,8685
1710767730476,599616154929059038,9002
1710767730484,599616154936720658,9328
1710767730491,599616154944382278,9612
1710767730499,599616154952043898,9846
1710767730507,599616154959705518,10115
1710767730513,599616154967367138,10376
1710767730521,599616154975028758,10511
1710767730529,599616154982690378,10675
1710767730537,599616154990351998,10942
1710767730545,599616154998013618,11128
1710767730553,599616155005675238,11268
1710767730560,599616155013336858,11457
1710767730568,599616155020998478,11619
1710767730576,599616155028660098,11729
1710767730583,599616155036321718,11836
1710767730591,599616155043983338,11970
1710767730599,599616155051644958,12154
1710767730606,599616155059306578,12336
1710767730614,599616155066968198,12376
1710767730622,599616155074629818,12376
1710767730629,599616155082291438,12508
1710767730637,599616155089953058,12585
1710767730645,599616155097614678,12573
1710767730652,599616155105276298,12662
1710767730660,599616155112937918,12762
1710767730668,599616155120599538,12762
1710767730675,599616155128261158,12767
1710767730683,599616155135922778,12849
1710767730691,599616155143584398,12944
1710767730697,599616155151246018,12939
1710767730705,599616155158907638,12877
1710767730713,599616155166569258,12884
1710767730721,599616155174230878,12899
1710767730729,599616155181892498,12969
1710767730737,599616155189554118,13367
1710767730744,599616155197215738,13985
1710767730752,599616155204877358,14181
1710767730760,599616155212538978,13621
1710767730767,599616155220200598,12844
1710767730775,599616155227862218,12600
1710767730783,599616155235523838,12757
1710767730790,599616155243185458,12672
1710767730798,599616155250847078,12466
1710767730806,599616155258508698,12495
1710767730813,599616155266170318,12528
1710767730821,599616155273831938,12413
1710767730829,599616155281493558,12371
1710767730836,599616155289155178,12398
1710767730844,599616155296816798,12334
1710767730852,599616155304478418,12256
1710767730859,599616155312140038,12194
1710767730867,599616155319801658,12077
1710767730873,599616155327463278,12015
1710767730881,599616155335124898,11965
1710767730889,599616155342786518,11843
1710767730897,599616155350448138,11788
1710767730905,599616155358109758,11766
1710767730913,599616155365766378,11669
1710767730920,599616155373428068,11602
1710767730928,599616155381089758,11582
1710767730936,599616155388751448,11479
1710767730943,599616155396413138,11350
1710767730951,599616155404074828,11293
1710767730959,599616155411736518,11258
1710767730966,599616155419398208,11171
1710767730974,599616155427059898,11026
1710767730982,599616155434721588,10929
1710767730989,599616155442383278,10917
1710767730997,599616155450044968,10762
1710767731005,599616155457706658,10481
1710767731012,599616155465368348,10396
1710767731020,599616155473030038,10364
1710767731028,599616155480691728,10167
1710767731035,599616155488353418,10035
1710767731043,599616155496015108,10033
1710767731051,599616155503676798,9980
1710767731057,599616155511338488,9838
1710767731065,599616155519000178,9679
1710767731073,599616155526661868,9579
1710767731081,599616155534323558,9512
1710767731089,599616155541985248,9405
1710767731097,599616155549646938,9318
1710767731104,599616155557308628,9256
1710767731112,599616155564970318,9089
1710767731120,599616155572632008,8912
1710767731127,599616155580293698,8842
1710767731135,599616155587955388,8800
1710767731143,599616155595617078,8720
1710767731150,599616155603278768,8631
1710767731158,599616155610940458,8519
1710767731166,599616155618602148,8404
1710767731173,599616155626263838,8347
1710767731181,599616155633925528,8240
1710767731189,599616155641587218,8098
1710767731196,599616155649248908,8043
1710767731204,599616155656910598,7931
1710767731212,599616155664572288,7732
1710767731219,599616155672233978,7650
1710767731227,599616155679895668,7630
1710767731235,599616155687557358,7542
1710767731241,599616155695219048,7430
1710767731249,599616155702880738,7336
1710767731257,599616155710542428,7246
1710767731265,599616155718204118,7171
1710767731273,599616155725865808,7084
1710767731281,599616155733527498,6935
1710767731288,599616155741189188,6790
1710767731296,599616155748850878,6713
1710767731304,599616155756512568,6633
1710767731311,599616155764174258,6589
1710767731319,599616155771835948,6579
1710767731327,599616155779497638,6479
1710767731334,599616155787159328,6347
1710767731342,599616155794821018,6297
1710767731350,599616155802482708,6220
1710767731357,599616155810144398,6051
1710767731365,599616155817806088,5969
1710767731372,599616155825467778,5971
1710767731380,599616155833129468,5909
1710767731388,599616155840791158,5807
1710767731395,599616155848452848,5737
1710767731403,599616155856114538,5687
1710767731411,599616155863776228,5605
1710767731417,599616155871437918,5476
1710767731425,599616155879099608,5406
1710767731433,599616155886761298,5578
1710767731441,599616155894422988,6011
1710767731449,599616155902084678,6439
1710767731457,599616155909746368,6367
1710767731464,599616155917408058,5612
1710767731472,599616155925079844,4945
1710767731480,599616155932741394,4953
1710767731487,599616155940402944,5022
1710767731495,599616155948064494,4848
1710767731503,599616155955726044,4786
1710767731510,599616155963387594,4781
1710767731518,599616155971049144,4704
1710767731526,599616155978710694,4669
1710767731533,599616155986372244,4601
1710767731541,599616155994033794,4467
1710767731549,599616156001695344,4425
1710767731556,599616156009356894,4445
1710767731564,599616156017018444,4385
1710767731572,599616156024679994,4268
1710767731579,599616156032341544,4203
1710767731587,599616156040003094,4213
1710767731595,599616156047664644,4183
1710767731601,599616156055326194,4093
1710767731609,599616156062987744,4064
1710767731617,599616156070649294,4066
1710767731625,599616156078310844,4001
1710767731633,599616156085972394,3934
1710767731641,599616156093633944,3937
1710767731648,599616156101295494,3944
1710767731656,599616156108957044,3902
1710767731664,599616156116618594,3822
1710767731671,599616156124280144,3755
1710767731679,599616156131941694,3710
1710767731687,599616156139603244,3660
1710767731694,599616156147264794,3600
1710767731702,599616156154926344,3536
1710767731710,599616156162587894,3473
1710767731717,599616156170249444,3401
1710767731725,599616156177910994,3321
1710767731733,599616156185572544,3249
1710767731740,599616156193234094,3204
1710767731748,599616156200895644,3162
1710767731756,599616156208557194,3087
1710767731763,599616156216218744,3013
1710767731771,599616156223880294,3003
1710767731779,599616156231541844,2990
1710767731785,599616156239203394,2878
1710767731793,599616156246864944,2786
1710767731801,599616156254526494,2786
1710767731809,599616156262188044,2756
1710767731817,599616156269849594,2714
1710767731825,599616156277511144,2721
1710767731832,599616156285172694,2714
1710767731840,599616156292834244,2647
1710767731848,599616156300495794,2537
1710767731855,599616156308157344,2467
1710767731863,599616156315818894,2442
1710767731871,599616156323480444,2370
1710767731878,599616156331141994,2318
1710767731886,599616156338803544,2340
1710767731893,599616156346465094,2303
1710767731901,599616156354126644,2206
1710767731909,599616156361788194,2181
1710767731916,599616156369449744,2198
1710767731924,599616156377111294,2151
1710767731932,599616156384772844,2091
1710767731939,599616156392434394,2089
1710767731947,599616156400095944,2084
1710767731955,599616156407757494,2039
1710767731961,599616156415419044,2012
1710767731969,599616156423080594,2009
1710767731977,599616156430742144,1992
1710767731985,599616156438403694,1952
1710767731993,599616156446065244,1934
1710767732001,599616156453726794,1942
1710767732008,599616156461388344,1917
1710767732016,599616156469049894,1870
1710767732024,599616156476711444,1860
1710767732031,599616156484383064,1830
1710767732039,599616156492044475,1768
1710767732047,599616156499705886,1748
1710767732054,599616156507367297,1763
1710767732062,599616156515028708,1768
1710767732070,599616156522690119,1748
1710767732077,599616156530351530,1693
1710767732085,599616156538012941,1638
1710767732093,599616156545674352,1601
1710767732100,599616156553335763,1536
1710767732108,599616156560997174,1441
1710767732116,599616156568658585,1374
1710767732123,599616156576319996,1419
1710767732131,599616156583981407,1683
1710767732139,599616156591642818,2161
1710767732145,599616156599304229,2552
1710767732153,599616156606965640,2353
1710767732161,599616156614627051,1573
1710767732169,599616156622288462,1100
1710767732177,599616156629949873,1275
1710767732185,599616156637611284,1379
1710767732192,599616156645272695,1227
1710767732200,599616156652934106,1215
1710767732208,599616156660595517,1272
1710767732215,599616156668256928,1222
1710767732223,599616156675918339,1185
1710767732231,599616156683579750,1210
1710767732238,599616156691241161,1222
1710767732246,599616156698902572,1210
1710767732254,599616156706563983,1192
1710767732261,599616156714225394,1175
1710767732269,599616156721886805,1185
1710767732277,599616156729548216,1207
1710767732284,599616156737209627,1167
1710767732292,599616156744871038,1100
1710767732300,599616156752532449,1083
1710767732307,599616156760193860,1095
1710767732315,599616156767855271,1088
1710767732323,599616156775516682,1090
1710767732329,599616156783178093,1098
1710767732337,599616156790839504,1060
1710767732345,599616156798500915,1013
1710767732353,599616156806162326,1016
1710767732361,599616156813823737,1028
1710767732369,599616156821485148,1006
1710767732376,599616156829146559,986
1710767732384,599616156836807970,978
1710767732391,599616156844469381,963
1710767732399,599616156852130792,928
1710767732407,599616156859792203,891
1710767732414,599616156867453614,861
1710767732422,599616156875115025,806
1710767732430,599616156882776436,754
1710767732437,599616156890437847,737
1710767732445,599616156898099258,717
1710767732453,599616156905760669,707
1710767732460,599616156913422080,732
1710767732468,599616156921083491,737
1710767732476,599616156928744902,697
1710767732483,599616156936406313,679
1710767732491,599616156944067724,684
1710767732499,599616156951729135,684
1710767732505,599616156959390546,687
1710767732513,599616156967051957,689
1710767732521,599616156974713368,692
1710767732529,599616156982374779,689
1710767732537,599616156990036190,652
1710767732545,599616156997697601,600
1710767732552,599616157005359012,565
1710767732560,599616157013020423,522
1710767732568,599616157020681834,495
1710767732575,599616157028343245,488
1710767732583,599616157036004656,440
1710767732591,599616157043676114,403
1710767732598,599616157051337386,430
1710767732606,599616157058998658,448
1710767732614,599616157066659930,418
1710767732621,599616157074321202,408
1710767732629,599616157081982474,413
1710767732637,599616157089643746,373
1710767732644,599616157097305018,308
1710767732652,599616157104966290,303
1710767732660,599616157112627562,343
1710767732667,599616157120288834,338
1710767732675,599616157127950106,306
1710767732683,599616157135611378,333
1710767732689,599616157143272650,398
1710767732697,599616157150933922,418
1710767732705,599616157158595194,393
1710767732713,599616157166256466,356
1710767732721,599616157173917738,326
1710767732729,599616157181579010,341
1710767732736,599616157189240282,361
1710767732744,599616157196901554,366
1710767732752,599616157204562826,378
1710767732759,599616157212224098,381
1710767732767,599616157219885370,353
1710767732775,599616157227546642,351
1710767732782,599616157235207914,383
1710767732790,599616157242869186,351
1710767732798,599616157250530458,229
1710767732805,599616157258191730,199
1710767732813,599616157265853002,463
1710767732821,599616157273514274,973
1710767732828,599616157281175546,1429
1710767732836,599616157288836818,1369
1710767732844,599616157296498090,657
1710767732851,599616157304159362,57
1710767732859,599616157311820634,149
1710767732867,599616157319481906,323
1710767732873,599616157327143178,194
1710767732881,599616157334804450,149
1710767732889,599616157342465722,229
1710767732897,599616157350126994,216
1710767732905,599616157357788266,199
1710767732912,599616157365449538,244
1710767732920,599616157373110810,263
1710767732928,599616157380772082,254
1710767732935,599616157388433354,266
1710767732943,599616157396094626,271
1710767732951,599616157403755898,258
1710767732958,599616157411417170,271
1710767732966,599616157419078442,306
1710767732974,599616157426739714,308
1710767732981,599616157434400986,296
1710767732989,599616157442062258,326
1710767732997,599616157449723530,356
1710767733004,599616157457384802,346
1710767733012,599616157465046074,353
1710767733020,599616157472707346,385
1710767733027,599616157480368618,385
1710767733035,599616157488029890,378
1710767733043,599616157495691162,388
1710767733049,599616157503352434,376
1710767733057,599616157511013706,353
1710767733065,599616157518674978,333
1710767733073,599616157526336250,278
1710767733081,599616157533997522,216
1710767733089,599616157541658794,206
1710767733096,599616157549320066,204
1710767733104,599616157556981338,179
1710767733112,599616157564642610,184
1710767733119,599616157572303882,201
1710767733127,599616157579965154,184
1710767733135,599616157587626426,169
1710767733142,599616157595287698,166
1710767733150,599616157602918886,136
1710767733158,599616157610580576,102
1710767733165,599616157618242266,117
1710767733173,599616157625903956,139
1710767733181,599616157633565646,87
1710767733188,599616157641227336,12
1710767733196,599616157648889026,29
1710767733204,599616157656550716,77
1710767733211,599616157664212406,67
1710767733219,599616157671874096,49
1710767733227,599616157679535786,64
1710767733233,599616157687197476,92
1710767733241,599616157694859166,84
1710767733249,599616157702520856,64
1710767733257,599616157710182546,84
1710767733265,599616157717844236,84
1710767733273,599616157725505926,22
1710767733280,599616157733167616,2
1710767733288,599616157740829306,2
1710767733296,599616157748490996,-74
1710767733303,599616157756152686,-151
1710767733311,599616157763814376,-151
1710767733319,599616157771476066,-161
1710767733326,599616157779137756,-194
1710767733334,599616157786799446,-184
1710767733341,599616157794461136,-151
1710767733349,599616157802122826,-131
1710767733357,599616157809784516,-131
1710767733364,599616157817446206,-151
1710767733372,599616157825107896,-141
1710767733380,599616157832769586,-79
1710767733387,599616157840431276,-27
1710767733395,599616157848092966,-17
1710767733403,599616157855754656,-34
1710767733409,599616157863416346,-47
1710767733417,599616157871078036,-42
1710767733425,599616157878739726,-34
1710767733433,599616157886401416,-27
1710767733441,599616157894063106,-7
1710767733449,599616157901724796,9
1710767733456,599616157909386486,-4
1710767733464,599616157917048176,2
1710767733472,599616157924709866,39
1710767733479,599616157932371556,27
1710767733487,599616157940033246,-2
1710767733495,599616157947694936,-4
1710767733502,599616157955356626,19
1710767733510,599616157963018316,249
1710767733518,599616157970680006,786
1710767733525,599616157978341696,1289
1710767733533,599616157986003386,1138
1710767733541,599616157993665076,303
1710767733548,599616158001326766,-204
1710767733556,599616158008988456,2
1710767733564,599616158016650146,84
1710767733571,599616158024311836,-119
1710767733579,599616158031973526,-112
1710767733587,599616158039635216,-19
1710767733593,599616158047296906,-59
1710767733601,599616158054958596,-74
1710767733609,599616158062620286,-27
1710767733617,599616158070281976,-19
1710767733625,599616158077943666,-17
1710767733633,599616158085605356,7
1710767733640,599616158093267046,12
1710767733648,599616158100928736,22
1710767733656,599616158108590426,59
1710767733663,599616158116252116,77
1710767733671,599616158123913806,72
1710767733679,599616158131575496,82
1710767733686,599616158139237186,94
1710767733694,599616158146898876,97
1710767733702,599616158154560566,129
1710767733709,599616158162242360,186
1710767733717,599616158169903771,204
1710767733725,599616158177565182,184
1710767733732,599616158185226593,174
1710767733740,599616158192888004,189
1710767733748,599616158200549415,169
1710767733755,599616158208210826,102
1710767733763,599616158215872237,82
1710767733771,599616158223533648,104
1710767733777,599616158231195059,74
1710767733785,599616158238856470,29
1710767733793,599616158246517881,24
1710767733801,599616158254179292,-27
1710767733809,599616158261840703,-129
1710767733817,599616158269502114,-149
1710767733824,599616158277163525,-112
1710767733832,599616158284824936,-109
1710767733840,599616158292486347,-136
1710767733847,599616158300147758,-139
1710767733855,599616158307809169,-97
1710767733862,599616158315470580,-82
1710767733870,599616158323131991,-119
1710767733878,599616158330793402,-119
1710767733885,599616158338454813,-84
1710767733893,599616158346116224,-67
1710767733901,599616158353777635,-64
1710767733908,599616158361439046,-59
1710767733916,599616158369100457,-34
1710767733924,599616158376761868,-4
1710767733931,599616158384423279,-9
1710767733939,599616158392084690,-24
1710767733947,599616158399746101,-4
1710767733953,599616158407407512,-9
1710767733961,599616158415068923,-59
1710767733969,599616158422730334,-87
1710767733977,599616158430391745,-92
1710767733985,599616158438053156,-92
1710767733993,599616158445714567,-69
1710767734000,599616158453375978,-59
1710767734008,599616158461037389,-79
1710767734016,599616158468698800,-82
1710767734023,599616158476360211,-67
1710767734031,599616158484021622,-59
1710767734039,599616158491683033,-39
1710767734046,599616158499344444,-22
1710767734054,599616158507005855,-39
1710767734062,599616158514667266,-54
1710767734069,599616158522328677,-37
1710767734077,599616158529990088,-2
1710767734085,599616158537651499,29
1710767734092,599616158545312910,37
1710767734100,599616158552974321,7
1710767734108,599616158560635732,-12
1710767734115,599616158568297143,7
1710767734123,599616158575958554,27
1710767734131,599616158583619965,27
1710767734137,599616158591281376,34
1710767734145,599616158598942787,39
1710767734153,599616158606604198,37
1710767734161,599616158614265609,52
1710767734169,599616158621927020,64
1710767734177,599616158629588431,47
1710767734184,599616158637249842,17
1710767734192,599616158644911253,-2
1710767734200,599616158652572664,107
1710767734207,599616158660234075,505
1710767734215,599616158667895486,1060
1710767734223,599616158675556897,1250
1710767734230,599616158683218308,682
1710767734238,599616158690879719,-82
1710767734246,599616158698541130,-174
1710767734253,599616158706202541,59
1710767734261,599616158713863952,-12
1710767734269,599616158721500344,-102
1710767734276,599616158729162103,-27
1710767734284,599616158736823862,-27
1710767734292,599616158744485621,-74
1710767734299,599616158752147380,-69
1710767734307,599616158759809139,-87
1710767734313,599616158767470898,-124
1710767734321,599616158775132657,-114
1710767734329,599616158782794416,-94
1710767734337,599616158790456175,-77
1710767734345,599616158798117934,-59
1710767734353,599616158805779693,-89
1710767734360,599616158813441452,-112
1710767734368,599616158821103211,-57
1710767734376,599616158828764970,-29
1710767734383,599616158836426729,-64
1710767734391,599616158844088488,-47
1710767734399,599616158851750247,29
1710767734406,599616158859412006,49
1710767734414,599616158867073765,39
1710767734422,599616158874735524,67
1710767734429,599616158882397283,92
1710767734437,599616158890059042,79
1710767734445,599616158897720801,64
1710767734452,599616158905382560,79
1710767734460,599616158913044319,99
1710767734468,599616158920706078,64
1710767734475,599616158928367837,17
1710767734483,599616158936029596,12
1710767734491,599616158943691355,17
1710767734497,599616158951353114,0
1710767734505,599616158959014873,-12
1710767734513,599616158966676632,-27
1710767734521,599616158974338391,-39
1710767734529,599616158982000150,-49
1710767734537,599616158989661909,-72
1710767734544,599616158997323668,-79
1710767734552,599616159004985427,-102
1710767734560,599616159012647186,-146
1710767734567,599616159020308945,-134
1710767734575,599616159027970704,-92
1710767734583,599616159035632463,-89
1710767734590,599616159043294222,-99
1710767734598,599616159050955981,-102
1710767734606,599616159058617740,-94
1710767734613,599616159066279499,-89
1710767734621,599616159073941258,-99
1710767734629,599616159081603017,-92
1710767734636,599616159089264776,-67
1710767734644,599616159096926535,-77
1710767734652,599616159104588294,-114
1710767734659,599616159112250053,-139
1710767734667,599616159119911812,-149
1710767734675,599616159127573571,-149
1710767734681,599616159135235330,-159
1710767734689,599616159142897089,-189
1710767734697,599616159150558848,-201
1710767734705,599616159158220607,-189
1710767734713,599616159165882366,-176
1710767734721,599616159173544125,-176
1710767734728,599616159181205884,-181
1710767734736,599616159188867643,-166
1710767734744,599616159196529402,-131
1710767734751,599616159204191161,-107
1710767734759,599616159211852920,-94
1710767734767,599616159219514679,-97
1710767734774,599616159227176438,-127
1710767734782,599616159234838197,-146
1710767734790,599616159242499956,-134
1710767734797,599616159250161715,-149
1710767734805,599616159257823474,-204
1710767734813,599616159265485233,-266
1710767734820,599616159273146992,-286
1710767734828,599616159280828832,-273
1710767734836,599616159288490313,-326
1710767734843,599616159296151794,-385
1710767734851,599616159303813275,-373
1710767734859,599616159311474756,-383
1710767734865,599616159319136237,-351
1710767734873,599616159326797718,-17
1710767734881,599616159334459199,545
1710767734889,599616159342120680,866
1710767734897,599616159349782161,493
1710767734904,599616159357443642,-296
1710767734912,599616159365105123,-590
1710767734920,599616159372766604,-363
1710767734927,599616159380428085,-356
1710767734935,599616159388089566,-478
1710767734943,599616159395751047,-400
1710767734950,599616159403412528,-353
1710767734958,599616159411074009,-393
1710767734966,599616159418735490,-361
1710767734973,599616159426396971,-318
1710767734981,599616159434058452,-341
1710767734989,599616159441719933,-331
1710767734996,599616159449381414,-273
1710767735004,599616159457042895,-246
1710767735012,599616159464704376,-268
1710767735019,599616159472365857,-278
1710767735027,599616159480027338,-246
1710767735035,599616159487688819,-221
1710767735041,599616159495350300,-229
1710767735049,599616159503011781,-211
1710767735057,599616159510673262,-169
1710767735065,599616159518334743,-146
1710767735073,599616159525996224,-149
1710767735081,599616159533657705,-141
1710767735088,599616159541319186,-107
1710767735096,599616159548980667,-79
1710767735104,599616159556642148,-94
1710767735111,599616159564303629,-131
1710767735119,599616159571965110,-129
1710767735127,599616159579626591,-119
1710767735134,599616159587288072,-144
1710767735142,599616159594949553,-154
1710767735150,599616159602611034,-159
1710767735157,599616159610272515,-194
1710767735165,599616159617933996,-226
1710767735173,599616159625595477,-214
1710767735180,599616159633256958,-181
1710767735188,599616159640918439,-174
1710767735196,599616159648579920,-206
1710767735203,599616159656241401,-224
1710767735211,599616159663902882,-206
1710767735219,599616159671564363,-229
1710767735225,599616159679225844,-298
1710767735233,599616159686887325,-308
1710767735241,599616159694548806,-281
1710767735249,599616159702210287,-298
1710767735257,599616159709871768,-316
1710767735265,599616159717533249,-268
1710767735272,599616159725194730,-219
1710767735280,599616159732856211,-231
1710767735288,599616159740517692,-278
1710767735295,599616159748179173,-303
1710767735303,599616159755840654,-278
1710767735311,599616159763502135,-271
1710767735318,599616159771163616,-318
1710767735326,599616159778825097,-333
1710767735334,599616159786486578,-308
1710767735341,599616159794148059,-326
1710767735349,599616159801809540,-358
1710767735356,599616159809471021,-346
1710767735364,599616159817132502,-328
1710767735372,599616159824793983,-373
1710767735379,599616159832455464,-425
1710767735387,599616159840101912,-408
1710767735395,599616159847763602,-376
1710767735401,599616159855425292,-413
1710767735409,599616159863086982,-455
1710767735417,599616159870748672,-400
1710767735425,599616159878410362,-351
1710767735433,599616159886072052,-418
1710767735441,599616159893733742,-470
1710767735448,599616159901395432,-408
1710767735456,599616159909057122,-373
1710767735464,599616159916718812,-390
1710767735471,599616159924380502,-371
1710767735479,599616159932042192,-343
1710767735487,599616159939703882,-331
1710767735494,599616159947365572,-311
1710767735502,599616159955027262,-288
1710767735510,599616159962688952,-276
1710767735517,599616159970350642,-273
1710767735525,599616159978012332,-288
1710767735533,599616159985674022,-336
1710767735540,599616159993335712,-326
1710767735548,599616160000997402,-77
1710767735556,599616160008659092,438
1710767735563,599616160016320782,913
1710767735571,599616160023982472,744
1710767735579,599616160031644162,-102
1710767735585,599616160039305852,-567
1710767735593,599616160046967542,-303
1710767735601,599616160054629232,-209
1710767735609,599616160062290922,-410
1710767735617,599616160069952612,-371
1710767735625,599616160077614302,-239
1710767735632,599616160085275992,-254
1710767735640,599616160092937682,-268
1710767735648,599616160100599372,-224
1710767735655,599616160108261062,-201
1710767735663,599616160115922752,-201
1710767735671,599616160123584442,-191
1710767735678,599616160131246132,-154
1710767735686,599616160138907822,-117
1710767735694,599616160146569512,-104
1710767735701,599616160154231202,-99
1710767735709,599616160161892892,-79
1710767735717,599616160169554582,-52
1710767735724,599616160177216272,-54
1710767735732,599616160184877962,-89
1710767735740,599616160192539652,-102
1710767735747,599616160200201342,-64
1710767735755,599616160207863032,-37
1710767735763,599616160215524722,-37
1710767735769,599616160223186412,-37
1710767735777,599616160230848102,-42
1710767735785,599616160238509792,-62
1710767735793,599616160246171482,-84
1710767735801,599616160253833172,-84
1710767735809,599616160261494862,-69
1710767735816,599616160269156552,-89
1710767735824,599616160276818242,-144
1710767735832,599616160284479932,-169
1710767735839,599616160292141622,-161
1710767735847,599616160299803312,-186
1710767735854,599616160307465002,-219
1710767735862,599616160315126692,-204
1710767735870,599616160322788382,-154
1710767735877,599616160330450072,-129
1710767735885,599616160338111762,-131
1710767735893,599616160345773452,-124
1710767735900,599616160353435142,-89
1710767735908,599616160361096832,-94
1710767735916,599616160368758522,-164
1710767735923,599616160376420212,-201
1710767735931,599616160384081902,-184
1710767735939,599616160391743592,-199
1710767735945,599616160399405298,-216
1710767735953,599616160407066988,-176
1710767735961,599616160414728678,-139
1710767735969,599616160422390368,-146
1710767735977,599616160430052058,-164
1710767735985,599616160437713748,-159
1710767735992,599616160445375438,-139
1710767736000,599616160453037128,-151
1710767736008,599616160460698818,-199
1710767736015,599616160468360508,-194
1710767736023,599616160476022198,-169
1710767736031,599616160483683888,-229
1710767736038,599616160491345578,-266
1710767736046,599616160499007268,-224
1710767736054,599616160506668958,-236
1710767736061,599616160514330648,-288
1710767736069,599616160521992338,-306
1710767736077,599616160529654028,-316
1710767736084,599616160537315718,-336
1710767736092,599616160544977408,-361
1710767736100,599616160552639098,-363
1710767736107,599616160560300788,-308
1710767736115,599616160567962478,-266
1710767736123,599616160575624168,-293
1710767736129,599616160583285858,-303
1710767736137,599616160590947548,-271
1710767736145,599616160598609238,-281
1710767736153,599616160606270928,-301
1710767736161,599616160613932618,-266
1710767736169,599616160621594308,-239
1710767736176,599616160629255998,-236
1710767736184,599616160636917688,-216
1710767736192,599616160644579378,-191
1710767736199,599616160652241068,-174
1710767736207,599616160659902758,-171
1710767736215,599616160667564448,-221
1710767736222,599616160675226138,-226
1710767736230,599616160682887828,44
1710767736238,599616160690549518,610
1710767736245,599616160698211208,1090
1710767736253,599616160705872898,923
1710767736261,599616160713534588,117
1710767736268,599616160721196278,-405
1710767736276,599616160728857968,-258
1710767736284,599616160736519658,-151
1710767736291,599616160744181348,-261
1710767736299,599616160751843038,-268
1710767736307,599616160759504728,-266
1710767736313,599616160767166418,-311
1710767736321,599616160774828108,-323
1710767736329,599616160782489798,-331
1710767736337,599616160790151488,-328
1710767736345,599616160797813178,-316
1710767736353,599616160805474868,-321
1710767736360,599616160813136558,-291
1710767736368,599616160820798248,-239
1710767736375,599616160828459938,-211
1710767736383,599616160836121628,-194
1710767736391,599616160843783318,-184
1710767736398,599616160851445008,-169
1710767736406,599616160859106698,-127
1710767736414,599616160866768388,-79
1710767736421,599616160874430078,-77
1710767736429,599616160882091768,-69
1710767736437,599616160889753458,-34
1710767736444,599616160897415148,-44
1710767736452,599616160905076838,-112
1710767736460,599616160912738528,-146
1710767736467,599616160920400218,-107
1710767736475,599616160928061908,-79
1710767736483,599616160935723598,-112
1710767736489,599616160943385288,-141
1710767736497,599616160951046978,-129
1710767736505,599616160958708684,-114
1710767736513,599616160966370374,-127
1710767736521,599616160974032064,-151
1710767736529,599616160981693754,-181
1710767736536,599616160989355444,-229
1710767736544,599616160997017134,-266
1710767736552,599616161004678824,-256
1710767736559,599616161012340514,-224
1710767736567,599616161020002204,-204
1710767736575,599616161027663894,-216
1710767736582,599616161035325584,-219
1710767736590,599616161042987274,-176
1710767736598,599616161050648964,-146
1710767736605,599616161058310654,-184
1710767736613,599616161065972344,-211
1710767736621,599616161073634034,-204
1710767736628,599616161081295724,-246
1710767736636,599616161088957414,-313
1710767736644,599616161096619104,-306
1710767736651,599616161104280794,-254
1710767736659,599616161111942484,-236
1710767736667,599616161119604174,-239
1710767736673,599616161127265864,-231
1710767736681,599616161134927554,-219
1710767736689,599616161142589244,-219
1710767736697,599616161150250934,-216
1710767736705,599616161157912624,-179
1710767736713,599616161165574314,-144
1710767736720,599616161173236004,-164
1710767736728,599616161180897694,-194
1710767736736,599616161188559384,-186
1710767736743,599616161196221074,-194
1710767736751,599616161203882764,-239
1710767736759,599616161211544454,-266
1710767736766,599616161219206144,-283
1710767736774,599616161226867834,-301
1710767736782,599616161234529524,-271
1710767736789,599616161242191214,-224
1710767736797,599616161249852904,-229
1710767736805,599616161257514594,-258
1710767736812,599616161265176284,-291
1710767736820,599616161272837974,-333
1710767736828,599616161280499664,-351
1710767736835,599616161288161354,-368
1710767736843,599616161295823044,-385
1710767736851,599616161303484734,-363
1710767736857,599616161311146424,-333
1710767736865,599616161318808114,-316
1710767736873,599616161326469804,-293
1710767736881,599616161334131494,-261
1710767736889,599616161341793184,-236
1710767736896,599616161349454874,-271
1710767736904,599616161357116564,-308
1710767736912,599616161364778254,-109
1710767736919,599616161372439944,418
1710767736927,599616161380101634,976
1710767736935,599616161387763324,1053
1710767736942,599616161395425014,395
1710767736950,599616161403086704,-293
1710767736958,599616161410748394,-273
1710767736965,599616161418410084,-72
1710767736973,599616161426071774,-176
1710767736981,599616161433733464,-211
1710767736988,599616161441395154,-149
1710767736996,599616161449056844,-226
1710767737004,599616161456718534,-261
1710767737011,599616161464380224,-189
1710767737019,599616161472041914,-189
1710767737027,599616161479703604,-229
1710767737033,599616161487365294,-201
1710767737041,599616161495026984,-159
1710767737049,599616161502688674,-144
1710767737057,599616161510350364,-124
1710767737065,599616161518002062,-84
1710767737073,599616161525663891,-49
1710767737080,599616161533325720,-42
1710767737088,599616161540987549,-24
1710767737096,599616161548649378,19
1710767737103,599616161556311207,49
1710767737111,599616161563973036,29
1710767737119,599616161571634865,14
1710767737126,599616161579296694,57
1710767737134,599616161586958523,79
1710767737142,599616161594620352,49
1710767737149,599616161602282181,39
1710767737157,599616161609944010,57
1710767737165,599616161617605839,47
1710767737172,599616161625267668,-19
1710767737180,599616161632929497,-89
1710767737188,599616161640591326,-84
1710767737195,599616161648253155,-42
1710767737203,599616161655914984,-49
1710767737211,599616161663576813,-89
1710767737217,599616161671238642,-104
1710767737225,599616161678900471,-92
1710767737233,599616161686562300,-89
1710767737241,599616161694224129,-79
1710767737249,599616161701885958,-62
1710767737257,599616161709547787,-59
1710767737264,599616161717209616,-69
1710767737272,599616161724871445,-64
1710767737280,599616161732533274,-37
1710767737287,599616161740195103,-14
1710767737295,599616161747856932,4
1710767737303,599616161755518761,7
1710767737310,599616161763180590,-27
1710767737318,599616161770842419,-59
1710767737326,599616161778504248,-64
1710767737333,599616161786166077,-82
1710767737341,599616161793827906,-144
1710767737349,599616161801489735,-221
1710767737356,599616161809151564,-256
1710767737364,599616161816813393,-246
1710767737372,599616161824475222,-214
1710767737379,599616161832137051,-184
1710767737387,599616161839798880,-161
1710767737393,599616161847460709,-129
1710767737401,599616161855122538,-97
1710767737409,599616161862784367,-97
1710767737417,599616161870446196,-94
1710767737425,599616161878108025,-62
1710767737433,599616161885769854,-54
1710767737440,599616161893431683,-99
1710767737448,599616161901093512,-134
1710767737456,599616161908755341,-112
1710767737463,599616161916417170,-57
1710767737471,599616161924078999,-32
1710767737479,599616161931740828,-47
1710767737486,599616161939402657,-42
1710767737494,599616161947064486,-29
1710767737502,599616161954726315,-57
1710767737509,599616161962388144,-82
1710767737517,599616161970049973,-67
1710767737525,599616161977711802,-57
1710767737532,599616161985373631,-79
1710767737540,599616161993035460,-92
1710767737548,599616162000697289,-79
1710767737555,599616162008359118,-92
1710767737563,599616162016020947,-122
1710767737571,599616162023682776,-127
1710767737577,599616162031344605,-119
1710767737585,599616162039006434,-4
1710767737593,599616162046668263,395
1710767737601,599616162054330092,936
1710767737609,599616162061991921,1115
1710767737617,599616162069653750,580
1710767737624,599616162077335708,-161
1710767737632,599616162084997258,-251
1710767737640,599616162092658808,-4
1710767737647,599616162100320358,-69
1710767737655,599616162107981908,-151
1710767737663,599616162115643458,-39
1710767737670,599616162123305008,-2
1710767737678,599616162130966558,-39
1710767737686,599616162138628108,-29
1710767737693,599616162146289658,2
1710767737701,599616162153951208,29
1710767737709,599616162161612758,-2
1710767737716,599616162169274308,-92
1710767737724,599616162176935858,-104
1710767737732,599616162184597408,-32
1710767737739,599616162192258958,2
1710767737747,599616162199920508,-14
1710767737755,599616162207582058,-39
1710767737761,599616162215243608,-14
1710767737769,599616162222905158,17
1710767737777,599616162230566708,17
1710767737785,599616162238228258,47
1710767737793,599616162245889808,104
1710767737801,599616162253551358,124
1710767737808,599616162261212908,124
1710767737816,599616162268874458,134
1710767737824,599616162276536008,131
1710767737831,599616162284197558,117
1710767737839,599616162291859108,82
1710767737847,599616162299520658,34
1710767737854,599616162307182208,7
1710767737862,599616162314843758,-52
1710767737870,599616162322505308,-109
1710767737877,599616162330166858,-82
1710767737885,599616162337828408,-64
1710767737893,599616162345489958,-124
1710767737900,599616162353151508,-154
1710767737908,599616162360813058,-112
1710767737916,599616162368474608,-94
1710767737923,599616162376136158,-104
1710767737931,599616162383797708,-79
1710767737937,599616162391459258,-39
1710767737945,599616162399120808,-19
1710767737953,599616162406782358,-22
1710767737961,599616162414443908,-42
1710767737969,599616162422105458,-24
1710767737977,599616162429767008,24
1710767737984,599616162437428558,34
1710767737992,599616162445090108,14
1710767738000,599616162452751658,-27
1710767738007,599616162460413208,-72
1710767738015,599616162468074758,-67
1710767738023,599616162475736308,-44
1710767738030,599616162483397858,-49
1710767738038,599616162491059408,-54
1710767738046,599616162498720958,-72
1710767738053,599616162506382508,-84
1710767738061,599616162514044058,-69
1710767738069,599616162521705608,-79
1710767738076,599616162529367158,-134
1710767738084,599616162537028708,-141
1710767738092,599616162544690258,-109
1710767738099,599616162552351808,-114
1710767738107,599616162560013358,-129
1710767738115,599616162567674908,-114
1710767738121,599616162575336458,-102
1710767738129,599616162582998008,-107
1710767738137,599616162590659558,-136
1710767738145,599616162598321108,-176
1710767738153,599616162605982658,-181
1710767738161,599616162613644208,-179
1710767738168,599616162621305758,-176
1710767738176,599616162628967308,-154
1710767738184,599616162636618842,-146
1710767738191,599616162644280532,-174
1710767738199,599616162651942222,-164
1710767738207,599616162659603912,-122
1710767738214,599616162667265602,-146
1710767738222,599616162674927292,-224
1710767738230,599616162682588982,-261
1710767738237,599616162690250672,-288
1710767738245,599616162697912362,-323
1710767738253,599616162705574052,-151
1710767738260,599616162713235742,368
1710767738268,599616162720897432,918
1710767738276,599616162728559122,844
1710767738283,599616162736220812,49
1710767738291,599616162743882502,-478
1710767738299,599616162751544192,-263
1710767738305,599616162759205882,-109
1710767738313,599616162766867572,-258
1710767738321,599616162774529262,-254
1710767738329,599616162782190952,-176
1710767738337,599616162789852642,-236
1710767738345,599616162797514332,-286
1710767738352,599616162805176022,-241
1710767738360,599616162812837712,-196
1710767738368,599616162820499402,-206
1710767738375,599616162828161092,-211
1710767738383,599616162835822782,-156
1710767738391,599616162843484472,-99
1710767738398,599616162851146162,-129
1710767738406,599616162858807852,-189
1710767738413,599616162866469542,-176
1710767738421,599616162874131232,-119
1710767738429,599616162881792922,-99
1710767738436,599616162889454612,-92
1710767738444,599616162897116302,-57
1710767738452,599616162904777992,-12
1710767738459,599616162912439682,-4
1710767738467,599616162920101372,-14
1710767738475,599616162927763062,7
1710767738481,599616162935424752,27
1710767738489,599616162943086442,0
1710767738497,599616162950748132,-34
1710767738505,599616162958409822,-42
1710767738513,599616162966071512,-47
1710767738521,599616162973733202,-59
1710767738528,599616162981394892,-69
1710767738536,599616162989056582,-74
1710767738544,599616162996718272,-72
1710767738551,599616163004379962,-74
1710767738559,599616163012041652,-87
1710767738567,599616163019703342,-82
1710767738574,599616163027365032,-97
1710767738582,599616163035026722,-174
1710767738590,599616163042688412,-216
1710767738597,599616163050350102,-176
1710767738605,599616163058011792,-146
1710767738613,599616163065673482,-149
1710767738620,599616163073335172,-114
1710767738628,599616163080996862,-69
1710767738636,599616163088658552,-84
1710767738643,599616163096320242,-127
1710767738651,599616163103981932,-117
1710767738659,599616163111643622,-84
1710767738665,599616163119305312,-94
1710767738673,599616163126967002,-124
1710767738681,599616163134628692,-119
1710767738689,599616163142290382,-107
1710767738697,599616163149952072,-117
1710767738705,599616163157613762,-127
1710767738712,599616163165275452,-127
1710767738720,599616163172937142,-112
1710767738728,599616163180598832,-87
1710767738735,599616163188260522,-92
1710767738743,599616163195922228,-139
1710767738751,599616163203583918,-156
1710767738758,599616163211245608,-174
1710767738766,599616163218907298,-236
1710767738774,599616163226568988,-251
1710767738781,599616163234230678,-214
1710767738789,599616163241892368,-251
1710767738797,599616163249554058,-326
1710767738804,599616163257215748,-303
1710767738812,599616163264877438,-256
1710767738820,599616163272539128,-266
1710767738827,599616163280200818,-306
1710767738835,599616163287862508,-338
1710767738843,599616163295524198,-366
1710767738849,599616163303185888,-403
1710767738857,599616163310847578,-395
1710767738865,599616163318509268,-336
1710767738873,599616163326170958,-313
1710767738881,599616163333832648,-323
1710767738889,599616163341494338,-296
1710767738896,599616163349156028,-254
1710767738904,599616163356817718,-268
1710767738912,599616163364479408,-331
1710767738919,599616163372141098,-323
1710767738927,599616163379802788,-87
1710767738934,599616163387464478,390
1710767738942,599616163395126168,854
1710767738950,599616163402787858,831
1710767738957,599616163410449548,149
1710767738965,599616163418111238,-448
1710767738973,599616163425772928,-381
1710767738980,599616163433434618,-234
1710767738988,599616163441096308,-356
1710767738996,599616163448757998,-371
1710767739003,599616163456419688,-276
1710767739011,599616163464081378,-273
1710767739019,599616163471743068,-268
1710767739025,599616163479404758,-211
1710767739033,599616163487066448,-179
1710767739041,599616163494728138,-174
1710767739049,599616163502389828,-149
1710767739057,599616163510051518,-127
1710767739065,599616163517713208,-119
1710767739072,599616163525374898,-94
1710767739080,599616163533036588,-59
1710767739088,599616163540698278,-39
1710767739095,599616163548359968,-12
1710767739103,599616163556021658,7
1710767739111,599616163563683348,-9
1710767739118,599616163571345038,-29
1710767739126,599616163579006728,-32
1710767739134,599616163586668418,-19
1710767739141,599616163594330108,12
1710767739149,599616163601991798,-4
1710767739157,599616163609653488,-54
1710767739164,599616163617315178,-52
1710767739172,599616163624976868,-17
1710767739180,599616163632638558,-24
1710767739187,599616163640300248,-59
1710767739195,599616163647961938,-69
1710767739203,599616163655623628,-69
1710767739209,599616163663285318,-84
1710767739217,599616163670947008,-89
1710767739225,599616163678608698,-97
1710767739233,599616163686270388,-144
1710767739241,599616163693932078,-164
1710767739249,599616163701593768,-146
1710767739256,599616163709255458,-134
1710767739264,599616163716917148,-117
1710767739272,599616163724578838,-99
1710767739279,599616163732240528,-92
1710767739287,599616163739902218,-79
1710767739295,599616163747563908,-97
1710767739302,599616163755225614,-144
1710767739310,599616163762887304,-161
1710767739318,599616163770548994,-122
1710767739325,599616163778210684,-97
1710767739333,599616163785872374,-119
1710767739341,599616163793534064,-144
1710767739348,599616163801195754,-169
1710767739356,599616163808857444,-236
1710767739364,599616163816519134,-311
1710767739371,599616163824180824,-318
1710767739379,599616163831842514,-273
1710767739387,599616163839504204,-263
1710767739393,599616163847165894,-271
1710767739401,599616163854827584,-244
1710767739409,599616163862489274,-201
1710767739417,599616163870150964,-184
1710767739425,599616163877812654,-181
1710767739433,599616163885474344,-166
1710767739440,599616163893136034,-141
1710767739448,599616163900797724,-127
1710767739455,599616163908459414,-134
1710767739463,599616163916121104,-169
1710767739471,599616163923782794,-199
1710767739478,599616163931444484,-241
1710767739486,599616163939106174,-306
1710767739494,599616163946767864,-321
1710767739501,599616163954429554,-291
1710767739509,599616163962091244,-298
1710767739517,599616163969752934,-318
1710767739524,599616163977414624,-293
1710767739532,599616163985076314,-261
1710767739540,599616163992738004,-258
1710767739547,599616164000399694,-244
1710767739555,599616164008061384,-204
1710767739563,599616164015723074,-189
1710767739569,599616164023384764,-204
1710767739577,599616164031046454,-214
1710767739585,599616164038708144,-216
1710767739593,599616164046369834,-221
1710767739601,599616164054031524,-82
1710767739609,599616164061693214,353
1710767739616,599616164069354904,906
1710767739624,599616164077016594,1078
1710767739632,599616164084678284,505
1710767739639,599616164092339974,-214
1710767739647,599616164100001664,-251
1710767739655,599616164107663354,-69
1710767739662,599616164115325044,-246
1710767739670,599616164122986734,-328
1710767739678,599616164130648424,-171
1710767739685,599616164138310114,-144
1710767739693,599616164145971804,-191
1710767739701,599616164153633494,-141
1710767739708,599616164161295184,-102
1710767739716,599616164168956874,-112
1710767739724,599616164176618564,-112
1710767739731,599616164184280254,-87
1710767739739,599616164191941944,-54
1710767739747,599616164199603634,-29
1710767739753,599616164207265324,-17
1710767739761,599616164214927014,4
1710767739769,599616164222588704,52
1710767739777,599616164230250394,117
1710767739785,599616164237912084,149
1710767739793,599616164245573774,114
1710767739800,599616164253235464,109
1710767739808,599616164260897154,189
1710767739816,599616164268558844,234
1710767739823,599616164276220534,231
1710767739831,599616164283882224,261
1710767739839,599616164291543914,263
1710767739846,599616164299205604,204
1710767739854,599616164306867294,146
1710767739862,599616164314529000,112
1710767739869,599616164322190690,89
1710767739877,599616164329852380,64
1710767739885,599616164337514070,54
1710767739892,599616164345175760,54
1710767739900,599616164352837450,22
1710767739908,599616164360499140,-29
1710767739915,599616164368160830,-34
1710767739923,599616164375822520,2
1710767739931,599616164383484210,7
1710767739937,599616164391145900,-14
1710767739945,599616164398807590,-9
1710767739953,599616164406469280,22
1710767739961,599616164414130970,32
1710767739969,599616164421792660,9
1710767739976,599616164429454350,-9
1710767739984,599616164437116040,9
1710767739992,599616164444777730,27
1710767739999,599616164452439420,12
1710767740007,599616164460101110,2
1710767740015,599616164467762800,-2
1710767740022,599616164475424490,-74
1710767740030,599616164483086180,-169
1710767740038,599616164490747870,-144
1710767740045,599616164498409560,-77
1710767740053,599616164506071250,-89
1710767740061,599616164513732940,-104
1710767740068,599616164521394630,-69
1710767740076,599616164529056320,-57
1710767740084,599616164536718010,-69
1710767740091,599616164544379700,-49
1710767740099,599616164552041390,-2
1710767740107,599616164559703080,19
1710767740113,599616164567364770,-9
1710767740121,599616164575026460,-39
1710767740129,599616164582688150,-17
1710767740137,599616164590349840,4
1710767740145,599616164598011530,-22
1710767740153,599616164605673220,-49
1710767740160,599616164613334910,-52
1710767740168,599616164620996600,-67
1710767740176,599616164628658290,-74
1710767740183,599616164636319980,-64
1710767740191,599616164643981670,-67
1710767740199,599616164651643360,-99
1710767740206,599616164659305050,-161
1710767740214,599616164666966740,-211
1710767740222,599616164674628430,-214
1710767740229,599616164682290120,-194
1710767740237,599616164689951810,-199
1710767740245,599616164697613500,-189
1710767740252,599616164705275190,-156
1710767740260,599616164712936880,-161
1710767740268,599616164720598570,-171
1710767740275,599616164728260260,-164
1710767740283,599616164735921950,-189
1710767740291,599616164743583640,-136
1710767740297,599616164751245330,219
1710767740305,599616164758907020,809
1710767740313,599616164766568710,1180
1710767740321,599616164774230400,806
1710767740329,599616164781892090,-34
1710767740337,599616164789553780,-336
1710767740344,599616164797215470,-89
1710767740352,599616164804877160,-127
1710767740360,599616164812538850,-333
1710767740367,599616164820200540,-276
1710767740375,599616164827862230,-204
1710767740383,599616164835523920,-283
1710767740390,599616164843185610,-318
1710767740398,599616164850847300,-261
1710767740406,599616164858508990,-234
1710767740413,599616164866170680,-229
1710767740421,599616164873832386,-201
1710767740429,599616164881494076,-164
1710767740436,599616164889155766,-169
1710767740444,599616164896817456,-224
1710767740452,599616164904479146,-241
1710767740459,599616164912140836,-209
1710767740467,599616164919802526,-204
1710767740473,599616164927464216,-199
1710767740481,599616164935125906,-156
1710767740489,599616164942787596,-122
1710767740497,599616164950449286,-92
1710767740505,599616164958110976,-64
1710767740513,599616164965772666,-49
1710767740520,599616164973434356,-32
1710767740528,599616164981096046,-27
1710767740536,599616164988757736,-52
1710767740543,599616164996419426,-59
1710767740551,599616165004081116,-42
1710767740559,599616165011742806,-64
1710767740566,599616165019404496,-131
1710767740574,599616165027066186,-169
1710767740582,599616165034727876,-164
1710767740589,599616165042389566,-156
1710767740597,599616165050051256,-151
1710767740605,599616165057712946,-169
1710767740612,599616165065374636,-191
1710767740620,599616165073036326,-169
1710767740628,599616165080698016,-146
1710767740635,599616165088359706,-136
1710767740643,599616165096021396,-97
1710767740651,599616165103683086,-69
1710767740657,599616165111344776,-67
1710767740665,599616165119006466,-54
1710767740673,599616165126668156,-39
1710767740681,599616165134329846,-29
1710767740689,599616165141991536,-17
1710767740697,599616165149653226,-4
1710767740704,599616165157314916,-29
1710767740712,599616165164976606,-104
1710767740720,599616165172638296,-141
1710767740727,599616165180299986,-112
1710767740735,599616165187961676,-99
1710767740743,599616165195623366,-149
1710767740750,599616165203285056,-186
1710767740758,599616165210946746,-156
1710767740766,599616165218608436,-136
1710767740773,599616165226270126,-146
1710767740781,599616165233931816,-127
1710767740789,599616165241593506,-97
1710767740796,599616165249255196,-94
1710767740804,599616165256916886,-102
1710767740812,599616165264578576,-97
1710767740819,599616165272240266,-72
1710767740827,599616165279901956,-59
1710767740835,599616165287563646,-74
1710767740841,599616165295225336,-97
1710767740849,599616165302887026,-141
1710767740857,599616165310548716,-244
1710767740865,599616165318210406,-301
1710767740873,599616165325872096,-254
1710767740881,599616165333533786,-221
1710767740888,599616165341195476,-271
1710767740896,599616165348857166,-321
1710767740904,599616165356518856,-311
1710767740911,599616165364180546,-268
1710767740919,599616165371842236,-251
1710767740927,599616165379503926,-258
1710767740934,599616165387165616,-273
1710767740942,599616165394827306,-273
1710767740950,599616165402488996,-127
1710767740957,599616165410150686,318
1710767740965,599616165417812376,879
1710767740973,599616165425474066,993
1710767740980,599616165433135772,351
1710767740988,599616165440797462,-341
1710767740995,599616165448459152,-321
1710767741003,599616165456120842,-99
1710767741011,599616165463782532,-196
1710767741017,599616165471444222,-254
1710767741025,599616165479105912,-149
1710767741033,599616165486767602,-141
1710767741041,599616165494429292,-216
1710767741049,599616165502090982,-239
1710767741057,599616165509752672,-204
1710767741064,599616165517414362,-179
1710767741072,599616165525076052,-219
1710767741080,599616165532737742,-254
1710767741087,599616165540399432,-211
1710767741095,599616165548061122,-166
1710767741103,599616165555722812,-159
1710767741110,599616165563384502,-134
1710767741118,599616165571046192,-84
1710767741126,599616165578707882,-57
1710767741133,599616165586369572,-57
1710767741141,599616165594031262,-34
1710767741149,599616165601692952,17
1710767741156,599616165609354642,54
1710767741164,599616165617016332,69
1710767741172,599616165624678022,82
1710767741179,599616165632339712,77
1710767741187,599616165640001402,57
1710767741195,599616165647663092,52
1710767741201,599616165655324782,39
1710767741209,599616165662986472,22
1710767741217,599616165670648162,12
1710767741225,599616165678309852,-12
1710767741233,599616165685971542,-29
1710767741241,599616165693633232,-24
1710767741248,599616165701294922,-59
1710767741256,599616165708956612,-131
1710767741264,599616165716618302,-146
1710767741271,599616165724279992,-117
1710767741279,599616165731941682,-112
1710767741287,599616165739603372,-107
1710767741294,599616165747265062,-77
1710767741302,599616165754926752,-49
1710767741310,599616165762588442,-44
1710767741317,599616165770250132,-47
1710767741325,599616165777911822,-27
1710767741333,599616165785573512,2
1710767741340,599616165793235202,12
1710767741348,599616165800896892,7
1710767741356,599616165808558582,-14
1710767741363,599616165816220272,-72
1710767741371,599616165823881962,-104
1710767741379,599616165831543652,-89
1710767741385,599616165839205342,-92
1710767741393,599616165846867032,-109
1710767741401,599616165854528722,-107
1710767741409,599616165862190412,-107
1710767741417,599616165869852102,-102
1710767741425,599616165877513792,-102
1710767741432,599616165885175482,-139
1710767741440,599616165892837172,-189
1710767741448,599616165900498862,-204
1710767741455,599616165908160552,-206
1710767741463,599616165915822242,-209
1710767741471,599616165923483932,-189
1710767741478,599616165931145622,-156
1710767741486,599616165938807312,-139
1710767741493,599616165946469002,-131
1710767741501,599616165954130692,-122
1710767741509,599616165961792382,-119
1710767741516,599616165969454072,-131
1710767741524,599616165977115762,-169
1710767741532,599616165984777452,-194
1710767741539,599616165992439158,-189
1710767741547,599616166000100848,-194
1710767741555,599616166007762538,-196
1710767741561,599616166015424228,-176
1710767741569,599616166023085918,-169
1710767741577,599616166030747608,-176
1710767741585,599616166038409298,-174
1710767741593,599616166046070988,-176
1710767741601,599616166053732678,-199
1710767741608,599616166061394368,-291
1710767741616,599616166069056058,-418
1710767741624,599616166076717748,-266
1710767741631,599616166084379438,303
1710767741639,599616166092041128,871
1710767741647,599616166099702818,831
1710767741654,599616166107364508,94
1710767741662,599616166115026198,-485
1710767741670,599616166122687888,-351
1710767741677,599616166130349578,-194
1710767741685,599616166138011268,-336
1710767741693,599616166145672958,-363
1710767741700,599616166153334648,-293
1710767741708,599616166160996338,-298
1710767741716,599616166168658028,-276
1710767741723,599616166176319718,-219
1710767741731,599616166183981408,-211
1710767741739,599616166191643098,-206
1710767741745,599616166199304788,-159
1710767741753,599616166206966478,-119
1710767741761,599616166214628168,-107
1710767741769,599616166222289858,-89
1710767741777,599616166229951548,-69
1710767741785,599616166237613238,-74
1710767741792,599616166245274928,-112
1710767741800,599616166252936618,-124
1710767741808,599616166260598308,-69
1710767741815,599616166268259998,-29
1710767741823,599616166275921688,-44
1710767741831,599616166283583378,-22
1710767741838,599616166291245068,32
1710767741846,599616166298906758,52
1710767741854,599616166306568448,44
1710767741861,599616166314230138,4
1710767741869,599616166321891828,-42
1710767741877,599616166329553518,-32
1710767741884,599616166337215208,-17
1710767741892,599616166344876898,-34
1710767741900,599616166352538588,-34
1710767741907,599616166360200278,-42
1710767741915,599616166367861968,-69
1710767741923,599616166375523658,-72
1710767741929,599616166383185348,-54
1710767741937,599616166390847038,-82
1710767741945,599616166398508728,-122
1710767741953,599616166406170418,-112
1710767741961,599616166413832108,-92
1710767741969,599616166421493798,-114
1710767741976,599616166429155488,-146
1710767741984,599616166436817178,-124
1710767741992,599616166444478868,-77
1710767741999,599616166452140558,-72
1710767742007,599616166459802248,-84
1710767742014,599616166467463938,-57
1710767742022,599616166475125628,-17
1710767742030,599616166482787318,-12
1710767742037,599616166490449008,-22
1710767742045,599616166498110698,-27
1710767742053,599616166505772388,-44
1710767742060,599616166513434078,-54
1710767742068,599616166521095768,-39
1710767742076,599616166528757458,-22
1710767742083,599616166536419148,-12
1710767742091,599616166544080838,-9
1710767742099,599616166551742544,-17
1710767742105,599616166559404234,-12
1710767742113,599616166567065924,0
1710767742121,599616166574727614,-2
1710767742129,599616166582389304,2
1710767742137,599616166590050994,7
1710767742145,599616166597712684,-27
1710767742152,599616166605374374,-122
1710767742160,599616166613036064,-201
1710767742168,599616166620697754,-196
1710767742175,599616166628359444,-169
1710767742183,599616166636021134,-181
1710767742191,599616166643682824,-204
1710767742198,599616166651344514,-206
1710767742206,599616166659006204,-209
1710767742214,599616166666667894,-229
1710767742221,599616166674329584,-226
1710767742229,599616166681991274,-196
1710767742237,599616166689652964,-194
1710767742244,599616166697314654,-201
1710767742252,599616166704976344,-176
1710767742260,599616166712638034,-141
1710767742267,599616166720299724,-129
1710767742275,599616166727961414,-131
1710767742283,599616166735623104,-139
1710767742289,599616166743284794,-159
1710767742297,599616166750946484,-174
1710767742305,599616166758608174,-12
1710767742313,599616166766269864,465
1710767742321,599616166773931554,1025
1710767742329,599616166781593244,1095
1710767742336,599616166789254934,371
1710767742344,599616166796916624,-351
1710767742352,599616166804578314,-286
1710767742359,599616166812240004,-87
1710767742367,599616166819901694,-273
1710767742375,599616166827563384,-336
1710767742382,599616166835225074,-209
1710767742390,599616166842886764,-206
1710767742398,599616166850548454,-229
1710767742405,599616166858210144,-166
1710767742413,599616166865871834,-136
1710767742421,599616166873533524,-144
1710767742428,599616166881195214,-139
1710767742436,599616166888856904,-141
1710767742444,599616166896518594,-122
1710767742451,599616166904180284,-84
1710767742459,599616166911841974,-77
1710767742467,599616166919503664,-67
1710767742473,599616166927165354,-39
1710767742481,599616166934827044,-32
1710767742489,599616166942488734,-29
1710767742497,599616166950150424,4
1710767742505,599616166957812114,29
1710767742513,599616166965473804,-9
1710767742520,599616166973135494,-32
1710767742528,599616166980797184,14
1710767742535,599616166988458874,47
1710767742543,599616166996120564,37
1710767742551,599616167003782254,27
1710767742558,599616167011443944,17
1710767742566,599616167019105634,7
1710767742574,599616167026767324,7
1710767742581,599616167034429014,2
1710767742589,599616167042090704,-2
1710767742597,599616167049752394,-14
1710767742604,599616167057414084,-42
1710767742612,599616167065075774,-42
1710767742620,599616167072737464,-17
1710767742627,599616167080399154,-12
1710767742635,599616167088060844,-22
1710767742643,599616167095722534,-12
1710767742649,599616167103384224,7
1710767742657,599616167111045930,12
1710767742665,599616167118707620,9
1710767742673,599616167126369310,0
1710767742681,599616167134031000,-27
1710767742689,599616167141692690,-74
1710767742696,599616167149354380,-124
1710767742704,599616167157016070,-124
1710767742712,599616167164677760,-89
1710767742719,599616167172339450,-114
1710767742727,599616167180001140,-174
1710767742735,599616167187662830,-176
1710767742742,599616167195324520,-151
1710767742750,599616167202986210,-154
1710767742758,599616167210647900,-139
1710767742765,599616167218309590,-112
1710767742773,599616167225971280,-109
1710767742781,599616167233632970,-109
1710767742788,599616167241294660,-97
1710767742796,599616167248956350,-74
1710767742804,599616167256618040,-47
1710767742811,599616167264279730,-32
1710767742819,599616167271941420,-17
1710767742827,599616167279603110,0
1710767742833,599616167287264800,-4
1710767742841,599616167294926490,-39
1710767742849,599616167302588180,-57
1710767742857,599616167310249870,-57
1710767742865,599616167317911560,-122
1710767742873,599616167325573250,-221
1710767742880,599616167333234940,-246
1710767742888,599616167340896630,-216
1710767742896,599616167348558320,-211
1710767742903,599616167356220010,-214
1710767742911,599616167363881700,-186
1710767742919,599616167371543390,-174
1710767742926,599616167379205080,-209
1710767742934,599616167386866770,-224
1710767742942,599616167394528460,-186
1710767742949,599616167402190150,-146
1710767742957,599616167409851840,-134
1710767742965,599616167417513530,-139
1710767742972,599616167425175220,-151
1710767742980,599616167432836910,-169
1710767742988,599616167440498600,-124
1710767742995,599616167448160290,156
1710767743003,599616167455821980,704
1710767743011,599616167463483670,1162
1710767743017,599616167471145360,953
1710767743025,599616167478807050,131
1710767743033,599616167486468740,-303
1710767743041,599616167494130430,-77
1710767743049,599616167501792120,-14
1710767743056,599616167509453810,-211
1710767743064,599616167517115500,-199
1710767743072,599616167524777190,-107
1710767743079,599616167532438880,-134
1710767743087,599616167540100570,-136
1710767743095,599616167547762260,-74
1710767743102,599616167555423950,-52
1710767743110,599616167563085640,-69
1710767743118,599616167570747330,-59
1710767743125,599616167578409020,-19
1710767743133,599616167586070710,9
1710767743141,599616167593732400,17
1710767743148,599616167601394090,22
1710767743156,599616167609055780,39
1710767743164,599616167616717470,54
1710767743171,599616167624379160,49
1710767743179,599616167632040850,49
1710767743187,599616167639702540,89
1710767743193,599616167647364230,114
1710767743201,599616167655025920,97
1710767743209,599616167662687610,89
1710767743217,599616167670349316,122
1710767743225,599616167678011006,127
1710767743233,599616167685672696,72
1710767743240,599616167693334386,22
1710767743248,599616167700996076,29
1710767743256,599616167708657766,29
1710767743263,599616167716319456,-32
1710767743271,599616167723981146,-74
1710767743279,599616167731642836,-52
1710767743286,599616167739304526,-49
1710767743294,599616167746966216,-82
1710767743302,599616167754627906,-77
1710767743309,599616167762289596,-39
1710767743317,599616167769951286,-32
1710767743325,599616167777612976,-32
1710767743332,599616167785274666,-17
1710767743340,599616167792936356,-4
1710767743348,599616167800598046,-2
1710767743355,599616167808259736,2
1710767743363,599616167815921426,17
1710767743371,599616167823583116,2
1710767743377,599616167831244806,-82
1710767743385,599616167838906496,-164
1710767743393,599616167846568186,-161
1710767743401,599616167854229876,-136
1710767743409,599616167861891566,-159
1710767743417,599616167869553256,-189
1710767743424,599616167877214946,-199
1710767743432,599616167884876636,-199
1710767743440,599616167892538326,-191
1710767743447,599616167900200016,-184
1710767743455,599616167907861706,-171
1710767743463,599616167915523396,-149
1710767743470,599616167923185086,-146
1710767743478,599616167930846776,-159
1710767743486,599616167938508466,-144
1710767743493,599616167946170156,-109
1710767743501,599616167953831846,-102
1710767743509,599616167961493536,-112
1710767743516,599616167969155226,-124
1710767743524,599616167976816916,-149
1710767743532,599616167984478606,-169
1710767743539,599616167992140296,-171
1710767743547,599616167999801986,-154
1710767743553,599616168007463676,-146
1710767743561,599616168015125366,-224
1710767743569,599616168022787056,-318
1710767743577,599616168030448746,-301
1710767743585,599616168038110436,-254
1710767743593,599616168045772126,-256
1710767743600,599616168053433816,-251
1710767743608,599616168061095506,-234
1710767743616,599616168068757196,-246
1710767743623,599616168076418886,-256
1710767743631,599616168084080576,-226
1710767743639,599616168091742266,-189
1710767743646,599616168099403956,-186
1710767743654,599616168107065646,-231
1710767743662,599616168114727336,-268
1710767743669,599616168122389026,-77
1710767743677,599616168130050716,445
1710767743685,599616168137712406,958
1710767743692,599616168145374096,951
1710767743700,599616168153035786,268
1710767743708,599616168160697476,-356
1710767743715,599616168168359166,-281
1710767743723,599616168176020856,-77
1710767743731,599616168183682546,-181
1710767743737,599616168191344236,-256
1710767743745,599616168199005926,-234
1710767743753,599616168206667616,-244
1710767743761,599616168214329306,-221
1710767743769,599616168221990996,-179
1710767743777,599616168229652702,-171
1710767743784,599616168237314392,-146
1710767743792,599616168244976082,-122
1710767743800,599616168252637772,-154
1710767743807,599616168260299462,-194
1710767743815,599616168267961152,-166
1710767743823,599616168275622842,-119
1710767743830,599616168283284532,-102
1710767743838,599616168290946222,-84
1710767743846,599616168298607912,-64
1710767743853,599616168306269602,-42
1710767743861,599616168313931292,-12
1710767743869,599616168321592982,12
1710767743876,599616168329254672,14
1710767743884,599616168336916362,-29
1710767743892,599616168344578052,-69
1710767743899,599616168352239742,-52
1710767743907,599616168359901432,-59
1710767743915,599616168367563122,-124
1710767743921,599616168375224812,-179
1710767743929,599616168382886502,-194
1710767743937,599616168390548192,-191
1710767743945,599616168398209882,-191
1710767743953,599616168405871572,-201
1710767743961,599616168413533262,-191
1710767743968,599616168421194952,-156
1710767743976,599616168428856642,-149
1710767743984,599616168436518332,-171
1710767743991,599616168444180022,-164
1710767743999,599616168451841712,-127
1710767744007,599616168459503402,-104
1710767744014,599616168467165092,-99
1710767744022,599616168474826782,-77
1710767744030,599616168482488472,-59
1710767744037,599616168490150162,-57
1710767744045,599616168497811852,-47
1710767744053,599616168505473542,-22
1710767744060,599616168513135232,7
1710767744068,599616168520796922,7
1710767744075,599616168528458612,-14
1710767744083,599616168536120302,-17
1710767744091,599616168543781992,-24
1710767744097,599616168551443682,-82
1710767744105,599616168559105372,-141
1710767744113,599616168566767062,-139
1710767744121,599616168574428752,-122
1710767744129,599616168582090442,-134
1710767744137,599616168589752132,-131
1710767744144,599616168597413822,-107
1710767744152,599616168605075512,-107
1710767744160,599616168612737202,-151
1710767744167,599616168620398892,-176
1710767744175,599616168628060582,-144
1710767744183,599616168635722272,-117
1710767744190,599616168643383962,-124
1710767744198,599616168651045652,-102
1710767744206,599616168658707342,-59
1710767744213,599616168666369032,-77
1710767744221,599616168674030722,-129
1710767744229,599616168681692412,-161
1710767744236,599616168689354102,-171
1710767744244,599616168697015792,-169
1710767744252,599616168704677482,-174
1710767744259,599616168712339172,-189
1710767744267,599616168720000862,-179
1710767744275,599616168727662552,-176
1710767744281,599616168735324242,-216
1710767744289,599616168742985932,-234
1710767744297,599616168750647622,-209
1710767744305,599616168758309312,-219
1710767744313,599616168765971002,-268
1710767744321,599616168773632692,-236
1710767744328,599616168781294382,32
1710767744336,599616168788971136,547
1710767744344,599616168796632617,1020
1710767744351,599616168804294098,931
1710767744359,599616168811955579,179
1710767744367,599616168819617060,-373
1710767744374,599616168827278541,-229
1710767744382,599616168834940022,-117
1710767744390,599616168842601503,-313
1710767744397,599616168850262984,-361
1710767744405,599616168857924465,-291
1710767744413,599616168865585946,-298
1710767744420,599616168873247427,-276
1710767744428,599616168880908908,-251
1710767744436,599616168888570389,-301
1710767744443,599616168896231870,-318
1710767744451,599616168903893351,-276
1710767744459,599616168911554832,-288
1710767744465,599616168919216313,-326
1710767744473,599616168926877794,-281
1710767744481,599616168934539275,-221
1710767744489,599616168942200756,-221
1710767744497,599616168949862237,-211
1710767744505,599616168957523718,-156
1710767744512,599616168965185199,-104
1710767744520,599616168972846680,-84
1710767744528,599616168980508161,-72
1710767744535,599616168988169642,-54
1710767744543,599616168995831123,-29
1710767744551,599616169003492604,-17
1710767744558,599616169011154085,-4
1710767744566,599616169018815566,17
1710767744574,599616169026477047,9
1710767744581,599616169034138528,-24
1710767744589,599616169041800009,-34
1710767744596,599616169049461490,-19
1710767744604,599616169057122971,-27
1710767744612,599616169064784452,-52
1710767744619,599616169072445933,-67
1710767744627,599616169080107414,-77
1710767744635,599616169087768895,-77
1710767744641,599616169095430376,-77
1710767744649,599616169103091857,-92
1710767744657,599616169110753338,-99
1710767744665,599616169118414819,-92
1710767744673,599616169126076300,-134
1710767744681,599616169133737781,-169
1710767744688,599616169141399262,-122
1710767744696,599616169149060743,-87
1710767744704,599616169156722224,-99
1710767744711,599616169164383705,-87
1710767744719,599616169172045186,-62
1710767744727,599616169179706667,-54
1710767744734,599616169187368148,-57
1710767744742,599616169195029629,-54
1710767744750,599616169202691110,-59
1710767744757,599616169210352591,-79
1710767744765,599616169218014072,-104
1710767744773,599616169225675553,-109
1710767744780,599616169233337034,-79
1710767744788,599616169240998515,-69
1710767744796,599616169248659996,-82
1710767744803,599616169256321477,-77
1710767744811,599616169263982958,-82
1710767744819,599616169271644439,-122
1710767744825,599616169279305920,-161
1710767744833,599616169286967401,-146
1710767744841,599616169294628882,-112
1710767744849,599616169302290363,-122
1710767744857,599616169309951844,-139
1710767744865,599616169317613325,-117
1710767744872,599616169325274806,-97
1710767744880,599616169332936287,-136
1710767744888,599616169340597768,-226
1710767744895,599616169348239246,-311
1710767744903,599616169355901005,-326
1710767744911,599616169363562764,-298
1710767744918,599616169371224523,-283
1710767744926,599616169378886282,-251
1710767744934,599616169386548041,-219
1710767744941,599616169394209800,-234
1710767744949,599616169401871559,-244
1710767744957,599616169409533318,-209
1710767744964,599616169417195077,-201
1710767744972,599616169424856836,-281
1710767744980,599616169432518595,-343
1710767744987,599616169440180354,-156
1710767744995,599616169447842113,328
1710767745003,599616169455503872,854
1710767745009,599616169463165631,913
1710767745017,599616169470827390,246
1710767745025,599616169478489149,-433
1710767745033,599616169486150908,-403
1710767745041,599616169493812667,-209
1710767745049,599616169501474426,-306
1710767745056,599616169509136185,-333
1710767745064,599616169516797944,-254
1710767745071,599616169524459703,-251
1710767745079,599616169532121462,-254
1710767745087,599616169539783221,-214
1710767745094,599616169547444980,-201
1710767745102,599616169555106739,-186
1710767745110,599616169562768498,-144
1710767745117,599616169570430257,-119
1710767745125,599616169578092016,-122
1710767745133,599616169585753775,-129
1710767745140,599616169593415534,-146
1710767745148,599616169601077293,-154
1710767745156,599616169608739052,-136
1710767745163,599616169616400811,-112
1710767745171,599616169624062570,-89
1710767745179,599616169631724329,-94
1710767745185,599616169639386088,-127
1710767745193,599616169647047847,-109
1710767745201,599616169654709606,-54
1710767745209,599616169662371365,-47
1710767745217,599616169670033124,-64
1710767745225,599616169677694883,-54
1710767745232,599616169685356642,-39
1710767745240,599616169693018401,-47
1710767745248,599616169700680160,-52
1710767745255,599616169708341919,-39
1710767745263,599616169716003678,-49
1710767745271,599616169723665437,-84
1710767745278,599616169731327196,-102
1710767745286,599616169738988955,-87
1710767745294,599616169746650714,-69
1710767745301,599616169754312473,-62
1710767745309,599616169761974232,-67
1710767745317,599616169769635991,-64
1710767745324,599616169777297750,-47
1710767745332,599616169784959509,-34
1710767745340,599616169792621268,-37
1710767745347,599616169800283027,-22
1710767745355,599616169807944786,-24
1710767745363,599616169815606545,-74
1710767745369,599616169823268304,-104
1710767745377,599616169830930063,-77
1710767745385,599616169838591822,-79
1710767745393,599616169846253581,-149
1710767745401,599616169853915340,-204
1710767745409,599616169861577099,-191
1710767745416,599616169869238858,-179
1710767745424,599616169876900617,-209
1710767745432,599616169884562376,-209
1710767745439,599616169892224135,-169
1710767745447,599616169899885894,-156
1710767745455,599616169907547718,-176
1710767745462,599616169915209477,-171
1710767745470,599616169922871236,-136
1710767745478,599616169930532995,-124
1710767745485,599616169938194754,-129
1710767745493,599616169945856513,-122
1710767745501,599616169953518272,-109
1710767745508,599616169961180031,-136
1710767745516,599616169968841790,-194
1710767745524,599616169976503549,-194
1710767745531,599616169984165308,-131
1710767745539,599616169991827067,-139
1710767745547,599616169999488826,-239
1710767745553,599616170007150585,-281
1710767745561,599616170014812344,-266
1710767745569,599616170022474103,-271
1710767745577,599616170030135862,-286
1710767745585,599616170037797621,-273
1710767745592,599616170045459380,-258
1710767745600,599616170053121139,-258
1710767745608,599616170060782898,-251
1710767745615,599616170068444657,-221
1710767745623,599616170076106416,-201
1710767745631,599616170083768175,-229
1710767745638,599616170091429934,-286
1710767745646,599616170099091693,-293
1710767745654,599616170106753452,-104
1710767745661,599616170114415211,368
1710767745669,599616170122076970,936
1710767745677,599616170129738729,1055
1710767745684,599616170137400488,381
1710767745692,599616170145062247,-353
1710767745700,599616170152724006,-323
1710767745707,599616170160385765,-87
1710767745715,599616170168047524,-209
1710767745723,599616170175709283,-313
1710767745729,599616170183371042,-261
1710767745737,599616170191032801,-241
1710767745745,599616170198694560,-236
1710767745753,599616170206356319,-204
1710767745761,599616170214018078,-174
1710767745769,599616170221679837,-149
1710767745776,599616170229341596,-136
1710767745784,599616170237003355,-134
1710767745792,599616170244665114,-109
1710767745799,599616170252326873,-67
1710767745807,599616170259988632,-49
1710767745815,599616170267650391,-54
1710767745822,599616170275312150,-39
1710767745830,599616170282973909,-2
1710767745838,599616170290635668,24
1710767745845,599616170298297427,39
1710767745853,599616170305959186,64
1710767745861,599616170313620945,84
1710767745868,599616170321282704,84
1710767745876,599616170328944463,62
1710767745884,599616170336606222,42
1710767745891,599616170344267981,29
1710767745899,599616170351929740,-47
1710767745907,599616170359591499,-156
1710767745913,599616170367253258,-164
1710767745921,599616170374915017,-124
1710767745929,599616170382576776,-159
1710767745937,599616170390238535,-219
1710767745945,599616170397900294,-204
1710767745953,599616170405562053,-179
1710767745960,599616170413223812,-209
1710767745968,599616170420885571,-211
1710767745976,599616170428547330,-161
1710767745983,599616170436209089,-129
1710767745991,599616170443870848,-127
1710767745999,599616170451532607,-122
1710767746006,599616170459194366,-104
1710767746014,599616170466856190,-84
1710767746022,599616170474517949,-67
1710767746029,599616170482179708,-47
1710767746037,599616170489841467,-24
1710767746045,599616170497503226,-37
1710767746052,599616170505164985,-141
1710767746060,599616170512826744,-236
1710767746068,599616170520488503,-189
1710767746075,599616170528150262,-129
1710767746083,599616170535812021,-156
1710767746091,599616170543473780,-161
1710767746097,599616170551135539,-134
1710767746105,599616170558797298,-154
1710767746113,599616170566459057,-179
1710767746121,599616170574120816,-176
1710767746129,599616170581782575,-179
1710767746136,599616170589444334,-189
1710767746144,599616170597106093,-189
1710767746152,599616170604767852,-174
1710767746159,599616170612429611,-141
1710767746167,599616170620091370,-114
1710767746175,599616170627753129,-112
1710767746182,599616170635414888,-119
1710767746190,599616170643076647,-117
1710767746198,599616170650738406,-99
1710767746205,599616170658400165,-82
1710767746213,599616170666061924,-52
1710767746221,599616170673723683,-32
1710767746228,599616170681385442,-99
1710767746236,599616170689047201,-206
1710767746244,599616170696708960,-236
1710767746251,599616170704370719,-204
1710767746259,599616170712032478,-201
1710767746267,599616170719694237,-211
1710767746273,599616170727355996,-196
1710767746281,599616170735017755,-196
1710767746289,599616170742679514,-209
1710767746297,599616170750341273,-186
1710767746305,599616170758003032,-146
1710767746313,599616170765664791,-141
1710767746320,599616170773326550,-181
1710767746328,599616170780988309,-224
1710767746336,599616170788650068,-92
1710767746343,599616170796311827,348
1710767746351,599616170803973586,921
1710767746359,599616170811635345,1145
1710767746366,599616170819297104,597
1710767746374,599616170826958863,-221
1710767746382,599616170834620622,-358
1710767746389,599616170842282381,-97
1710767746397,599616170849944140,-159
1710767746405,599616170857605899,-333
1710767746412,599616170865267658,-371
1710767746420,599616170872929417,-383
1710767746428,599616170880591176,-361
1710767746435,599616170888252935,-298
1710767746443,599616170895914694,-281
1710767746451,599616170903576453,-266
1710767746457,599616170911238212,-219
1710767746465,599616170918899971,-186
1710767746473,599616170926561730,-179
1710767746481,599616170934223489,-166
1710767746489,599616170941885248,-127
1710767746497,599616170949547007,-84
1710767746504,599616170957208766,-64
1710767746512,599616170964870525,-47
1710767746520,599616170972532284,-19
1710767746527,599616170980194043,7
1710767746535,599616170987855802,29
1710767746543,599616170995517561,47
1710767746550,599616171003179320,69
1710767746558,599616171010841079,79
1710767746566,599616171018502838,77
1710767746573,599616171026169630,74
1710767746581,599616171033831320,69
1710767746589,599616171041493010,27
1710767746596,599616171049154700,-42
1710767746604,599616171056816390,-74
1710767746612,599616171064478080,-77
1710767746619,599616171072139770,-151
1710767746627,599616171079801460,-244
1710767746633,599616171087463150,-229
1710767746641,599616171095124840,-184
1710767746649,599616171102786530,-211
1710767746657,599616171110448220,-219
1710767746665,599616171118109910,-174
1710767746673,599616171125771600,-136
1710767746680,599616171133433290,-124
1710767746688,599616171141094980,-119
1710767746696,599616171148756670,-109
1710767746703,599616171156418360,-92
1710767746711,599616171164080050,-82
1710767746719,599616171171741740,-62
1710767746726,599616171179403430,-29
1710767746734,599616171187065120,-22
1710767746742,599616171194726810,-47
1710767746749,599616171202388500,-47
1710767746757,599616171210050190,-22
1710767746765,599616171217711880,-24
1710767746772,599616171225373570,-67
1710767746780,599616171233035260,-97
1710767746788,599616171240696950,-99
1710767746795,599616171248358640,-109
1710767746803,599616171256020330,-122
1710767746811,599616171263682020,-109
1710767746817,599616171271343710,-84
1710767746825,599616171279005400,-77
1710767746833,599616171286667090,-92
1710767746841,599616171294328780,-84
1710767746849,599616171301990470,-47
1710767746857,599616171309652160,-39
1710767746864,599616171317313850,-67
1710767746872,599616171324975540,-87
1710767746880,599616171332637230,-89
1710767746887,599616171340298920,-84
1710767746895,599616171347960610,-99
1710767746903,599616171355622300,-151
1710767746910,599616171363283990,-194
1710767746918,599616171370945680,-186
1710767746926,599616171378607370,-194
1710767746933,599616171386269060,-244
1710767746941,599616171393930750,-261
1710767746949,599616171401592440,-273
1710767746956,599616171409254130,-318
1710767746964,599616171416915820,-328
1710767746972,599616171424577510,-288
1710767746979,599616171432239200,-268
1710767746987,599616171439900890,-268
1710767746995,599616171447562580,-249
1710767747001,599616171455224270,-211
1710767747009,599616171462885960,-204
1710767747017,599616171470547650,-234
1710767747025,599616171478209340,-258
1710767747033,599616171485871030,-179
1710767747041,599616171493532720,161
1710767747048,599616171501194410,742
1710767747056,599616171508856100,1138
1710767747064,599616171516517790,806
1710767747071,599616171524179480,-29
1710767747079,599616171531841170,-363
1710767747087,599616171539502860,-102
1710767747094,599616171547164550,-42
1710767747102,599616171554826240,-176
1710767747110,599616171562487930,-176
1710767747117,599616171570149620,-171
1710767747125,599616171577811310,-201
1710767747133,599616171585493106,-201
1710767747140,599616171593154517,-201
1710767747148,599616171600815928,-191
1710767747156,599616171608477339,-181
1710767747163,599616171616138750,-204
1710767747171,599616171623800161,-216
1710767747177,599616171631461572,-171
1710767747185,599616171639122983,-129
1710767747193,599616171646784394,-119
1710767747201,599616171654445805,-104
1710767747209,599616171662107216,-67
1710767747217,599616171669768627,-34
1710767747224,599616171677430038,-14
1710767747232,599616171685091449,14
1710767747240,599616171692752860,49
1710767747247,599616171700414271,57
1710767747255,599616171708075682,57
1710767747263,599616171715737093,87
1710767747270,599616171723398504,112
1710767747278,599616171731059915,102
1710767747286,599616171738721326,82
1710767747293,599616171746382737,62
1710767747301,599616171754044148,52
1710767747309,599616171761705559,27
1710767747316,599616171769366970,-37
1710767747324,599616171777028381,-69
1710767747332,599616171784689792,-49
1710767747339,599616171792351203,-64
1710767747347,599616171800012614,-104
1710767747355,599616171807674025,-109
1710767747361,599616171815335436,-97
1710767747369,599616171822996847,-92
1710767747377,599616171830658258,-87
1710767747385,599616171838319669,-79
1710767747393,599616171845981080,-57
1710767747401,599616171853642491,-42
1710767747408,599616171861303902,-77
1710767747416,599616171868965313,-112
1710767747424,599616171876626724,-84
1710767747431,599616171884288135,-67
1710767747439,599616171891949546,-82
1710767747447,599616171899610957,-64
1710767747454,599616171907272368,-39
1710767747462,599616171914933779,-62
1710767747470,599616171922595190,-102
1710767747477,599616171930256601,-99
1710767747485,599616171937918012,-94
1710767747493,599616171945579423,-144
1710767747500,599616171953240834,-179
1710767747508,599616171960902245,-141
1710767747516,599616171968563656,-112
1710767747523,599616171976225067,-144
1710767747531,599616171983886478,-146
1710767747539,599616171991547889,-97
1710767747545,599616171999209300,-74
1710767747553,599616172006870711,-94
1710767747561,599616172014532122,-84
1710767747569,599616172022193533,-62
1710767747577,599616172029854944,-72
1710767747585,599616172037516355,-97
1710767747592,599616172045177766,-97
1710767747600,599616172052839177,-99
1710767747608,599616172060500588,-161
1710767747615,599616172068161999,-221
1710767747623,599616172075823410,-206
1710767747631,599616172083484821,-179
1710767747638,599616172091146232,-179
1710767747646,599616172098807643,-179
1710767747653,599616172106469054,-174
1710767747661,599616172114130465,-171
1710767747669,599616172121791876,-189
1710767747676,599616172129453287,-229
1710767747684,599616172137114698,-226
1710767747692,599616172144751090,-191
1710767747699,599616172152412849,-209
1710767747707,599616172160074608,-258
1710767747715,599616172167736367,-114
1710767747721,599616172175398126,358
1710767747729,599616172183059885,916
1710767747737,599616172190721644,1078
1710767747745,599616172198383403,532
1710767747753,599616172206045162,-214
1710767747761,599616172213706921,-356
1710767747768,599616172221368680,-161
1710767747776,599616172229030439,-201
1710767747784,599616172236692198,-273
1710767747791,599616172244353957,-216
1710767747799,599616172252015716,-204
1710767747807,599616172259677475,-211
1710767747814,599616172267339234,-171
1710767747822,599616172275000993,-149
1710767747830,599616172282662752,-151
1710767747837,599616172290324511,-139
1710767747845,599616172297986270,-154
1710767747853,599616172305648029,-209
1710767747860,599616172313309788,-226
1710767747868,599616172320971547,-169
1710767747876,599616172328633306,-119
1710767747883,599616172336295065,-119
1710767747891,599616172343956824,-114
1710767747899,599616172351618583,-64
1710767747905,599616172359280342,-17
1710767747913,599616172366942101,-19
1710767747921,599616172374603860,-54
1710767747929,599616172382265619,-49
1710767747937,599616172389927378,-27
1710767747945,599616172397589137,-27
1710767747952,599616172405250896,-19
1710767747960,599616172412912655,9
1710767747968,599616172420574414,14
1710767747975,599616172428236173,-7
1710767747983,599616172435897932,-19
1710767747991,599616172443559691,-7
1710767747998,599616172451221450,-14
1710767748006,599616172458883209,-44
1710767748014,599616172466544968,-49
1710767748021,599616172474206727,-29
1710767748029,599616172481868486,-64
1710767748037,599616172489530245,-131
1710767748044,599616172497192004,-122
1710767748052,599616172504853763,-64
1710767748060,599616172512515522,-57
1710767748067,599616172520177281,-72
1710767748075,599616172527839040,-52
1710767748083,599616172535500799,-22
1710767748089,599616172543162558,-19
1710767748097,599616172550824317,-37
1710767748105,599616172558486076,-32
1710767748113,599616172566147835,-9
1710767748121,599616172573809594,-32
1710767748128,599616172581471353,-62
1710767748136,599616172589133112,-39
1710767748144,599616172596794871,-7
1710767748151,599616172604456630,-22
1710767748159,599616172612118389,-39
1710767748167,599616172619780148,-34
1710767748174,599616172627441907,-22
1710767748182,599616172635103666,-27
1710767748190,599616172642765425,-34
1710767748197,599616172650427184,-19
1710767748205,599616172658088943,-24
1710767748213,599616172665750702,-79
1710767748220,599616172673412461,-114
1710767748228,599616172681074220,-77
1710767748236,599616172688735979,-52
1710767748243,599616172696397738,-89
1710767748251,599616172704079578,-124
1710767748259,599616172711741059,-134
1710767748265,599616172719402540,-151
1710767748273,599616172727064021,-166
1710767748281,599616172734725502,-144
1710767748289,599616172742386983,-99
1710767748297,599616172750048464,-102
1710767748305,599616172757709945,-184
1710767748312,599616172765371426,-239
1710767748320,599616172773032907,-201
1710767748328,599616172780694388,-159
1710767748335,599616172788355869,-166
1710767748343,599616172796017350,-189
1710767748351,599616172803678831,-199
1710767748358,599616172811340312,-191
1710767748366,599616172819001793,-186
1710767748374,599616172826663274,-171
1710767748381,599616172834324755,-139
1710767748389,599616172841986236,-169
1710767748397,599616172849647717,-273
1710767748404,599616172857309198,-281
1710767748412,599616172864970679,-29
1710767748420,599616172872632160,458
1710767748427,599616172880293641,958
1710767748435,599616172887955122,991
1710767748443,599616172895616603,283
1710767748449,599616172903278084,-395
1710767748457,599616172910939565,-318
1710767748465,599616172918601046,-107
1710767748473,599616172926262527,-216
1710767748481,599616172933924008,-256
1710767748489,599616172941585489,-181
1710767748496,599616172949246970,-174
1710767748504,599616172956908451,-164
1710767748512,599616172964569932,-119
1710767748519,599616172972231413,-99
1710767748527,599616172979892894,-99
1710767748535,599616172987554375,-104
1710767748542,599616172995215856,-134
1710767748550,599616173002877337,-151
1710767748558,599616173010538818,-109
1710767748565,599616173018200299,-67
1710767748573,599616173025861780,-74
1710767748581,599616173033523261,-87
1710767748588,599616173041184742,-84
1710767748596,599616173048846223,-79
1710767748604,599616173056507704,-62
1710767748611,599616173064169185,-27
1710767748619,599616173071830666,7
1710767748627,599616173079492147,17
1710767748633,599616173087153628,19
1710767748641,599616173094815109,37
1710767748649,599616173102476590,57
1710767748657,599616173110138071,49
1710767748665,599616173117799552,29
1710767748672,599616173125461033,17
1710767748680,599616173133122514,7
1710767748688,599616173140783995,-9
1710767748695,599616173148445476,-24
1710767748703,599616173156106957,-32
1710767748711,599616173163768438,-44
1710767748718,599616173171429919,-99
1710767748726,599616173179091400,-166
1710767748734,599616173186752881,-159
1710767748741,599616173194414362,-109
1710767748749,599616173202075843,-97
1710767748757,599616173209737324,-107
1710767748764,599616173217398805,-97
1710767748772,599616173225060286,-79
1710767748780,599616173232721767,-82
1710767748787,599616173240383248,-97
1710767748795,599616173248044729,-94
1710767748803,599616173255706210,-79
1710767748809,599616173263352658,-87
1710767748817,599616173271014348,-92
1710767748825,599616173278676038,-82
1710767748833,599616173286337728,-99
1710767748841,599616173293999418,-136
1710767748849,599616173301661108,-134
1710767748856,599616173309322798,-114
1710767748864,599616173316984488,-117
1710767748872,599616173324646178,-151
1710767748879,599616173332307868,-191
1710767748887,599616173339969558,-174
1710767748895,599616173347631248,-164
1710767748902,599616173355292938,-246
1710767748910,599616173362954628,-311
1710767748918,599616173370616318,-293
1710767748925,599616173378278008,-343
1710767748933,599616173385939698,-430
1710767748941,599616173393601388,-405
1710767748948,599616173401263078,-353
1710767748956,599616173408924768,-366
1710767748964,599616173416586458,-366
1710767748971,599616173424248148,-331
1710767748979,599616173431909838,-286
1710767748987,599616173439571528,-249
1710767748993,599616173447233218,-231
1710767749001,599616173454894908,-229
1710767749009,599616173462556598,-211
1710767749017,599616173470218288,-196
1710767749025,599616173477879978,-201
1710767749033,599616173485541668,-201
1710767749040,599616173493203358,-179
1710767749048,599616173500865048,-159
1710767749056,599616173508526738,-146
1710767749063,599616173516188428,-131
1710767749071,599616173523850118,-117
1710767749079,599616173531511808,-131
1710767749086,599616173539173498,-159
1710767749094,599616173546835188,-159
1710767749102,599616173554496878,-181
1710767749109,599616173562158568,-176
1710767749117,599616173569820258,89
1710767749125,599616173577481948,659
1710767749132,599616173585143638,1118
1710767749140,599616173592805328,874
1710767749147,599616173600467018,42
1710767749155,599616173608128708,-366
1710767749163,599616173615790398,-124
1710767749169,599616173623452088,-64
1710767749177,599616173631113778,-224
1710767749185,599616173638775468,-174
1710767749193,599616173646437158,-92
1710767749201,599616173654098848,-129
1710767749209,599616173661760538,-119
1710767749216,599616173669422228,-72
1710767749224,599616173677083918,-72
1710767749232,599616173684745608,-77
1710767749239,599616173692407298,-52
1710767749247,599616173700068988,-24
1710767749255,599616173707730678,-22
1710767749262,599616173715392368,-47
1710767749270,599616173723054058,-57
1710767749278,599616173730715748,-24
1710767749285,599616173738377438,2
1710767749293,599616173746039128,-4
1710767749301,599616173753700818,0
1710767749308,599616173761362508,39
1710767749316,599616173769024198,64
1710767749324,599616173776685888,54
1710767749331,599616173784347578,52
1710767749339,599616173792009268,77
1710767749347,599616173799670958,94
1710767749353,599616173807332648,72
1710767749361,599616173814994338,49
1710767749369,599616173822656044,64
1710767749377,599616173830317734,74
1710767749385,599616173837979424,39
1710767749393,599616173845641114,4
1710767749400,599616173853302804,4
1710767749408,599616173860964494,-32
1710767749416,599616173868626184,-109
1710767749423,599616173876287874,-127
1710767749431,599616173883949564,-127
1710767749439,599616173891611254,-219
1710767749446,599616173899272944,-316
1710767749454,599616173906934634,-321
1710767749462,599616173914596324,-278
1710767749469,599616173922258014,-254
1710767749477,599616173929919704,-246
1710767749485,599616173937581394,-226
1710767749492,599616173945243084,-201
1710767749500,599616173952904774,-191
1710767749508,599616173960566464,-174
1710767749515,599616173968228154,-144
1710767749523,599616173975889844,-122
1710767749531,599616173983551534,-107
1710767749537,599616173991213224,-102
1710767749545,599616173998874914,-102
1710767749553,599616174006536604,-84
1710767749561,599616174014198294,-64
1710767749569,599616174021859984,-94
1710767749577,599616174029521674,-151
1710767749584,599616174037183364,-179
1710767749592,599616174044845054,-196
1710767749600,599616174052506744,-209
1710767749607,599616174060168434,-189
1710767749615,599616174067830124,-194
1710767749623,599616174075491814,-246
1710767749630,599616174083153504,-273
1710767749638,599616174090815194,-256
1710767749646,599616174098476884,-239
1710767749653,599616174106138574,-231
1710767749661,599616174113800264,-209
1710767749668,599616174121461954,-184
1710767749676,599616174129123644,-181
1710767749684,599616174136785334,-186
1710767749691,599616174144447024,-164
1710767749699,599616174152108714,-109
1710767749707,599616174159770404,-62
1710767749713,599616174167432094,-59
1710767749721,599616174175093784,-77
1710767749729,599616174182755474,-79
1710767749737,599616174190417164,-72
1710767749745,599616174198078854,-59
1710767749753,599616174205740544,-44
1710767749760,599616174213402234,-19
1710767749768,599616174221063924,-12
1710767749776,599616174228725614,-24
1710767749783,599616174236387304,-22
1710767749791,599616174244048994,-9
1710767749799,599616174251710684,-27
1710767749806,599616174259372374,-94
1710767749814,599616174267034064,-171
1710767749822,599616174274695754,-136
1710767749829,599616174282357444,176
1710767749837,599616174290019134,739
1710767749845,599616174297680824,1145
1710767749852,599616174305342514,864
1710767749860,599616174313004204,52
1710767749868,599616174320665894,-321
1710767749875,599616174328327584,-79
1710767749883,599616174335989274,-17
1710767749891,599616174343650964,-161
1710767749897,599616174351312654,-117
1710767749905,599616174358974344,-54
1710767749913,599616174366636034,-109
1710767749921,599616174374297724,-107
1710767749929,599616174381959430,-52
1710767749937,599616174389621120,-64
1710767749944,599616174397282810,-129
1710767749952,599616174404944500,-169
1710767749960,599616174412606190,-156
1710767749967,599616174420267880,-127
1710767749975,599616174427929570,-122
1710767749983,599616174435591260,-176
1710767749990,599616174443252950,-234
1710767749998,599616174450914640,-196
1710767750006,599616174458576330,-156
1710767750013,599616174466238020,-154
1710767750021,599616174473899710,-107
1710767750029,599616174481561400,-49
1710767750036,599616174489223090,-27
1710767750044,599616174496884780,-12
1710767750052,599616174504546470,2
1710767750059,599616174512208160,-2
1710767750067,599616174519869850,-29
1710767750075,599616174527531540,-49
1710767750081,599616174535193230,-37
1710767750089,599616174542854920,-39
1710767750097,599616174550516610,-72
1710767750105,599616174558178300,-99
1710767750113,599616174565839990,-109
1710767750121,599616174573501680,-112
1710767750128,599616174581163370,-119
1710767750136,599616174588825060,-156
1710767750144,599616174596486750,-201
1710767750151,599616174604148440,-191
1710767750159,599616174611810130,-189
1710767750166,599616174619471820,-236
1710767750174,599616174627133510,-236
1710767750182,599616174634795200,-181
1710767750189,599616174642456890,-169
1710767750197,599616174650118580,-174
1710767750205,599616174657780270,-136
1710767750212,599616174665441960,-99
1710767750220,599616174673103650,-97
1710767750228,599616174680765340,-104
1710767750235,599616174688427030,-97
1710767750243,599616174696088720,-79
1710767750251,599616174703750410,-77
1710767750257,599616174711412100,-99
1710767750265,599616174719073790,-109
1710767750273,599616174726735480,-124
1710767750281,599616174734397170,-166
1710767750289,599616174742058860,-181
1710767750297,599616174749720550,-151
1710767750304,599616174757382240,-139
1710767750312,599616174765043930,-166
1710767750320,599616174772705620,-196
1710767750327,599616174780367310,-194
1710767750335,599616174788029000,-189
1710767750343,599616174795690690,-219
1710767750350,599616174803352380,-236
1710767750358,599616174811014070,-196
1710767750366,599616174818675760,-176
1710767750373,599616174826337450,-201
1710767750381,599616174833999140,-194
1710767750389,599616174841660830,-129
1710767750396,599616174849322520,-84
1710767750404,599616174856984210,-94
1710767750412,599616174864645900,-112
1710767750419,599616174872307590,-99
1710767750427,599616174879969280,-79
1710767750435,599616174887630970,-74
1710767750441,599616174895292660,-82
1710767750449,599616174902954350,-112
1710767750457,599616174910616040,-149
1710767750465,599616174918277730,-154
1710767750473,599616174925939420,-131
1710767750481,599616174933601110,-97
1710767750488,599616174941262816,-67
1710767750496,599616174948924506,-87
1710767750504,599616174956586196,-154
1710767750511,599616174964247886,-107
1710767750519,599616174971909576,204
1710767750527,599616174979571266,697
1710767750534,599616174987232956,1035
1710767750542,599616174994894646,754
1710767750550,599616175002556336,-34
1710767750557,599616175010218026,-408
1710767750565,599616175017879716,-194
1710767750573,599616175025541406,-139
1710767750580,599616175033203096,-296
1710767750588,599616175040864786,-293
1710767750596,599616175048526476,-224
1710767750603,599616175056188166,-229
1710767750611,599616175063849856,-231
1710767750619,599616175071511546,-196
1710767750625,599616175079173236,-161
1710767750633,599616175086834926,-129
1710767750641,599616175094496616,-109
1710767750649,599616175102158306,-102
1710767750657,599616175109819996,-69
1710767750665,599616175117481686,-39
1710767750672,599616175125143376,-37
1710767750680,599616175132805066,-19
1710767750687,599616175140466756,17
1710767750695,599616175148128446,19
1710767750703,599616175155790136,-7
1710767750710,599616175163451826,4
1710767750718,599616175171113516,64
1710767750726,599616175178775206,97
1710767750733,599616175186436896,87
1710767750741,599616175194098586,82
1710767750749,599616175201760276,112
1710767750756,599616175209421966,124
1710767750764,599616175217083656,107
1710767750772,599616175224745346,97
1710767750779,599616175232407036,97
1710767750787,599616175240068726,64
1710767750795,599616175247730416,17
1710767750801,599616175255392106,-12
1710767750809,599616175263053796,-34
1710767750817,599616175270715486,-57
1710767750825,599616175278377176,-77
1710767750833,599616175286038866,-102
1710767750841,599616175293700556,-107
1710767750848,599616175301362246,-107
1710767750856,599616175309023936,-119
1710767750864,599616175316685626,-104
1710767750871,599616175324347316,-77
1710767750879,599616175332009006,-117
1710767750887,599616175339670696,-171
1710767750894,599616175347332386,-144
1710767750902,599616175354994076,-94
1710767750910,599616175362655766,-92
1710767750917,599616175370317456,-99
1710767750925,599616175377979146,-84
1710767750933,599616175385640836,-64
1710767750940,599616175393302526,-47
1710767750948,599616175400964216,-79
1710767750956,599616175408625906,-159
1710767750963,599616175416287596,-191
1710767750971,599616175423949286,-189
1710767750979,599616175431610976,-214
1710767750985,599616175439272666,-221
1710767750993,599616175446934356,-191
1710767751001,599616175454596046,-176
1710767751009,599616175462257736,-181
1710767751017,599616175469919426,-176
1710767751025,599616175477581116,-176
1710767751032,599616175485242806,-214
1710767751040,599616175492904496,-258
1710767751048,599616175500566202,-254
1710767751055,599616175508227892,-266
1710767751063,599616175515889582,-293
1710767751071,599616175523551272,-266
1710767751078,599616175531212962,-221
1710767751086,599616175538874652,-201
1710767751094,599616175546536342,-176
1710767751101,599616175554198032,-136
1710767751109,599616175561859722,-122
1710767751117,599616175569521412,-141
1710767751124,599616175577183102,-184
1710767751132,599616175584844792,-201
1710767751140,599616175592506482,-159
1710767751147,599616175600168172,-131
1710767751155,599616175607829862,-146
1710767751163,599616175615491552,-136
1710767751169,599616175623153242,-94
1710767751177,599616175630814932,-74
1710767751185,599616175638476622,-72
1710767751193,599616175646138312,-54
1710767751201,599616175653800002,-62
1710767751208,599616175661461692,-146
1710767751216,599616175669123382,-189
1710767751224,599616175676785072,102
1710767751231,599616175684446762,714
1710767751239,599616175692108452,1197
1710767751247,599616175699770142,1011
1710767751254,599616175707431832,199
1710767751262,599616175715093522,-291
1710767751270,599616175722755212,-112
1710767751277,599616175730416902,-12
1710767751285,599616175738078592,-154
1710767751293,599616175745740282,-161
1710767751300,599616175753401972,-136
1710767751308,599616175761063662,-169
1710767751316,599616175768725352,-141
1710767751323,599616175776387042,-94
1710767751331,599616175784048732,-99
1710767751339,599616175791710422,-104
1710767751345,599616175799372112,-72
1710767751353,599616175807033802,-37
1710767751361,599616175814695492,-27
1710767751369,599616175822357182,-22
1710767751377,599616175830018872,-4
1710767751385,599616175837680562,-7
1710767751392,599616175845342252,-52
1710767751400,599616175853003942,-72
1710767751408,599616175860665632,-22
1710767751415,599616175868327322,27
1710767751423,599616175875989012,39
1710767751431,599616175883650702,49
1710767751438,599616175891312392,77
1710767751446,599616175898974082,94
1710767751454,599616175906635772,72
1710767751461,599616175914297462,24
1710767751469,599616175921959152,14
1710767751477,599616175929620842,19
1710767751484,599616175937282532,7
1710767751492,599616175944944222,-4
1710767751500,599616175952605912,-7
1710767751507,599616175960267602,-24
1710767751515,599616175967929292,-79
1710767751523,599616175975590982,-122
1710767751529,599616175983252672,-107
1710767751537,599616175990914362,-97
1710767751545,599616175998576052,-139
1710767751553,599616176006237742,-151
1710767751561,599616176013899432,-117
1710767751569,599616176021561122,-154
1710767751576,599616176029222812,-234
1710767751584,599616176036884502,-221
1710767751592,599616176044546192,-159
1710767751599,599616176052207882,-154
1710767751607,599616176059879668,-169
1710767751615,599616176067541218,-154
1710767751622,599616176075202768,-129
1710767751630,599616176082864318,-134
1710767751638,599616176090525868,-151
1710767751645,599616176098187418,-151
1710767751653,599616176105848968,-171
1710767751661,599616176113510518,-246
1710767751668,599616176121172068,-286
1710767751676,599616176128833618,-244
1710767751684,599616176136495168,-211
1710767751691,599616176144156718,-231
1710767751699,599616176151818268,-241
1710767751707,599616176159479818,-216
1710767751713,599616176167141368,-191
1710767751721,599616176174802918,-189
1710767751729,599616176182464468,-179
1710767751737,599616176190126018,-156
1710767751745,599616176197787568,-166
1710767751752,599616176205449118,-229
1710767751760,599616176213110668,-258
1710767751768,599616176220772218,-216
1710767751775,599616176228433768,-179
1710767751783,599616176236095318,-181
1710767751791,599616176243756868,-194
1710767751798,599616176251418418,-199
1710767751806,599616176259079968,-186
1710767751814,599616176266741518,-179
1710767751821,599616176274403068,-164
1710767751829,599616176282064618,-129
1710767751837,599616176289726168,-97
1710767751844,599616176297387718,-84
1710767751852,599616176305049268,-59
1710767751860,599616176312710818,-39
1710767751867,599616176320372368,-52
1710767751875,599616176328033918,-64
1710767751883,599616176335695468,-44
1710767751889,599616176343357018,-24
1710767751897,599616176351018568,-19
1710767751905,599616176358680118,-17
1710767751913,599616176366341668,-2
1710767751921,599616176374003218,7
1710767751929,599616176381664768,-14
1710767751936,599616176389326318,-59
1710767751944,599616176396987868,-74
1710767751952,599616176404649418,-122
1710767751959,599616176412310968,-201
1710767751967,599616176419972518,-19
1710767751975,599616176427634068,550
1710767751982,599616176435295618,1130
1710767751990,599616176442957168,1135
1710767751998,599616176450618718,398
1710767752005,599616176458280268,-261
1710767752013,599616176465941818,-169
1710767752021,599616176473603368,9
1710767752028,599616176481264918,-146
1710767752036,599616176488926468,-209
1710767752044,599616176496588018,-136
1710767752051,599616176504249568,-144
1710767752059,599616176511911118,-144
1710767752067,599616176519572668,-92
1710767752073,599616176527234218,-82
1710767752081,599616176534895768,-89
1710767752089,599616176542557318,-59
1710767752097,599616176550218868,-24
1710767752105,599616176557880418,-29
1710767752113,599616176565541968,-74
1710767752120,599616176573203518,-109
1710767752128,599616176580865068,-69
1710767752136,599616176588526618,-14
1710767752143,599616176596188168,-9
1710767752151,599616176603849718,-4
1710767752159,599616176611511268,24
1710767752166,599616176619182888,42
1710767752174,599616176626844299,52
1710767752182,599616176634505710,89
1710767752189,599616176642167121,127
1710767752197,599616176649828532,136
1710767752205,599616176657489943,104
1710767752212,599616176665151354,62
1710767752220,599616176672812765,54
1710767752228,599616176680474176,44
1710767752235,599616176688135587,-22
1710767752243,599616176695796998,-77
1710767752249,599616176703458409,-82
1710767752257,599616176711119820,-114
1710767752265,599616176718781231,-146
1710767752273,599616176726442642,-139
1710767752281,599616176734104053,-164
1710767752289,599616176741765464,-224
1710767752296,599616176749426875,-266
1710767752304,599616176757088286,-261
1710767752312,599616176764749697,-224
1710767752319,599616176772411108,-201
1710767752327,599616176780072519,-219
1710767752335,599616176787733930,-234
1710767752342,599616176795395341,-231
1710767752350,599616176803056752,-251
1710767752358,599616176810718163,-261
1710767752365,599616176818379574,-231
1710767752373,599616176826040985,-206
1710767752381,599616176833702396,-206
1710767752388,599616176841363807,-209
1710767752396,599616176849025218,-204
1710767752404,599616176856686629,-179
1710767752411,599616176864348040,-161
1710767752419,599616176872009451,-161
1710767752427,599616176879670862,-149
1710767752433,599616176887332273,-129
1710767752441,599616176894993684,-134
1710767752449,599616176902655095,-159
1710767752457,599616176910316506,-204
1710767752465,599616176917977917,-249
1710767752473,599616176925639328,-258
1710767752480,599616176933300739,-261
1710767752488,599616176940962150,-254
1710767752496,599616176948623561,-224
1710767752503,599616176956284972,-204
1710767752511,599616176963946383,-181
1710767752519,599616176971607794,-161
1710767752526,599616176979269205,-179
1710767752534,599616176986930616,-216
1710767752542,599616176994592027,-201
1710767752549,599616177002253438,-151
1710767752557,599616177009914849,-144
1710767752565,599616177017576260,-149
1710767752572,599616177025237671,-134
1710767752580,599616177032899082,-131
1710767752588,599616177040560493,-122
1710767752595,599616177048221904,-74
1710767752603,599616177055883315,-27
1710767752611,599616177063544726,-14
1710767752617,599616177071206137,-34
1710767752625,599616177078867548,-57
1710767752633,599616177086528959,-49
1710767752641,599616177094190370,-29
1710767752649,599616177101851781,-47
1710767752657,599616177109513192,-92
1710767752664,599616177117174603,-102
1710767752672,599616177124836014,-82
1710767752680,599616177132497425,-77
1710767752687,599616177140158836,-64
1710767752695,599616177147820247,-32
1710767752703,599616177155481658,-29
1710767752710,599616177163143069,-87
1710767752718,599616177170804480,-57
1710767752725,599616177178445842,286
1710767752733,599616177186107532,896
1710767752741,599616177193769222,1324
1710767752748,599616177201430912,1033
1710767752756,599616177209092602,189
1710767752764,599616177216754292,-216
1710767752771,599616177224415982,-19
1710767752779,599616177232077672,7
1710767752787,599616177239739362,-131
1710767752793,599616177247401052,-87
1710767752801,599616177255062742,-79
1710767752809,599616177262724432,-174
1710767752817,599616177270386122,-154
1710767752825,599616177278047812,-97
1710767752833,599616177285709502,-139
1710767752840,599616177293371192,-159
1710767752848,599616177301032882,-109
1710767752856,599616177308694572,-97
1710767752863,599616177316356262,-109
1710767752871,599616177324017952,-77
1710767752879,599616177331679642,-29
1710767752886,599616177339341332,-9
1710767752894,599616177347003022,-9
1710767752902,599616177354664712,-2
1710767752909,599616177362326402,9
1710767752917,599616177369988092,14
1710767752925,599616177377649782,24
1710767752932,599616177385311472,47
1710767752940,599616177392973162,69
1710767752948,599616177400634852,77
1710767752955,599616177408296542,67
1710767752963,599616177415958232,24
1710767752971,599616177423619922,-22
1710767752977,599616177431281612,-29
1710767752985,599616177438943302,-42
1710767752993,599616177446604992,-92
1710767753001,599616177454266682,-99
1710767753009,599616177461928372,-84
1710767753017,599616177469590062,-109
1710767753024,599616177477251752,-161
1710767753032,599616177484913442,-204
1710767753040,599616177492575132,-254
1710767753047,599616177500236822,-318
1710767753055,599616177507898512,-338
1710767753063,599616177515560202,-303
1710767753070,599616177523221892,-286
1710767753078,599616177530883582,-293
1710767753086,599616177538545272,-276
1710767753093,599616177546206962,-239
1710767753101,599616177553868652,-224
1710767753109,599616177561530342,-221
1710767753116,599616177569192032,-196
1710767753124,599616177576853722,-171
1710767753132,599616177584515412,-171
1710767753139,599616177592177102,-169
1710767753147,599616177599838792,-136
1710767753155,599616177607500482,-107
1710767753161,599616177615162172,-114
1710767753169,599616177622823862,-131
1710767753177,599616177630485552,-124
1710767753185,599616177638147242,-104
1710767753193,599616177645808932,-136
1710767753200,599616177653470622,-169
1710767753208,599616177661132312,-129
1710767753216,599616177668794002,-94
1710767753223,599616177676455692,-119
1710767753231,599616177684117382,-124
1710767753239,599616177691779072,-87
1710767753246,599616177699440762,-59
1710767753254,599616177707102452,-54
1710767753262,599616177714764142,-72
1710767753269,599616177722425832,-117
1710767753277,599616177730087522,-124
1710767753285,599616177737749228,-89
1710767753292,599616177745410918,-72
1710767753300,599616177753072608,-67
1710767753308,599616177760734298,-59
1710767753315,599616177768395988,-64
1710767753323,599616177776057678,-44
1710767753331,599616177783719368,17
1710767753337,599616177791381058,14
1710767753345,599616177799042748,-72
1710767753353,599616177806704438,-107
1710767753361,599616177814366128,-82
1710767753369,599616177822027818,-107
1710767753377,599616177829689508,-154
1710767753384,599616177837351198,-136
1710767753392,599616177845012888,-97
1710767753400,599616177852674578,-97
1710767753407,599616177860336268,-99
1710767753415,599616177867997958,-64
1710767753423,599616177875659648,-32
1710767753430,599616177883321338,-37
1710767753438,599616177890983028,-54
1710767753446,599616177898644718,-82
1710767753453,599616177906306408,9
1710767753461,599616177913968098,410
1710767753469,599616177921629788,951
1710767753476,599616177929291478,1157
1710767753484,599616177936953168,699
1710767753492,599616177944614858,-59
1710767753499,599616177952276548,-291
1710767753507,599616177959938238,-72
1710767753515,599616177967599928,-99
1710767753521,599616177975261618,-244
1710767753529,599616177982923308,-189
1710767753537,599616177990584998,-127
1710767753545,599616177998246688,-164
1710767753553,599616178005908378,-199
1710767753561,599616178013570068,-194
1710767753568,599616178021231758,-154
1710767753576,599616178028893448,-127
1710767753584,599616178036555138,-139
1710767753591,599616178044216828,-131
1710767753599,599616178051878518,-84
1710767753607,599616178059540208,-57
1710767753614,599616178067201898,-67
1710767753622,599616178074863588,-64
1710767753630,599616178082525278,-54
1710767753637,599616178090186968,-54
1710767753645,599616178097848658,-42
1710767753653,599616178105510348,-7
1710767753660,599616178113172038,42
1710767753668,599616178120833728,62
1710767753676,599616178128495418,52
1710767753683,599616178136157108,62
1710767753691,599616178143818798,87
1710767753699,599616178151480488,57
1710767753705,599616178159142178,-14
1710767753713,599616178166803868,-29
1710767753721,599616178174465558,-14
1710767753729,599616178182127248,-57
1710767753737,599616178189788938,-109
1710767753744,599616178197450628,-134
1710767753752,599616178205112318,-154
1710767753760,599616178212774008,-201
1710767753767,599616178220435698,-241
1710767753775,599616178228097388,-244
1710767753783,599616178235759078,-231
1710767753790,599616178243420768,-226
1710767753798,599616178251082458,-209
1710767753806,599616178258744148,-174
1710767753813,599616178266405838,-161
1710767753821,599616178274067528,-176
1710767753829,599616178281729218,-166
1710767753836,599616178289390908,-131
1710767753844,599616178297052614,-109
1710767753852,599616178304714304,-94
1710767753859,599616178312375994,-97
1710767753867,599616178320037684,-104
1710767753875,599616178327699374,-117
1710767753881,599616178335361064,-211
1710767753889,599616178343022754,-351
1710767753897,599616178350684444,-338
1710767753905,599616178358346134,-261
1710767753913,599616178366007824,-286
1710767753921,599616178373669514,-291
1710767753928,599616178381331204,-224
1710767753936,599616178388992894,-189
1710767753944,599616178396654584,-189
1710767753951,599616178404316274,-174
1710767753959,599616178411977964,-154
1710767753967,599616178419639654,-156
1710767753974,599616178427301344,-184
1710767753982,599616178434963034,-191
1710767753990,599616178442624724,-146
1710767753997,599616178450286414,-129
1710767754005,599616178457948104,-166
1710767754013,599616178465609794,-179
1710767754020,599616178473271484,-131
1710767754028,599616178480933174,-102
1710767754036,599616178488594864,-79
1710767754043,599616178496256554,-37
1710767754051,599616178503918244,-24
1710767754059,599616178511579934,-64
1710767754065,599616178519241624,-99
1710767754073,599616178526903314,-82
1710767754081,599616178534565004,-39
1710767754089,599616178542226694,-52
1710767754097,599616178549888384,-94
1710767754105,599616178557550074,-77
1710767754112,599616178565211764,-24
1710767754120,599616178572873454,-17
1710767754128,599616178580535144,-29
1710767754135,599616178588196834,-17
1710767754143,599616178595858524,-12
1710767754151,599616178603520214,-57
1710767754158,599616178611181904,-29
1710767754166,599616178618843594,281
1710767754174,599616178626505284,856
1710767754181,599616178634166974,1287
1710767754189,599616178641828664,1058
1710767754197,599616178649490354,263
1710767754204,599616178657152044,-169
1710767754212,599616178664813734,19
1710767754220,599616178672475424,94
1710767754227,599616178680137114,-49
1710767754235,599616178687798804,-37
1710767754241,599616178695460494,17
1710767754249,599616178703122184,-27
1710767754257,599616178710783874,-52
1710767754265,599616178718445564,-22
1710767754273,599616178726107254,-49
1710767754281,599616178733768944,-102
1710767754288,599616178741430634,-69
1710767754296,599616178749092324,-12
1710767754304,599616178756754014,-29
1710767754311,599616178764415704,-57
1710767754319,599616178772077394,-42
1710767754327,599616178779739084,-29
1710767754334,599616178787400774,-39
1710767754342,599616178795062464,-22
1710767754350,599616178802724154,24
1710767754357,599616178810385844,52
1710767754365,599616178818047534,52
1710767754373,599616178825709224,64
1710767754380,599616178833370914,89
1710767754388,599616178841032604,107
1710767754396,599616178848694294,112
1710767754403,599616178856371048,109
1710767754411,599616178864032529,94
1710767754419,599616178871694010,34
1710767754425,599616178879355491,-57
1710767754433,599616178887016972,-112
1710767754441,599616178894678453,-119
1710767754449,599616178902339934,-159
1710767754457,599616178910001415,-226
1710767754465,599616178917662896,-249
1710767754472,599616178925324377,-273
1710767754480,599616178932985858,-368
1710767754488,599616178940647339,-435
1710767754495,599616178948308820,-418
1710767754503,599616178955970301,-410
1710767754511,599616178963631782,-425
1710767754518,599616178971293263,-403
1710767754526,599616178978954744,-353
1710767754534,599616178986616225,-316
1710767754541,599616178994277706,-293
1710767754549,599616179001939187,-278
1710767754557,599616179009600668,-261
1710767754564,599616179017262149,-229
1710767754572,599616179024923630,-209
1710767754580,599616179032585111,-199
1710767754587,599616179040246592,-176
1710767754595,599616179047908073,-174
1710767754603,599616179055569554,-241
1710767754609,599616179063231035,-286
1710767754617,599616179070892516,-234
1710767754625,599616179078553997,-184
1710767754633,599616179086215478,-189
1710767754641,599616179093876959,-184
1710767754649,599616179101538440,-161
1710767754656,599616179109199921,-149
1710767754664,599616179116861402,-136
1710767754672,599616179124522883,-122
1710767754679,599616179132184364,-102
1710767754687,599616179139845845,-87
1710767754695,599616179147507326,-89
1710767754702,599616179155168807,-79
1710767754710,599616179162830288,-42
1710767754718,599616179170491769,-22
1710767754725,599616179178153250,-29
1710767754733,599616179185814731,-32
1710767754741,599616179193476212,-39
1710767754748,599616179201137693,-82
1710767754756,599616179208799174,-104
1710767754763,599616179216460655,-67
1710767754771,599616179224122136,-22
1710767754779,599616179231783617,-34
1710767754785,599616179239445098,-92
1710767754793,599616179247106579,-104
1710767754801,599616179254768060,-72
1710767754809,599616179262429541,-57
1710767754817,599616179270091022,-57
1710767754825,599616179277752503,-52
1710767754832,599616179285413984,-47
1710767754840,599616179293075465,-42
1710767754848,599616179300736946,-24
1710767754855,599616179308398427,4
1710767754863,599616179316059908,27
1710767754871,599616179323721389,4
1710767754878,599616179331382870,-54
