value,timestamp
-0.0,1712016400000000
-0.0,1712016400015625
-0.0,1712016400031250
-0.0,1712016400046875
-0.0,1712016400062500
-0.0,1712016400078125
-0.0,1712016400093750
-0.0,1712016400109375
-0.0,1712016400125000
-0.0,1712016400140625
0.0,1712016400156250
0.01,1712016400171875
0.01,1712016400187500
-0.0,1712016400203125
-0.03,1712016400218750
-0.05,1712016400234375
-0.05,1712016400250000
0.0,1712016400265625
0.13,1712016400281250
0.36,1712016400296875
0.66,1712016400312500
1.01,1712016400328125
1.37,1712016400343750
1.72,1712016400359375
2.06,1712016400375000
2.4,1712016400390625
2.79,1712016400406250
3.24,1712016400421875
3.8,1712016400437500
4.42,1712016400453125
5.06,1712016400468750
5.66,1712016400484375
6.2,1712016400500000
6.68,1712016400515625
7.15,1712016400531250
7.68,1712016400546875
8.31,1712016400562500
9.14,1712016400578125
10.09,1712016400593750
11.04,1712016400609375
11.88,1712016400625000
12.56,1712016400640625
13.14,1712016400656250
13.76,1712016400671875
14.65,1712016400687500
15.96,1712016400703125
17.91,1712016400718750
20.32,1712016400734375
22.9,1712016400750000
25.38,1712016400765625
27.58,1712016400781250
29.57,1712016400796875
31.68,1712016400812500
34.32,1712016400828125
37.81,1712016400843750
42.54,1712016400859375
48.15,1712016400875000
54.1,1712016400890625
59.83,1712016400906250
64.97,1712016400921875
69.58,1712016400937500
74.14,1712016400953125
79.34,1712016400968750
85.71,1712016400984375
93.76,1712016401000000
103.0,1712016401015625
112.62,1712016401031250
121.73,1712016401046875
129.77,1712016401062500
136.75,1712016401078125
143.3,1712016401093750
150.75,1712016401109375
157.77,1712016401125000
166.64,1712016401140625
177.95,1712016401156250
191.79,1712016401171875
206.97,1712016401187500
220.57,1712016401203125
228.25,1712016401218750
225.36,1712016401234375
208.53,1712016401250000
176.87,1712016401265625
132.76,1712016401281250
80.05,1712016401296875
23.07,1712016401312500
-34.94,1712016401328125
-92.44,1712016401343750
-149.16,1712016401359375
-205.23,1712016401375000
-260.37,1712016401390625
-313.74,1712016401406250
-363.87,1712016401421875
-409.83,1712016401437500
-450.91,1712016401453125
-486.5,1712016401468750
-515.74,1712016401484375
-537.23,1712016401500000
-549.22,1712016401515625
-549.96,1712016401531250
-538.37,1712016401546875
-514.21,1712016401562500
-478.67,1712016401578125
-433.88,1712016401593750
-382.45,1712016401609375
-327.02,1712016401625000
-269.84,1712016401640625
-212.63,1712016401656250
-156.66,1712016401671875
-102.95,1712016401687500
-52.37,1712016401703125
-5.9,1712016401718750
35.58,1712016401734375
71.43,1712016401750000
101.35,1712016401765625
125.5,1712016401781250
144.38,1712016401796875
158.69,1712016401812500
169.15,1712016401828125
176.37,1712016401843750
180.75,1712016401859375
182.57,1712016401875000
182.07,1712016401890625
179.51,1712016401906250
175.23,1712016401921875
169.65,1712016401937500
163.18,1712016401953125
156.15,1712016401968750
148.81,1712016401984375
141.3,1712016402000000
133.69,1712016402015625
126.02,1712016402031250
118.33,1712016402046875
110.69,1712016402062500
103.16,1712016402078125
95.8,1712016402093750
88.68,1712016402109375
81.83,1712016402125000
75.25,1712016402140625
68.95,1712016402156250
62.95,1712016402171875
57.25,1712016402187500
51.86,1712016402203125
46.78,1712016402218750
42.03,1712016402234375
37.59,1712016402250000
33.45,1712016402265625
29.61,1712016402281250
26.07,1712016402296875
22.81,1712016402312500
19.83,1712016402328125
17.11,1712016402343750
14.67,1712016402359375
12.48,1712016402375000
10.54,1712016402390625
8.83,1712016402406250
7.35,1712016402421875
6.07,1712016402437500
4.97,1712016402453125
4.05,1712016402468750
3.27,1712016402484375
2.62,1712016402500000
2.09,1712016402515625
1.65,1712016402531250
1.3,1712016402546875
1.01,1712016402562500
0.79,1712016402578125
0.61,1712016402593750
0.47,1712016402609375
0.37,1712016402625000
0.28,1712016402640625
0.22,1712016402656250
0.18,1712016402671875
0.14,1712016402687500
0.12,1712016402703125
0.11,1712016402718750
0.1,1712016402734375
0.1,1712016402750000
0.11,1712016402765625
0.12,1712016402781250
0.14,1712016402796875
0.17,1712016402812500
0.2,1712016402828125
0.24,1712016402843750
0.27,1712016402859375
0.32,1712016402875000
0.36,1712016402890625
0.4,1712016402906250
0.45,1712016402921875
0.5,1712016402937500
0.55,1712016402953125
0.6,1712016402968750
0.66,1712016402984375
0.71,1712016403000000
0.77,1712016403015625
0.84,1712016403031250
0.91,1712016403046875
0.99,1712016403062500
1.07,1712016403078125
1.17,1712016403093750
1.28,1712016403109375
1.4,1712016403125000
1.53,1712016403140625
1.69,1712016403156250
1.86,1712016403171875
2.04,1712016403187500
2.25,1712016403203125
2.49,1712016403218750
2.74,1712016403234375
3.03,1712016403250000
3.34,1712016403265625
3.68,1712016403281250
4.06,1712016403296875
4.47,1712016403312500
4.91,1712016403328125
5.4,1712016403343750
5.92,1712016403359375
6.48,1712016403375000
7.08,1712016403390625
7.72,1712016403406250
8.41,1712016403421875
9.14,1712016403437500
9.92,1712016403453125
10.74,1712016403468750
11.6,1712016403484375
12.51,1712016403500000
13.47,1712016403515625
14.49,1712016403531250
15.56,1712016403546875
16.7,1712016403562500
17.9,1712016403578125
19.14,1712016403593750
20.39,1712016403609375
21.61,1712016403625000
22.73,1712016403640625
23.67,1712016403656250
24.33,1712016403671875
24.59,1712016403687500
24.35,1712016403703125
23.51,1712016403718750
22.01,1712016403734375
19.83,1712016403750000
17.0,1712016403765625
13.54,1712016403781250
9.59,1712016403796875
5.31,1712016403812500
0.87,1712016403828125
-3.54,1712016403843750
-7.72,1712016403859375
-11.48,1712016403875000
-14.67,1712016403890625
-17.18,1712016403906250
-18.93,1712016403921875
-19.89,1712016403937500
-20.09,1712016403953125
-19.63,1712016403968750
-18.58,1712016403984375
-17.07,1712016404000000
-15.24,1712016404015625
-13.19,1712016404031250
-11.03,1712016404046875
-8.85,1712016404062500
-6.69,1712016404078125
-4.64,1712016404093750
-2.73,1712016404109375
-0.96,1712016404125000
0.7,1712016404140625
2.35,1712016404156250
4.04,1712016404171875
5.89,1712016404187500
7.95,1712016404203125
10.29,1712016404218750
12.78,1712016404234375
15.31,1712016404250000
17.82,1712016404265625
20.25,1712016404281250
22.59,1712016404296875
24.91,1712016404312500
27.26,1712016404328125
29.77,1712016404343750
32.6,1712016404359375
35.58,1712016404375000
38.62,1712016404390625
41.72,1712016404406250
44.9,1712016404421875
48.27,1712016404437500
51.91,1712016404453125
55.96,1712016404468750
60.53,1712016404484375
65.71,1712016404500000
71.05,1712016404515625
76.22,1712016404531250
81.06,1712016404546875
85.53,1712016404562500
89.77,1712016404578125
93.98,1712016404593750
98.42,1712016404609375
103.28,1712016404625000
108.64,1712016404640625
113.75,1712016404656250
117.98,1712016404671875
120.8,1712016404687500
121.86,1712016404703125
120.9,1712016404718750
117.65,1712016404734375
111.42,1712016404750000
100.72,1712016404765625
88.16,1712016404781250
74.0,1712016404796875
58.15,1712016404812500
40.53,1712016404828125
21.35,1712016404843750
1.08,1712016404859375
-19.6,1712016404875000
-40.0,1712016404890625
-59.64,1712016404906250
-78.16,1712016404921875
-96.18,1712016404937500
-114.31,1712016404953125
-133.24,1712016404968750
-153.73,1712016404984375
-176.43,1712016405000000
-201.35,1712016405015625
-227.35,1712016405031250
-251.99,1712016405046875
-271.74,1712016405062500
-283.69,1712016405078125
-285.91,1712016405093750
-278.34,1712016405109375
-262.83,1712016405125000
-242.34,1712016405140625
-219.82,1712016405156250
-197.43,1712016405171875
-176.28,1712016405187500
-156.77,1712016405203125
-139.39,1712016405218750
-124.45,1712016405234375
-112.02,1712016405250000
-101.59,1712016405265625
-92.04,1712016405281250
-81.95,1712016405296875
-70.19,1712016405312500
-56.34,1712016405328125
-40.86,1712016405343750
-25.01,1712016405359375
-10.19,1712016405375000
2.55,1712016405390625
12.73,1712016405406250
20.39,1712016405421875
25.94,1712016405437500
29.92,1712016405453125
32.8,1712016405468750
34.98,1712016405484375
36.66,1712016405500000
37.94,1712016405515625
38.93,1712016405531250
39.7,1712016405546875
40.37,1712016405562500
41.07,1712016405578125
41.88,1712016405593750
42.8,1712016405609375
43.7,1712016405625000
44.33,1712016405640625
44.37,1712016405656250
43.6,1712016405671875
42.0,1712016405687500
39.73,1712016405703125
37.12,1712016405718750
34.48,1712016405734375
31.99,1712016405750000
29.6,1712016405765625
27.09,1712016405781250
24.21,1712016405796875
20.77,1712016405812500
16.73,1712016405828125
12.16,1712016405843750
7.25,1712016405859375
2.21,1712016405875000
-2.66,1712016405890625
-6.89,1712016405906250
-9.92,1712016405921875
-11.12,1712016405937500
-10.07,1712016405953125
-6.67,1712016405968750
-1.33,1712016405984375
5.17,1712016406000000
11.83,1712016406015625
17.82,1712016406031250
22.64,1712016406046875
26.19,1712016406062500
28.72,1712016406078125
30.54,1712016406093750
31.91,1712016406109375
32.83,1712016406125000
33.14,1712016406140625
32.64,1712016406156250
31.27,1712016406171875
29.2,1712016406187500
26.86,1712016406203125
24.72,1712016406218750
23.13,1712016406234375
22.21,1712016406250000
21.84,1712016406265625
21.74,1712016406281250
21.63,1712016406296875
21.31,1712016406312500
20.62,1712016406328125
19.47,1712016406343750
17.78,1712016406359375
15.47,1712016406375000
12.57,1712016406390625
9.23,1712016406406250
5.73,1712016406421875
2.35,1712016406437500
-0.66,1712016406453125
-3.2,1712016406468750
-5.34,1712016406484375
-7.35,1712016406500000
-9.54,1712016406515625
-12.13,1712016406531250
-15.12,1712016406546875
-18.16,1712016406562500
-20.61,1712016406578125
-21.78,1712016406593750
-21.11,1712016406609375
-18.36,1712016406625000
-13.73,1712016406640625
-7.68,1712016406656250
-0.86,1712016406671875
6.02,1712016406687500
12.4,1712016406703125
17.82,1712016406718750
21.97,1712016406734375
24.68,1712016406750000
25.94,1712016406765625
25.86,1712016406781250
24.72,1712016406796875
22.89,1712016406812500
20.78,1712016406828125
18.82,1712016406843750
17.35,1712016406859375
16.49,1712016406875000
16.16,1712016406890625
16.11,1712016406906250
16.04,1712016406921875
15.79,1712016406937500
15.34,1712016406953125
14.81,1712016406968750
14.28,1712016406984375
13.68,1712016407000000
12.81,1712016407015625
11.46,1712016407031250
9.48,1712016407046875
6.93,1712016407062500
4.05,1712016407078125
1.15,1712016407093750
-1.51,1712016407109375
-3.84,1712016407125000
-5.88,1712016407140625
-7.91,1712016407156250
-10.26,1712016407171875
-13.22,1712016407187500
-16.92,1712016407203125
-21.13,1712016407218750
-25.28,1712016407234375
-28.57,1712016407250000
-30.2,1712016407265625
-29.63,1712016407281250
-26.75,1712016407296875
-21.95,1712016407312500
-15.91,1712016407328125
-9.45,1712016407343750
-3.3,1712016407359375
2.07,1712016407375000
6.42,1712016407390625
9.78,1712016407406250
12.32,1712016407421875
14.22,1712016407437500
15.59,1712016407453125
16.41,1712016407468750
16.62,1712016407484375
16.2,1712016407500000
15.26,1712016407515625
14.04,1712016407531250
12.86,1712016407546875
11.99,1712016407562500
11.54,1712016407578125
11.51,1712016407593750
11.8,1712016407609375
12.32,1712016407625000
12.98,1712016407640625
13.74,1712016407656250
14.43,1712016407671875
14.82,1712016407687500
14.59,1712016407703125
13.45,1712016407718750
11.3,1712016407734375
8.18,1712016407750000
4.44,1712016407765625
0.56,1712016407781250
-2.95,1712016407796875
-5.73,1712016407812500
-7.67,1712016407828125
-8.97,1712016407843750
-10.04,1712016407859375
-11.36,1712016407875000
-13.31,1712016407890625
-16.03,1712016407906250
-19.4,1712016407921875
-23.02,1712016407937500
-26.33,1712016407953125
-28.62,1712016407968750
-29.22,1712016407984375
-27.65,1712016408000000
-23.81,1712016408015625
-18.02,1712016408031250
-10.98,1712016408046875
-3.55,1712016408062500
3.47,1712016408078125
9.58,1712016408093750
14.49,1712016408109375
18.14,1712016408125000
20.54,1712016408140625
21.75,1712016408156250
21.88,1712016408171875
21.1,1712016408187500
19.68,1712016408203125
17.96,1712016408218750
16.24,1712016408234375
14.76,1712016408250000
13.66,1712016408265625
12.93,1712016408281250
12.49,1712016408296875
12.13,1712016408312500
11.65,1712016408328125
10.91,1712016408343750
9.9,1712016408359375
8.74,1712016408375000
7.59,1712016408390625
6.53,1712016408406250
5.55,1712016408421875
4.48,1712016408437500
3.18,1712016408453125
1.56,1712016408468750
-0.34,1712016408484375
-2.4,1712016408500000
-4.44,1712016408515625
-6.38,1712016408531250
-8.19,1712016408546875
-9.95,1712016408562500
-11.8,1712016408578125
-13.88,1712016408593750
-16.32,1712016408609375
-19.1,1712016408625000
-22.05,1712016408640625
-24.84,1712016408656250
-27.01,1712016408671875
-28.03,1712016408687500
-27.5,1712016408703125
-25.18,1712016408718750
-21.11,1712016408734375
-15.57,1712016408750000
-9.07,1712016408765625
-2.29,1712016408781250
4.13,1712016408796875
9.61,1712016408812500
13.78,1712016408828125
16.51,1712016408843750
17.89,1712016408859375
18.15,1712016408875000
17.6,1712016408890625
16.64,1712016408906250
15.6,1712016408921875
14.82,1712016408937500
14.47,1712016408953125
14.56,1712016408968750
14.94,1712016408984375
15.3,1712016409000000
15.36,1712016409015625
14.96,1712016409031250
14.12,1712016409046875
13.0,1712016409062500
11.8,1712016409078125
10.65,1712016409093750
9.58,1712016409109375
8.45,1712016409125000
7.11,1712016409140625
5.39,1712016409156250
3.21,1712016409171875
0.59,1712016409187500
-2.23,1712016409203125
-4.94,1712016409218750
-7.21,1712016409234375
-8.77,1712016409250000
-9.63,1712016409265625
-9.99,1712016409281250
-10.29,1712016409296875
-10.99,1712016409312500
-12.44,1712016409328125
-14.73,1712016409343750
-17.64,1712016409359375
-20.71,1712016409375000
-23.33,1712016409390625
-24.9,1712016409406250
-24.99,1712016409421875
-23.32,1712016409437500
-19.89,1712016409453125
-14.94,1712016409468750
-8.87,1712016409484375
-2.26,1712016409500000
4.26,1712016409515625
10.11,1712016409531250
14.84,1712016409546875
18.19,1712016409562500
20.12,1712016409578125
20.73,1712016409593750
20.24,1712016409609375
18.93,1712016409625000
17.1,1712016409640625
15.12,1712016409656250
13.42,1712016409671875
12.3,1712016409687500
11.94,1712016409703125
12.29,1712016409718750
13.03,1712016409734375
13.73,1712016409750000
14.04,1712016409765625
13.76,1712016409781250
12.91,1712016409796875
11.65,1712016409812500
10.14,1712016409828125
8.45,1712016409843750
6.6,1712016409859375
4.53,1712016409875000
2.24,1712016409890625
-0.24,1712016409906250
-2.77,1712016409921875
-5.2,1712016409937500
-7.34,1712016409953125
-9.05,1712016409968750
-10.28,1712016409984375
-11.13,1712016410000000
-11.84,1712016410015625
-12.71,1712016410031250
-14.07,1712016410046875
-16.11,1712016410062500
-18.87,1712016410078125
-22.15,1712016410093750
-25.54,1712016410109375
-28.45,1712016410125000
-30.26,1712016410140625
-30.32,1712016410156250
-28.19,1712016410171875
-23.75,1712016410187500
-17.35,1712016410203125
-9.71,1712016410218750
-1.81,1712016410234375
5.25,1712016410250000
10.57,1712016410265625
13.61,1712016410281250
14.26,1712016410296875
12.85,1712016410312500
10.01,1712016410328125
6.56,1712016410343750
3.42,1712016410359375
1.45,1712016410375000
1.4,1712016410390625
3.65,1712016410406250
8.13,1712016410421875
14.16,1712016410437500
20.58,1712016410453125
26.09,1712016410468750
29.68,1712016410484375
30.89,1712016410500000
29.91,1712016410515625
27.29,1712016410531250
23.62,1712016410546875
19.28,1712016410562500
14.44,1712016410578125
9.24,1712016410593750
4.0,1712016410609375
-0.81,1712016410625000
-4.74,1712016410640625
-7.63,1712016410656250
-9.65,1712016410671875
-11.15,1712016410687500
-12.53,1712016410703125
-14.01,1712016410718750
-15.66,1712016410734375
-17.48,1712016410750000
-19.51,1712016410765625
-21.76,1712016410781250
-24.06,1712016410796875
-25.95,1712016410812500
-26.72,1712016410828125
-25.62,1712016410843750
-22.27,1712016410859375
-16.85,1712016410875000
-10.06,1712016410890625
-2.98,1712016410906250
3.43,1712016410921875
8.49,1712016410937500
11.92,1712016410953125
13.77,1712016410968750
14.2,1712016410984375
13.41,1712016411000000
11.62,1712016411015625
9.13,1712016411031250
6.35,1712016411046875
3.8,1712016411062500
1.99,1712016411078125
1.33,1712016411093750
2.0,1712016411109375
3.9,1712016411125000
6.68,1712016411140625
9.75,1712016411156250
12.42,1712016411171875
14.09,1712016411187500
14.32,1712016411203125
12.96,1712016411218750
10.1,1712016411234375
6.09,1712016411250000
1.39,1712016411265625
-3.55,1712016411281250
-8.32,1712016411296875
-12.58,1712016411312500
-16.12,1712016411328125
-18.86,1712016411343750
-20.82,1712016411359375
-22.11,1712016411375000
-22.87,1712016411390625
-23.26,1712016411406250
-23.48,1712016411421875
-23.74,1712016411437500
-24.11,1712016411453125
-24.42,1712016411468750
-24.16,1712016411484375
-22.59,1712016411500000
-19.09,1712016411515625
-13.45,1712016411531250
-6.16,1712016411546875
1.68,1712016411562500
8.72,1712016411578125
13.94,1712016411593750
16.94,1712016411609375
18.12,1712016411625000
18.28,1712016411640625
18.14,1712016411656250
17.96,1712016411671875
17.48,1712016411687500
16.24,1712016411703125
13.98,1712016411718750
10.96,1712016411734375
7.95,1712016411750000
5.86,1712016411765625
5.36,1712016411781250
6.56,1712016411796875
8.96,1712016411812500
11.7,1712016411828125
13.93,1712016411843750
15.07,1712016411859375
14.92,1712016411875000
13.59,1712016411890625
11.34,1712016411906250
8.38,1712016411921875
4.81,1712016411937500
0.68,1712016411953125
-3.82,1712016411968750
-8.39,1712016411984375
-12.55,1712016412000000
-15.8,1712016412015625
-17.93,1712016412031250
-19.03,1712016412046875
-19.58,1712016412062500
-20.13,1712016412078125
-21.06,1712016412093750
-22.31,1712016412109375
-23.48,1712016412125000
-23.96,1712016412140625
-23.28,1712016412156250
-21.31,1712016412171875
-18.19,1712016412187500
-14.25,1712016412203125
-9.88,1712016412218750
-5.46,1712016412234375
-1.32,1712016412250000
2.18,1712016412265625
4.77,1712016412281250
6.33,1712016412296875
6.93,1712016412312500
6.9,1712016412328125
6.56,1712016412343750
6.18,1712016412359375
5.83,1712016412375000
5.45,1712016412390625
4.95,1712016412406250
4.36,1712016412421875
3.87,1712016412437500
3.69,1712016412453125
4.04,1712016412468750
4.91,1712016412484375
6.11,1712016412500000
7.35,1712016412515625
8.3,1712016412531250
8.74,1712016412546875
8.56,1712016412562500
7.72,1712016412578125
6.19,1712016412593750
4.04,1712016412609375
1.42,1712016412625000
-1.4,1712016412640625
-4.02,1712016412656250
-6.09,1712016412671875
-7.5,1712016412687500
-8.49,1712016412703125
-9.57,1712016412718750
-11.36,1712016412734375
-14.25,1712016412750000
-18.15,1712016412765625
-22.37,1712016412781250
-25.82,1712016412796875
-27.31,1712016412812500
-26.05,1712016412828125
-21.89,1712016412843750
-15.44,1712016412859375
-7.85,1712016412875000
-0.35,1712016412890625
6.09,1712016412906250
11.03,1712016412921875
14.47,1712016412937500
16.64,1712016412953125
17.69,1712016412968750
17.69,1712016412984375
16.64,1712016413000000
14.7,1712016413015625
12.22,1712016413031250
9.67,1712016413046875
7.45,1712016413062500
5.73,1712016413078125
4.53,1712016413093750
3.8,1712016413109375
3.63,1712016413125000
4.2,1712016413140625
5.62,1712016413156250
7.68,1712016413171875
9.84,1712016413187500
11.32,1712016413203125
11.52,1712016413218750
10.22,1712016413234375
7.75,1712016413250000
4.68,1712016413265625
1.61,1712016413281250
-1.19,1712016413296875
-3.73,1712016413312500
-6.19,1712016413328125
-8.68,1712016413343750
-11.1,1712016413359375
-13.27,1712016413375000
-15.02,1712016413390625
-16.4,1712016413406250
-17.6,1712016413421875
-18.85,1712016413437500
-20.19,1712016413453125
-21.34,1712016413468750
-21.75,1712016413484375
-20.74,1712016413500000
-17.76,1712016413515625
-12.67,1712016413531250
-5.77,1712016413546875
2.14,1712016413562500
10.06,1712016413578125
17.0,1712016413593750
22.28,1712016413609375
25.59,1712016413625000
26.99,1712016413640625
26.66,1712016413656250
24.82,1712016413671875
21.6,1712016413687500
17.2,1712016413703125
12.0,1712016413718750
6.65,1712016413734375
1.99,1712016413750000
-1.2,1712016413765625
-2.48,1712016413781250
-1.81,1712016413796875
0.38,1712016413812500
3.43,1712016413828125
6.63,1712016413843750
9.33,1712016413859375
11.05,1712016413875000
11.49,1712016413890625
10.54,1712016413906250
8.3,1712016413921875
5.08,1712016413937500
1.35,1712016413953125
-2.36,1712016413968750
-5.66,1712016413984375
-8.42,1712016414000000
-10.82,1712016414015625
-13.27,1712016414031250
-16.2,1712016414046875
-19.84,1712016414062500
-24.02,1712016414078125
-28.19,1712016414093750
-31.5,1712016414109375
-33.06,1712016414125000
-32.18,1712016414140625
-28.58,1712016414156250
-22.5,1712016414171875
-14.62,1712016414187500
-5.96,1712016414203125
2.35,1712016414218750
9.36,1712016414234375
14.42,1712016414250000
17.37,1712016414265625
18.47,1712016414281250
18.3,1712016414296875
17.5,1712016414312500
16.63,1712016414328125
15.99,1712016414343750
15.66,1712016414359375
15.56,1712016414375000
15.53,1712016414390625
15.45,1712016414406250
15.23,1712016414421875
14.88,1712016414437500
14.49,1712016414453125
14.13,1712016414468750
13.83,1712016414484375
13.52,1712016414500000
13.0,1712016414515625
12.06,1712016414531250
10.56,1712016414546875
8.45,1712016414562500
5.83,1712016414578125
2.91,1712016414593750
-0.08,1712016414609375
-2.91,1712016414625000
-5.44,1712016414640625
-7.67,1712016414656250
-9.72,1712016414671875
-11.89,1712016414687500
-14.5,1712016414703125
-17.72,1712016414718750
-21.47,1712016414734375
-25.28,1712016414750000
-28.42,1712016414765625
-30.05,1712016414781250
-29.58,1712016414796875
-26.81,1712016414812500
-22.03,1712016414828125
-15.93,1712016414843750
-9.27,1712016414859375
-2.76,1712016414875000
3.19,1712016414890625
8.41,1712016414906250
12.88,1712016414921875
16.5,1712016414937500
19.1,1712016414953125
20.46,1712016414968750
20.51,1712016414984375
19.5,1712016415000000
17.92,1712016415015625
16.45,1712016415031250
15.61,1712016415046875
15.6,1712016415062500
16.23,1712016415078125
17.09,1712016415093750
17.71,1712016415109375
17.86,1712016415125000
17.58,1712016415140625
17.09,1712016415156250
16.68,1712016415171875
16.47,1712016415187500
16.31,1712016415203125
15.8,1712016415218750
14.48,1712016415234375
12.07,1712016415250000
8.6,1712016415265625
4.49,1712016415281250
0.36,1712016415296875
-3.16,1712016415312500
-5.74,1712016415328125
-7.46,1712016415343750
-8.81,1712016415359375
-10.52,1712016415375000
-13.26,1712016415390625
-17.34,1712016415406250
-22.53,1712016415421875
-28.06,1712016415437500
-32.8,1712016415453125
-35.62,1712016415468750
-35.81,1712016415484375
-33.26,1712016415500000
-28.52,1712016415515625
-22.48,1712016415531250
-16.0,1712016415546875
-9.55,1712016415562500
-3.16,1712016415578125
3.41,1712016415593750
10.32,1712016415609375
17.34,1712016415625000
23.8,1712016415640625
28.66,1712016415656250
30.96,1712016415671875
30.2,1712016415687500
26.76,1712016415703125
21.94,1712016415718750
17.95,1712016415734375
17.43,1712016415750000
22.84,1712016415765625
35.65,1712016415781250
55.67,1712016415796875
80.6,1712016415812500
106.17,1712016415828125
127.01,1712016415843750
138.0,1712016415859375
135.85,1712016415875000
120.05,1712016415890625
93.1,1712016415906250
59.49,1712016415921875
24.27,1712016415937500
-8.44,1712016415953125
-36.15,1712016415968750
-57.72,1712016415984375
-72.58,1712016416000000
-79.96,1712016416015625
-78.85,1712016416031250
-68.88,1712016416046875
-51.34,1712016416062500
-29.73,1712016416078125
-9.01,1712016416093750
5.89,1712016416109375
11.9,1712016416125000
8.74,1712016416140625
-1.38,1712016416156250
-15.16,1712016416171875
-29.64,1712016416187500
-43.13,1712016416203125
-55.09,1712016416218750
-65.33,1712016416234375
-73.27,1712016416250000
-77.74,1712016416265625
-77.51,1712016416281250
-72.16,1712016416296875
-62.52,1712016416312500
-50.6,1712016416328125
-38.82,1712016416343750
-29.03,1712016416359375
-21.94,1712016416375000
-17.04,1712016416390625
-13.05,1712016416406250
-8.79,1712016416421875
-3.67,1712016416437500
2.06,1712016416453125
7.54,1712016416468750
11.8,1712016416484375
14.06,1712016416500000
13.98,1712016416515625
11.75,1712016416531250
8.15,1712016416546875
4.61,1712016416562500
3.02,1712016416578125
5.24,1712016416593750
12.29,1712016416609375
23.62,1712016416625000
36.96,1712016416640625
48.95,1712016416656250
56.35,1712016416671875
57.34,1712016416687500
51.96,1712016416703125
41.83,1712016416718750
29.15,1712016416734375
15.73,1712016416750000
2.67,1712016416765625
-9.17,1712016416781250
-18.57,1712016416796875
-23.71,1712016416812500
-22.81,1712016416828125
-15.26,1712016416843750
-2.48,1712016416859375
12.11,1712016416875000
24.09,1712016416890625
29.78,1712016416906250
27.65,1712016416921875
18.72,1712016416937500
5.92,1712016416953125
-7.35,1712016416968750
-18.5,1712016416984375
-26.54,1712016417000000
-31.83,1712016417015625
-35.41,1712016417031250
-38.17,1712016417046875
-40.35,1712016417062500
-41.56,1712016417078125
-41.12,1712016417093750
-38.57,1712016417109375
-33.97,1712016417125000
-27.95,1712016417140625
-21.49,1712016417156250
-15.54,1712016417171875
-10.63,1712016417187500
-6.71,1712016417203125
-3.34,1712016417218750
-0.05,1712016417234375
3.29,1712016417250000
6.29,1712016417265625
8.27,1712016417281250
8.65,1712016417296875
7.4,1712016417312500
5.09,1712016417328125
2.68,1712016417343750
1.1,1712016417359375
0.81,1712016417375000
1.59,1712016417390625
2.84,1712016417406250
3.8,1712016417421875
3.99,1712016417437500
3.31,1712016417453125
2.05,1712016417468750
0.72,1712016417484375
-0.14,1712016417500000
-0.12,1712016417515625
0.95,1712016417531250
2.95,1712016417546875
5.54,1712016417562500
8.27,1712016417578125
10.77,1712016417593750
12.81,1712016417609375
14.4,1712016417625000
15.69,1712016417640625
16.86,1712016417656250
17.96,1712016417671875
18.92,1712016417687500
19.56,1712016417703125
19.65,1712016417718750
19.04,1712016417734375
17.66,1712016417750000
15.65,1712016417765625
13.23,1712016417781250
10.68,1712016417796875
8.18,1712016417812500
5.74,1712016417828125
3.14,1712016417843750
-0.02,1712016417859375
-4.11,1712016417875000
-9.28,1712016417890625
-15.43,1712016417906250
-22.08,1712016417921875
-28.52,1712016417937500
-33.95,1712016417953125
-37.58,1712016417968750
-38.8,1712016417984375
-37.36,1712016418000000
-33.43,1712016418015625
-27.57,1712016418031250
-20.62,1712016418046875
-13.46,1712016418062500
-6.78,1712016418078125
-1.05,1712016418093750
3.58,1712016418109375
7.09,1712016418125000
9.54,1712016418140625
11.0,1712016418156250
11.61,1712016418171875
11.63,1712016418187500
11.41,1712016418203125
11.33,1712016418218750
11.67,1712016418234375
12.45,1712016418250000
13.49,1712016418265625
14.49,1712016418281250
15.19,1712016418296875
15.51,1712016418312500
15.66,1712016418328125
15.98,1712016418343750
16.73,1712016418359375
17.92,1712016418375000
19.16,1712016418390625
19.88,1712016418406250
19.6,1712016418421875
18.17,1712016418437500
15.97,1712016418453125
13.73,1712016418468750
12.28,1712016418484375
12.22,1712016418500000
13.74,1712016418515625
16.54,1712016418531250
20.06,1712016418546875
23.52,1712016418562500
26.21,1712016418578125
27.54,1712016418593750
27.21,1712016418609375
25.22,1712016418625000
21.86,1712016418640625
17.61,1712016418656250
12.97,1712016418671875
8.31,1712016418687500
3.81,1712016418703125
-0.53,1712016418718750
-4.72,1712016418734375
-8.74,1712016418750000
-12.37,1712016418765625
-15.27,1712016418781250
-17.0,1712016418796875
-17.15,1712016418812500
-15.46,1712016418828125
-11.87,1712016418843750
-6.53,1712016418859375
0.3,1712016418875000
8.35,1712016418890625
17.42,1712016418906250
27.29,1712016418921875
37.69,1712016418937500
48.17,1712016418953125
58.11,1712016418968750
66.94,1712016418984375
74.21,1712016419000000
79.86,1712016419015625
84.19,1712016419031250
87.8,1712016419046875
91.32,1712016419062500
95.44,1712016419078125
100.55,1712016419093750
106.84,1712016419109375
114.11,1712016419125000
121.56,1712016419140625
127.79,1712016419156250
130.9,1712016419171875
129.26,1712016419187500
122.25,1712016419203125
110.86,1712016419218750
97.34,1712016419234375
84.24,1712016419250000
73.06,1712016419265625
63.43,1712016419281250
53.39,1712016419296875
40.57,1712016419312500
23.62,1712016419328125
3.02,1712016419343750
-19.23,1712016419359375
-40.87,1712016419375000
-60.58,1712016419390625
-78.47,1712016419406250
-95.6,1712016419421875
-112.84,1712016419437500
-130.11,1712016419453125
-146.24,1712016419468750
-159.71,1712016419484375
-169.51,1712016419500000
-175.81,1712016419515625
-179.78,1712016419531250
-183.07,1712016419546875
-187.17,1712016419562500
-192.77,1712016419578125
-199.65,1712016419593750
-206.67,1712016419609375
-212.08,1712016419625000
-213.9,1712016419640625
-210.46,1712016419656250
-200.86,1712016419671875
-185.26,1712016419687500
-164.86,1712016419703125
-141.5,1712016419718750
-117.06,1712016419734375
-93.06,1712016419750000
-70.36,1712016419765625
-49.39,1712016419781250
-30.34,1712016419796875
-13.33,1712016419812500
1.48,1712016419828125
14.01,1712016419843750
24.3,1712016419859375
32.41,1712016419875000
38.4,1712016419890625
42.28,1712016419906250
44.12,1712016419921875
44.2,1712016419937500
43.11,1712016419953125
41.61,1712016419968750
40.49,1712016419984375
40.3,1712016420000000
41.25,1712016420015625
43.16,1712016420031250
45.59,1712016420046875
47.89,1712016420062500
49.29,1712016420078125
49.17,1712016420093750
47.12,1712016420109375
43.15,1712016420125000
37.67,1712016420140625
31.39,1712016420156250
25.11,1712016420171875
19.61,1712016420187500
15.41,1712016420203125
12.69,1712016420218750
11.35,1712016420234375
10.96,1712016420250000
10.93,1712016420265625
10.68,1712016420281250
9.83,1712016420296875
8.28,1712016420312500
6.29,1712016420328125
4.11,1712016420343750
1.89,1712016420359375
-0.48,1712016420375000
-3.41,1712016420390625
-7.28,1712016420406250
-12.12,1712016420421875
-17.53,1712016420437500
-22.62,1712016420453125
-26.27,1712016420468750
-27.58,1712016420484375
-26.07,1712016420500000
-21.86,1712016420515625
-15.6,1712016420531250
-8.27,1712016420546875
-0.86,1712016420562500
5.85,1712016420578125
11.34,1712016420593750
15.44,1712016420609375
18.16,1712016420625000
19.68,1712016420640625
20.29,1712016420656250
20.32,1712016420671875
20.14,1712016420687500
20.05,1712016420703125
20.22,1712016420718750
20.67,1712016420734375
21.28,1712016420750000
21.9,1712016420765625
22.45,1712016420781250
22.99,1712016420796875
23.6,1712016420812500
24.36,1712016420828125
25.15,1712016420843750
25.71,1712016420859375
25.7,1712016420875000
24.86,1712016420890625
23.07,1712016420906250
20.35,1712016420921875
16.93,1712016420937500
13.09,1712016420953125
9.2,1712016420968750
5.58,1712016420984375
2.42,1712016421000000
-0.31,1712016421015625
-2.76,1712016421031250
-5.19,1712016421046875
-7.77,1712016421062500
-10.47,1712016421078125
-13.14,1712016421093750
-15.54,1712016421109375
-17.59,1712016421125000
-19.42,1712016421140625
-21.47,1712016421156250
-24.2,1712016421171875
-27.96,1712016421187500
-32.8,1712016421203125
-38.3,1712016421218750
-43.67,1712016421234375
-47.9,1712016421250000
-50.05,1712016421265625
-49.53,1712016421281250
-46.23,1712016421296875
-40.64,1712016421312500
-33.54,1712016421328125
-25.81,1712016421343750
-18.11,1712016421359375
-10.84,1712016421375000
-4.13,1712016421390625
1.98,1712016421406250
7.41,1712016421421875
11.95,1712016421437500
15.32,1712016421453125
17.26,1712016421468750
17.69,1712016421484375
16.87,1712016421500000
15.35,1712016421515625
13.9,1712016421531250
13.24,1712016421546875
13.92,1712016421562500
16.13,1712016421578125
19.71,1712016421593750
24.28,1712016421609375
29.23,1712016421625000
33.88,1712016421640625
37.45,1712016421656250
39.29,1712016421671875
39.07,1712016421687500
36.84,1712016421703125
33.14,1712016421718750
28.69,1712016421734375
24.16,1712016421750000
19.77,1712016421765625
15.39,1712016421781250
10.64,1712016421796875
5.19,1712016421812500
-0.96,1712016421828125
-7.61,1712016421843750
-14.38,1712016421859375
-21.0,1712016421875000
-27.27,1712016421890625
-33.1,1712016421906250
-38.41,1712016421921875
-43.09,1712016421937500
-47.12,1712016421953125
-50.62,1712016421968750
-53.93,1712016421984375
-57.46,1712016422000000
-61.44,1712016422015625
-65.75,1712016422031250
-69.8,1712016422046875
-72.62,1712016422062500
-73.12,1712016422078125
-70.53,1712016422093750
-64.61,1712016422109375
-55.75,1712016422125000
-44.9,1712016422140625
-33.23,1712016422156250
-21.85,1712016422171875
-11.6,1712016422187500
-2.97,1712016422203125
3.84,1712016422218750
8.8,1712016422234375
11.99,1712016422250000
13.7,1712016422265625
14.38,1712016422281250
14.63,1712016422296875
15.06,1712016422312500
16.07,1712016422328125
17.81,1712016422343750
20.12,1712016422359375
22.67,1712016422375000
25.09,1712016422390625
27.09,1712016422406250
28.48,1712016422421875
29.24,1712016422437500
29.44,1712016422453125
29.26,1712016422468750
28.83,1712016422484375
28.17,1712016422500000
27.26,1712016422515625
25.93,1712016422531250
24.06,1712016422546875
21.63,1712016422562500
18.82,1712016422578125
15.86,1712016422593750
12.99,1712016422609375
10.26,1712016422625000
7.61,1712016422640625
4.82,1712016422656250
1.76,1712016422671875
-1.56,1712016422687500
-4.96,1712016422703125
-8.18,1712016422718750
-11.05,1712016422734375
-13.61,1712016422750000
-16.19,1712016422765625
-19.29,1712016422781250
-23.4,1712016422796875
-28.74,1712016422812500
-35.03,1712016422828125
-41.43,1712016422843750
-46.69,1712016422859375
-49.53,1712016422875000
-48.98,1712016422890625
-44.69,1712016422906250
-37.03,1712016422921875
-26.93,1712016422937500
-15.57,1712016422953125
-4.08,1712016422968750
6.64,1712016422984375
16.0,1712016423000000
23.7,1712016423015625
29.62,1712016423031250
33.79,1712016423046875
36.33,1712016423062500
37.52,1712016423078125
37.76,1712016423093750
37.47,1712016423109375
37.13,1712016423125000
37.07,1712016423140625
37.49,1712016423156250
38.36,1712016423171875
39.56,1712016423187500
40.84,1712016423203125
42.02,1712016423218750
42.99,1712016423234375
43.67,1712016423250000
44.03,1712016423265625
43.99,1712016423281250
43.39,1712016423296875
42.09,1712016423312500
40.01,1712016423328125
37.19,1712016423343750
33.86,1712016423359375
30.3,1712016423375000
26.74,1712016423390625
23.28,1712016423406250
19.86,1712016423421875
16.37,1712016423437500
12.74,1712016423453125
8.99,1712016423468750
5.27,1712016423484375
1.75,1712016423500000
-1.47,1712016423515625
-4.47,1712016423531250
-7.45,1712016423546875
-10.73,1712016423562500
-14.64,1712016423578125
-19.45,1712016423593750
-25.24,1712016423609375
-31.85,1712016423625000
-38.69,1712016423640625
-44.88,1712016423656250
-49.27,1712016423671875
-50.79,1712016423687500
-48.74,1712016423703125
-43.05,1712016423718750
-34.31,1712016423734375
-23.63,1712016423750000
-12.3,1712016423765625
-1.48,1712016423781250
8.07,1712016423796875
16.03,1712016423812500
22.4,1712016423828125
27.32,1712016423843750
30.9,1712016423859375
33.11,1712016423875000
33.93,1712016423890625
33.43,1712016423906250
31.87,1712016423921875
29.82,1712016423937500
27.96,1712016423953125
26.94,1712016423968750
27.12,1712016423984375
28.41,1712016424000000
30.43,1712016424015625
32.56,1712016424031250
34.32,1712016424046875
35.38,1712016424062500
35.7,1712016424078125
35.35,1712016424093750
34.43,1712016424109375
32.96,1712016424125000
30.94,1712016424140625
28.34,1712016424156250
25.18,1712016424171875
21.58,1712016424187500
17.69,1712016424203125
13.69,1712016424218750
9.71,1712016424234375
5.9,1712016424250000
2.38,1712016424265625
-0.79,1712016424281250
-3.59,1712016424296875
-6.11,1712016424312500
-8.55,1712016424328125
-11.22,1712016424343750
-14.4,1712016424359375
-18.37,1712016424375000
-23.31,1712016424390625
-29.15,1712016424406250
-35.5,1712016424421875
-41.59,1712016424437500
-46.41,1712016424453125
-48.87,1712016424468750
-48.14,1712016424484375
-43.93,1712016424500000
-36.57,1712016424515625
-26.96,1712016424531250
-16.3,1712016424546875
-5.73,1712016424562500
3.89,1712016424578125
12.1,1712016424593750
18.75,1712016424609375
23.88,1712016424625000
27.56,1712016424640625
29.78,1712016424656250
30.61,1712016424671875
30.19,1712016424687500
28.96,1712016424703125
27.54,1712016424718750
26.6,1712016424734375
26.65,1712016424750000
27.82,1712016424765625
29.82,1712016424781250
32.07,1712016424796875
33.94,1712016424812500
35.0,1712016424828125
35.1,1712016424843750
34.36,1712016424859375
32.94,1712016424875000
30.99,1712016424890625
28.55,1712016424906250
25.64,1712016424921875
22.34,1712016424937500
18.75,1712016424953125
15.03,1712016424968750
11.33,1712016424984375
7.69,1712016425000000
4.09,1712016425015625
0.47,1712016425031250
-3.22,1712016425046875
-6.94,1712016425062500
-10.6,1712016425078125
-14.11,1712016425093750
-17.43,1712016425109375
-20.63,1712016425125000
-23.97,1712016425140625
-27.77,1712016425156250
-32.37,1712016425171875
-37.89,1712016425187500
-44.05,1712016425203125
-50.19,1712016425218750
-55.33,1712016425234375
-58.35,1712016425250000
-58.36,1712016425265625
-54.88,1712016425281250
-47.97,1712016425296875
-38.25,1712016425312500
-26.72,1712016425328125
-14.66,1712016425343750
-3.26,1712016425359375
6.47,1712016425375000
13.98,1712016425390625
19.17,1712016425406250
22.33,1712016425421875
23.97,1712016425437500
24.65,1712016425453125
24.79,1712016425468750
24.71,1712016425484375
24.69,1712016425500000
24.94,1712016425515625
25.66,1712016425531250
26.9,1712016425546875
28.51,1712016425562500
30.16,1712016425578125
31.46,1712016425593750
32.11,1712016425609375
32.02,1712016425625000
31.32,1712016425640625
30.22,1712016425656250
28.88,1712016425671875
27.36,1712016425687500
25.59,1712016425703125
23.46,1712016425718750
20.91,1712016425734375
18.02,1712016425750000
14.89,1712016425765625
11.63,1712016425781250
8.25,1712016425796875
4.64,1712016425812500
0.7,1712016425828125
-3.59,1712016425843750
-8.06,1712016425859375
-12.39,1712016425875000
-16.29,1712016425890625
-19.64,1712016425906250
-22.66,1712016425921875
-25.84,1712016425937500
-29.81,1712016425953125
-35.02,1712016425968750
-41.44,1712016425984375
-48.51,1712016426000000
-55.11,1712016426015625
-59.91,1712016426031250
-61.73,1712016426046875
-59.85,1712016426062500
-54.24,1712016426078125
-45.51,1712016426093750
-34.74,1712016426109375
-23.1,1712016426125000
-11.68,1712016426140625
-1.23,1712016426156250
7.82,1712016426171875
15.39,1712016426187500
21.59,1712016426203125
26.6,1712016426218750
30.63,1712016426234375
33.81,1712016426250000
36.3,1712016426265625
38.36,1712016426281250
40.41,1712016426296875
42.94,1712016426312500
46.34,1712016426328125
50.58,1712016426343750
55.14,1712016426359375
59.17,1712016426375000
61.78,1712016426390625
62.63,1712016426406250
62.13,1712016426421875
61.34,1712016426437500
61.46,1712016426453125
63.2,1712016426468750
66.36,1712016426484375
69.93,1712016426500000
72.54,1712016426515625
73.19,1712016426531250
71.8,1712016426546875
69.3,1712016426562500
67.34,1712016426578125
67.49,1712016426593750
70.54,1712016426609375
76.07,1712016426625000
82.64,1712016426640625
88.37,1712016426656250
91.78,1712016426671875
92.57,1712016426687500
91.7,1712016426703125
91.01,1712016426718750
92.63,1712016426734375
98.34,1712016426750000
109.02,1712016426765625
124.24,1712016426781250
141.97,1712016426796875
158.32,1712016426812500
167.59,1712016426828125
163.61,1712016426843750
141.96,1712016426859375
102.5,1712016426875000
50.73,1712016426890625
-3.22,1712016426906250
-47.79,1712016426921875
-74.12,1712016426937500
-79.05,1712016426953125
-65.49,1712016426968750
-40.3,1712016426984375
-11.0,1712016427000000
16.84,1712016427015625
40.22,1712016427031250
57.85,1712016427046875
68.78,1712016427062500
71.86,1712016427078125
66.28,1712016427093750
52.71,1712016427109375
33.78,1712016427125000
13.59,1712016427140625
-3.76,1712016427156250
-15.8,1712016427171875
-22.37,1712016427187500
-25.28,1712016427203125
-27.28,1712016427218750
-30.63,1712016427234375
-36.17,1712016427250000
-43.12,1712016427265625
-49.85,1712016427281250
-54.68,1712016427296875
-56.74,1712016427312500
-56.21,1712016427328125
-54.07,1712016427343750
-51.39,1712016427359375
-48.77,1712016427375000
-46.07,1712016427390625
-42.55,1712016427406250
-37.37,1712016427421875
-30.09,1712016427437500
-21.02,1712016427453125
-11.22,1712016427468750
-2.19,1712016427484375
4.46,1712016427500000
7.14,1712016427515625
4.43,1712016427531250
-4.77,1712016427546875
-20.94,1712016427562500
-43.44,1712016427578125
-70.25,1712016427593750
-98.06,1712016427609375
-123.08,1712016427625000
-142.13,1712016427640625
-153.61,1712016427656250
-157.87,1712016427671875
-156.75,1712016427687500
-152.53,1712016427703125
-146.91,1712016427718750
-140.44,1712016427734375
-132.86,1712016427750000
-123.72,1712016427765625
-113.12,1712016427781250
-101.89,1712016427796875
-91.3,1712016427812500
-82.45,1712016427828125
-75.74,1712016427843750
-70.8,1712016427859375
-66.68,1712016427875000
-62.33,1712016427890625
-57.0,1712016427906250
-50.32,1712016427921875
-42.16,1712016427937500
-32.54,1712016427953125
-21.9,1712016427968750
-11.68,1712016427984375
-4.43,1712016428000000
-3.28,1712016428015625
-10.57,1712016428031250
-26.22,1712016428046875
-47.04,1712016428062500
-67.33,1712016428078125
-80.81,1712016428093750
-82.97,1712016428109375
-72.7,1712016428125000
-52.49,1712016428140625
-27.17,1712016428156250
-2.04,1712016428171875
18.95,1712016428187500
33.96,1712016428203125
43.27,1712016428218750
48.31,1712016428234375
50.7,1712016428250000
51.34,1712016428265625
50.13,1712016428281250
46.26,1712016428296875
38.9,1712016428312500
28.15,1712016428328125
15.37,1712016428343750
2.86,1712016428359375
-7.21,1712016428375000
-13.81,1712016428390625
-17.61,1712016428406250
-20.63,1712016428421875
-25.11,1712016428437500
-32.28,1712016428453125
-41.63,1712016428468750
-51.12,1712016428484375
-58.08,1712016428500000
-60.53,1712016428515625
-58.09,1712016428531250
-52.16,1712016428546875
-45.14,1712016428562500
-39.21,1712016428578125
-35.24,1712016428593750
-32.47,1712016428609375
-29.16,1712016428625000
-23.68,1712016428640625
-15.55,1712016428656250
-5.58,1712016428671875
4.74,1712016428687500
14.27,1712016428703125
22.93,1712016428718750
31.74,1712016428734375
42.07,1712016428750000
54.72,1712016428765625
69.49,1712016428781250
85.16,1712016428796875
100.12,1712016428812500
112.97,1712016428828125
122.75,1712016428843750
128.96,1712016428859375
131.37,1712016428875000
129.99,1712016428890625
125.09,1712016428906250
117.42,1712016428921875
108.06,1712016428937500
98.11,1712016428953125
88.04,1712016428968750
77.25,1712016428984375
63.87,1712016429000000
45.21,1712016429015625
18.69,1712016429031250
-17.18,1712016429046875
-61.89,1712016429062500
-112.56,1712016429078125
-164.34,1712016429093750
-211.27,1712016429109375
-247.74,1712016429125000
-269.81,1712016429140625
-276.33,1712016429156250
-269.2,1712016429171875
-252.91,1712016429187500
-233.22,1712016429203125
-215.63,1712016429218750
-203.82,1712016429234375
-198.91,1712016429250000
-199.53,1712016429265625
-202.8,1712016429281250
-205.57,1712016429296875
-205.49,1712016429312500
-201.44,1712016429328125
-193.52,1712016429343750
-182.43,1712016429359375
-169.03,1712016429375000
-153.95,1712016429390625
-137.52,1712016429406250
-119.82,1712016429421875
-100.71,1712016429437500
-79.7,1712016429453125
-55.76,1712016429468750
-27.47,1712016429484375
6.19,1712016429500000
44.73,1712016429515625
85.34,1712016429531250
122.9,1712016429546875
151.47,1712016429562500
166.58,1712016429578125
167.22,1712016429593750
156.55,1712016429609375
140.59,1712016429625000
125.62,1712016429640625
115.3,1712016429656250
109.37,1712016429671875
104.36,1712016429687500
96.02,1712016429703125
81.95,1712016429718750
63.02,1712016429734375
42.75,1712016429750000
25.11,1712016429765625
11.99,1712016429781250
2.05,1712016429796875
-8.43,1712016429812500
-23.11,1712016429828125
-43.09,1712016429843750
-65.8,1712016429859375
-86.41,1712016429875000
-100.74,1712016429890625
-107.78,1712016429906250
-110.3,1712016429921875
-112.99,1712016429937500
-119.23,1712016429953125
-128.65,1712016429968750
-136.98,1712016429984375
-138.31,1712016430000000
-128.42,1712016430015625
-107.07,1712016430031250
-78.02,1712016430046875
-47.05,1712016430062500
-19.06,1712016430078125
3.81,1712016430093750
22.39,1712016430109375
39.1,1712016430125000
56.17,1712016430140625
74.37,1712016430156250
92.79,1712016430171875
109.64,1712016430187500
123.31,1712016430203125
133.22,1712016430218750
140.0,1712016430234375
144.94,1712016430250000
149.23,1712016430265625
153.24,1712016430281250
156.36,1712016430296875
157.43,1712016430312500
155.48,1712016430328125
150.3,1712016430343750
142.69,1712016430359375
134.12,1712016430375000
126.03,1712016430390625
119.33,1712016430406250
114.13,1712016430421875
109.85,1712016430437500
105.69,1712016430453125
101.05,1712016430468750
95.67,1712016430484375
89.72,1712016430500000
83.48,1712016430515625
77.23,1712016430531250
71.06,1712016430546875
64.9,1712016430562500
58.61,1712016430578125
52.11,1712016430593750
45.41,1712016430609375
38.7,1712016430625000
32.19,1712016430640625
26.12,1712016430656250
20.66,1712016430671875
15.87,1712016430687500
11.81,1712016430703125
8.46,1712016430718750
5.77,1712016430734375
3.65,1712016430750000
1.88,1712016430765625
0.18,1712016430781250
-1.8,1712016430796875
-4.41,1712016430812500
-7.98,1712016430828125
-12.74,1712016430843750
-18.75,1712016430859375
-25.79,1712016430875000
-33.23,1712016430890625
-40.03,1712016430906250
-44.89,1712016430921875
-46.59,1712016430937500
-44.46,1712016430953125
-38.64,1712016430968750
-30.07,1712016430984375
-20.19,1712016431000000
-10.46,1712016431015625
-1.91,1712016431031250
5.0,1712016431046875
10.31,1712016431062500
14.34,1712016431078125
17.37,1712016431093750
19.62,1712016431109375
21.21,1712016431125000
22.27,1712016431140625
23.0,1712016431156250
23.63,1712016431171875
24.34,1712016431187500
25.19,1712016431203125
26.07,1712016431218750
26.79,1712016431234375
27.17,1712016431250000
27.14,1712016431265625
26.84,1712016431281250
26.47,1712016431296875
26.24,1712016431312500
26.21,1712016431328125
26.2,1712016431343750
25.91,1712016431359375
25.03,1712016431375000
23.41,1712016431390625
21.14,1712016431406250
18.47,1712016431421875
15.75,1712016431437500
13.23,1712016431453125
11.05,1712016431468750
9.18,1712016431484375
7.5,1712016431500000
5.75,1712016431515625
3.66,1712016431531250
1.04,1712016431546875
-2.12,1712016431562500
-5.58,1712016431578125
-8.94,1712016431593750
-11.91,1712016431609375
-14.42,1712016431625000
-16.79,1712016431640625
-19.56,1712016431656250
-23.25,1712016431671875
-28.06,1712016431687500
-33.81,1712016431703125
-39.92,1712016431718750
-45.54,1712016431734375
-49.76,1712016431750000
-51.75,1712016431765625
-50.88,1712016431781250
-46.94,1712016431796875
-40.13,1712016431812500
-31.13,1712016431828125
-21.01,1712016431843750
-10.83,1712016431859375
-1.55,1712016431875000
6.26,1712016431890625
12.39,1712016431906250
16.92,1712016431921875
20.05,1712016431937500
22.0,1712016431953125
22.95,1712016431968750
23.12,1712016431984375
22.77,1712016432000000
22.19,1712016432015625
21.7,1712016432031250
21.54,1712016432046875
21.78,1712016432062500
22.39,1712016432078125
23.19,1712016432093750
24.01,1712016432109375
24.72,1712016432125000
25.27,1712016432140625
25.65,1712016432156250
25.8,1712016432171875
25.56,1712016432187500
24.73,1712016432203125
23.14,1712016432218750
20.79,1712016432234375
17.84,1712016432250000
14.62,1712016432265625
11.42,1712016432281250
8.42,1712016432296875
5.61,1712016432312500
2.89,1712016432328125
0.15,1712016432343750
-2.6,1712016432359375
-5.26,1712016432375000
-7.68,1712016432390625
-9.79,1712016432406250
-11.64,1712016432421875
-13.46,1712016432437500
-15.55,1712016432453125
-18.2,1712016432468750
-21.68,1712016432484375
-26.13,1712016432500000
-31.55,1712016432515625
-37.66,1712016432531250
-43.84,1712016432546875
-49.14,1712016432562500
-52.4,1712016432578125
-52.6,1712016432593750
-49.19,1712016432609375
-42.34,1712016432625000
-33.0,1712016432640625
-22.58,1712016432656250
-12.48,1712016432671875
-3.69,1712016432687500
3.46,1712016432703125
9.17,1712016432718750
13.92,1712016432734375
18.03,1712016432750000
21.54,1712016432765625
24.28,1712016432781250
26.06,1712016432796875
26.91,1712016432812500
27.16,1712016432828125
27.24,1712016432843750
27.53,1712016432859375
28.16,1712016432875000
28.95,1712016432890625
29.65,1712016432906250
30.0,1712016432921875
29.98,1712016432937500
29.67,1712016432953125
29.26,1712016432968750
28.81,1712016432984375
28.25,1712016433000000
27.32,1712016433015625
25.73,1712016433031250
23.37,1712016433046875
20.33,1712016433062500
16.97,1712016433078125
13.75,1712016433093750
11.01,1712016433109375
8.81,1712016433125000
6.91,1712016433140625
4.88,1712016433156250
2.37,1712016433171875
-0.72,1712016433187500
-4.23,1712016433203125
-7.77,1712016433218750
-11.04,1712016433234375
-13.81,1712016433250000
-16.14,1712016433265625
-18.22,1712016433281250
-20.39,1712016433296875
-23.02,1712016433312500
-26.44,1712016433328125
-30.84,1712016433343750
-36.13,1712016433359375
-41.81,1712016433375000
-46.97,1712016433390625
-50.39,1712016433406250
-50.94,1712016433421875
-47.89,1712016433437500
-41.23,1712016433453125
-31.73,1712016433468750
-20.73,1712016433484375
-9.69,1712016433500000
0.19,1712016433515625
8.3,1712016433531250
14.64,1712016433546875
19.58,1712016433562500
23.52,1712016433578125
26.69,1712016433593750
29.08,1712016433609375
30.53,1712016433625000
31.04,1712016433640625
30.82,1712016433656250
30.33,1712016433671875
29.99,1712016433687500
30.07,1712016433703125
30.5,1712016433718750
31.06,1712016433734375
31.41,1712016433750000
31.36,1712016433765625
30.89,1712016433781250
30.15,1712016433796875
29.32,1712016433812500
28.49,1712016433828125
27.6,1712016433843750
26.43,1712016433859375
24.72,1712016433875000
22.31,1712016433890625
19.22,1712016433906250
15.69,1712016433921875
12.15,1712016433937500
9.06,1712016433953125
6.68,1712016433968750
5.0,1712016433984375
3.7,1712016434000000
2.28,1712016434015625
0.26,1712016434031250
-2.58,1712016434046875
-6.11,1712016434062500
-9.89,1712016434078125
-13.34,1712016434093750
-16.02,1712016434109375
-17.85,1712016434125000
-19.24,1712016434140625
-20.91,1712016434156250
-23.59,1712016434171875
-27.75,1712016434187500
-33.36,1712016434203125
-39.83,1712016434218750
-46.18,1712016434234375
-51.26,1712016434250000
-54.02,1712016434265625
-53.67,1712016434281250
-49.9,1712016434296875
-42.91,1712016434312500
-33.46,1712016434328125
-22.72,1712016434343750
-12.01,1712016434359375
-2.48,1712016434375000
5.2,1712016434390625
10.93,1712016434406250
15.05,1712016434421875
18.08,1712016434437500
20.45,1712016434453125
22.3,1712016434468750
23.61,1712016434484375
24.42,1712016434500000
24.84,1712016434515625
25.21,1712016434531250
25.86,1712016434546875
26.98,1712016434562500
28.48,1712016434578125
30.05,1712016434593750
31.27,1712016434609375
31.84,1712016434625000
31.68,1712016434640625
30.93,1712016434656250
29.87,1712016434671875
28.73,1712016434687500
27.57,1712016434703125
26.25,1712016434718750
24.54,1712016434734375
22.23,1712016434750000
19.28,1712016434765625
15.92,1712016434781250
12.52,1712016434796875
9.49,1712016434812500
7.07,1712016434828125
5.19,1712016434843750
3.54,1712016434859375
1.72,1712016434875000
-0.58,1712016434890625
-3.46,1712016434906250
-6.78,1712016434921875
-10.26,1712016434937500
-13.66,1712016434953125
-16.83,1712016434968750
-19.79,1712016434984375
-22.72,1712016435000000
-25.85,1712016435015625
-29.46,1712016435031250
-33.75,1712016435046875
-38.72,1712016435062500
-44.08,1712016435078125
-49.14,1712016435093750
-52.89,1712016435109375
-54.21,1712016435125000
-52.21,1712016435140625
-46.62,1712016435156250
-37.96,1712016435171875
-27.41,1712016435187500
-16.43,1712016435203125
-6.31,1712016435218750
2.17,1712016435234375
8.87,1712016435250000
14.03,1712016435265625
17.97,1712016435281250
20.87,1712016435296875
22.73,1712016435312500
23.54,1712016435328125
23.46,1712016435343750
22.87,1712016435359375
22.26,1712016435375000
21.99,1712016435390625
22.17,1712016435406250
22.68,1712016435421875
23.31,1712016435437500
23.85,1712016435453125
24.23,1712016435468750
24.43,1712016435484375
24.47,1712016435500000
24.27,1712016435515625
23.71,1712016435531250
22.71,1712016435546875
21.25,1712016435562500
19.39,1712016435578125
17.28,1712016435593750
15.09,1712016435609375
12.92,1712016435625000
10.83,1712016435640625
8.83,1712016435656250
6.83,1712016435671875
4.71,1712016435687500
2.38,1712016435703125
-0.22,1712016435718750
-3.07,1712016435734375
-6.03,1712016435750000
-8.94,1712016435765625
-11.62,1712016435781250
-14.0,1712016435796875
-16.17,1712016435812500
-18.36,1712016435828125
-20.88,1712016435843750
-24.06,1712016435859375
-28.05,1712016435875000
-32.8,1712016435890625
-37.96,1712016435906250
-42.89,1712016435921875
-46.68,1712016435937500
-48.38,1712016435953125
-47.15,1712016435968750
-42.62,1712016435984375
-35.03,1712016436000000
-25.25,1712016436015625
-14.61,1712016436031250
-4.52,1712016436046875
3.92,1712016436062500
10.2,1712016436078125
14.39,1712016436093750
16.93,1712016436109375
18.37,1712016436125000
19.08,1712016436140625
19.27,1712016436156250
19.0,1712016436171875
18.37,1712016436187500
17.58,1712016436203125
16.93,1712016436218750
16.7,1712016436234375
17.03,1712016436250000
17.86,1712016436265625
18.99,1712016436281250
20.12,1712016436296875
21.01,1712016436312500
21.56,1712016436328125
21.67,1712016436343750
21.29,1712016436359375
20.27,1712016436375000
18.52,1712016436390625
16.05,1712016436406250
13.06,1712016436421875
9.89,1712016436437500
6.86,1712016436453125
4.16,1712016436468750
1.75,1712016436484375
-0.57,1712016436500000
-3.04,1712016436515625
-5.8,1712016436531250
-8.88,1712016436546875
-12.16,1712016436562500
-15.51,1712016436578125
-18.76,1712016436593750
-21.79,1712016436609375
-24.54,1712016436625000
-27.11,1712016436640625
-29.72,1712016436656250
-32.76,1712016436671875
-36.64,1712016436687500
-41.49,1712016436703125
-46.91,1712016436718750
-51.88,1712016436734375
-54.99,1712016436750000
-54.9,1712016436765625
-50.85,1712016436781250
-43.04,1712016436796875
-32.59,1712016436812500
-21.13,1712016436828125
-10.29,1712016436843750
-1.15,1712016436859375
5.9,1712016436875000
11.07,1712016436890625
14.81,1712016436906250
17.55,1712016436921875
19.54,1712016436937500
20.9,1712016436953125
21.73,1712016436968750
22.17,1712016436984375
22.42,1712016437000000
22.66,1712016437015625
23.07,1712016437031250
23.71,1712016437046875
24.6,1712016437062500
25.57,1712016437078125
26.46,1712016437093750
27.01,1712016437109375
27.1,1712016437125000
26.65,1712016437140625
25.72,1712016437156250
24.44,1712016437171875
22.84,1712016437187500
20.9,1712016437203125
18.5,1712016437218750
15.58,1712016437234375
12.24,1712016437250000
8.73,1712016437265625
5.35,1712016437281250
2.28,1712016437296875
-0.48,1712016437312500
-3.13,1712016437328125
-5.88,1712016437343750
-8.82,1712016437359375
-11.83,1712016437375000
-14.67,1712016437390625
-17.11,1712016437406250
-19.1,1712016437421875
-20.87,1712016437437500
-22.8,1712016437453125
-25.36,1712016437468750
-28.82,1712016437484375
-33.22,1712016437500000
-38.24,1712016437515625
-43.28,1712016437531250
-47.44,1712016437546875
-49.71,1712016437562500
-49.23,1712016437578125
-45.52,1712016437593750
-38.7,1712016437609375
-29.55,1712016437625000
-19.31,1712016437640625
-9.27,1712016437656250
-0.43,1712016437671875
6.76,1712016437687500
12.27,1712016437703125
16.42,1712016437718750
19.49,1712016437734375
21.64,1712016437750000
22.97,1712016437765625
23.57,1712016437781250
23.7,1712016437796875
23.75,1712016437812500
24.09,1712016437828125
24.89,1712016437843750
26.02,1712016437859375
27.14,1712016437875000
27.85,1712016437890625
28.01,1712016437906250
27.67,1712016437921875
27.1,1712016437937500
26.51,1712016437953125
25.92,1712016437968750
25.16,1712016437984375
23.94,1712016438000000
22.08,1712016438015625
19.59,1712016438031250
16.7,1712016438046875
13.74,1712016438062500
10.99,1712016438078125
8.62,1712016438093750
6.68,1712016438109375
5.08,1712016438125000
3.61,1712016438140625
2.0,1712016438156250
-0.03,1712016438171875
-2.59,1712016438187500
-5.57,1712016438203125
-8.6,1712016438218750
-11.27,1712016438234375
-13.32,1712016438250000
-14.83,1712016438265625
-16.26,1712016438281250
-18.27,1712016438296875
-21.45,1712016438312500
-26.01,1712016438328125
-31.69,1712016438343750
-37.68,1712016438359375
-42.8,1712016438375000
-45.69,1712016438390625
-45.2,1712016438406250
-40.71,1712016438421875
-32.4,1712016438437500
-21.22,1712016438453125
-8.73,1712016438468750
3.46,1712016438484375
14.07,1712016438500000
22.59,1712016438515625
29.16,1712016438531250
34.4,1712016438546875
39.01,1712016438562500
43.43,1712016438578125
47.75,1712016438593750
51.78,1712016438609375
55.25,1712016438625000
57.99,1712016438640625
60.05,1712016438656250
61.77,1712016438671875
63.6,1712016438687500
65.91,1712016438703125
68.73,1712016438718750
71.54,1712016438734375
73.46,1712016438750000
73.65,1712016438765625
71.84,1712016438781250
68.64,1712016438796875
65.44,1712016438812500
63.7,1712016438828125
64.28,1712016438843750
66.88,1712016438859375
70.32,1712016438875000
73.25,1712016438890625
75.01,1712016438906250
76.06,1712016438921875
77.65,1712016438937500
81.08,1712016438953125
86.9,1712016438968750
94.79,1712016438984375
103.85,1712016439000000
113.26,1712016439015625
122.18,1712016439031250
129.37,1712016439046875
132.46,1712016439062500
128.06,1712016439078125
112.88,1712016439093750
85.42,1712016439109375
47.38,1712016439125000
3.57,1712016439140625
-39.62,1712016439156250
-76.65,1712016439171875
-104.46,1712016439187500
-122.85,1712016439203125
-133.38,1712016439218750
-137.67,1712016439234375
-136.42,1712016439250000
-129.48,1712016439265625
-116.73,1712016439281250
-99.0,1712016439296875
-78.36,1712016439312500
-57.64,1712016439328125
-39.55,1712016439343750
-25.91,1712016439359375
-17.28,1712016439375000
-12.96,1712016439390625
-11.43,1712016439406250
-10.86,1712016439421875
-9.8,1712016439437500
-7.71,1712016439453125
-5.14,1712016439468750
-3.41,1712016439484375
-3.79,1712016439500000
-6.64,1712016439515625
-11.06,1712016439531250
-15.3,1712016439546875
-17.69,1712016439562500
-17.62,1712016439578125
-15.94,1712016439593750
-14.49,1712016439609375
-15.14,1712016439625000
-18.99,1712016439640625
-26.04,1712016439656250
-35.73,1712016439671875
-47.58,1712016439687500
-61.45,1712016439703125
-77.18,1712016439718750
-93.75,1712016439734375
-108.82,1712016439750000
-119.02,1712016439765625
-121.18,1712016439781250
-113.75,1712016439796875
-97.54,1712016439812500
-75.35,1712016439828125
-50.62,1712016439843750
-25.79,1712016439859375
-1.43,1712016439875000
23.59,1712016439890625
50.63,1712016439906250
79.85,1712016439921875
109.23,1712016439937500
134.88,1712016439953125
152.14,1712016439968750
157.11,1712016439984375
147.92,1712016440000000
125.15,1712016440015625
91.6,1712016440031250
51.34,1712016440046875
8.73,1712016440062500
-32.53,1712016440078125
-69.8,1712016440093750
-101.56,1712016440109375
-127.02,1712016440125000
-145.75,1712016440140625
-157.34,1712016440156250
-161.29,1712016440171875
-157.49,1712016440187500
-147.07,1712016440203125
-133.06,1712016440218750
-120.43,1712016440234375
-114.96,1712016440250000
-121.07,1712016440265625
-139.59,1712016440281250
-166.59,1712016440296875
-193.82,1712016440312500
-210.94,1712016440328125
-208.66,1712016440343750
-181.62,1712016440359375
-130.53,1712016440375000
-62.45,1712016440390625
10.65,1712016440406250
74.59,1712016440421875
116.19,1712016440437500
126.54,1712016440453125
103.11,1712016440468750
50.81,1712016440484375
-18.86,1712016440500000
-90.39,1712016440515625
-148.33,1712016440531250
-181.7,1712016440546875
-187.07,1712016440562500
-169.04,1712016440578125
-137.58,1712016440593750
-103.38,1712016440609375
-73.5,1712016440625000
-49.3,1712016440640625
-27.56,1712016440656250
-4.12,1712016440671875
22.43,1712016440687500
48.98,1712016440703125
69.01,1712016440718750
75.73,1712016440734375
65.18,1712016440750000
37.87,1712016440765625
-1.62,1712016440781250
-46.34,1712016440796875
-88.94,1712016440812500
-123.09,1712016440828125
-144.33,1712016440843750
-150.04,1712016440859375
-139.21,1712016440875000
-112.24,1712016440890625
-70.29,1712016440906250
-15.14,1712016440921875
50.85,1712016440937500
124.42,1712016440953125
201.11,1712016440968750
275.37,1712016440984375
341.43,1712016441000000
394.77,1712016441015625
433.33,1712016441031250
458.03,1712016441046875
471.75,1712016441062500
477.5,1712016441078125
476.69,1712016441093750
468.65,1712016441109375
451.42,1712016441125000
423.65,1712016441140625
386.44,1712016441156250
343.63,1712016441171875
300.42,1712016441187500
261.01,1712016441203125
226.65,1712016441218750
195.14,1712016441234375
162.29,1712016441250000
124.17,1712016441265625
79.2,1712016441281250
28.97,1712016441296875
-22.56,1712016441312500
-70.26,1712016441328125
-109.4,1712016441343750
-136.51,1712016441359375
-149.96,1712016441375000
-150.3,1712016441390625
-140.23,1712016441406250
-124.58,1712016441421875
-109.46,1712016441437500
-101.29,1712016441453125
-105.39,1712016441468750
-125.03,1712016441484375
-161.19,1712016441500000
-213.19,1712016441515625
-279.46,1712016441531250
-357.84,1712016441546875
-444.96,1712016441562500
-535.11,1712016441578125
-619.93,1712016441593750
-689.51,1712016441609375
-735.09,1712016441625000
-751.94,1712016441640625
-740.98,1712016441656250
-708.05,1712016441671875
-661.2,1712016441687500
-607.54,1712016441703125
-551.14,1712016441718750
-493.21,1712016441734375
-433.58,1712016441750000
-372.65,1712016441765625
-312.19,1712016441781250
-254.59,1712016441796875
-201.43,1712016441812500
-152.32,1712016441828125
-104.85,1712016441843750
-55.52,1712016441859375
-1.38,1712016441875000
58.73,1712016441890625
123.32,1712016441906250
188.12,1712016441921875
247.0,1712016441937500
293.48,1712016441953125
322.91,1712016441968750
334.38,1712016441984375
331.51,1712016442000000
321.41,1712016442015625
312.15,1712016442031250
309.78,1712016442046875
316.34,1712016442062500
329.8,1712016442078125
345.59,1712016442093750
358.88,1712016442109375
366.41,1712016442125000
367.0,1712016442140625
361.13,1712016442156250
350.04,1712016442171875
334.92,1712016442187500
316.58,1712016442203125
295.6,1712016442218750
272.46,1712016442234375
247.88,1712016442250000
223.1,1712016442265625
199.67,1712016442281250
179.12,1712016442296875
162.36,1712016442312500
149.15,1712016442328125
138.3,1712016442343750
128.7,1712016442359375
120.32,1712016442375000
114.57,1712016442390625
113.29,1712016442406250
117.03,1712016442421875
123.45,1712016442437500
127.35,1712016442453125
122.47,1712016442468750
104.33,1712016442484375
72.62,1712016442500000
31.75,1712016442515625
-10.72,1712016442531250
-46.94,1712016442546875
-71.48,1712016442562500
-82.67,1712016442578125
-82.31,1712016442593750
-74.17,1712016442609375
-62.37,1712016442625000
-50.23,1712016442640625
-39.76,1712016442656250
-31.76,1712016442671875
-26.25,1712016442687500
-22.76,1712016442703125
-20.64,1712016442718750
-19.32,1712016442734375
-18.48,1712016442750000
-18.2,1712016442765625
-18.89,1712016442781250
-21.19,1712016442796875
-25.56,1712016442812500
-32.07,1712016442828125
-40.32,1712016442843750
-49.54,1712016442859375
-58.84,1712016442875000
-67.6,1712016442890625
-75.74,1712016442906250
-83.82,1712016442921875
-92.85,1712016442937500
-103.96,1712016442953125
-117.79,1712016442968750
-134.15,1712016442984375
-151.82,1712016443000000
-168.9,1712016443015625
-183.4,1712016443031250
-193.9,1712016443046875
-200.07,1712016443062500
-202.47,1712016443078125
-202.05,1712016443093750
-199.49,1712016443109375
-194.58,1712016443125000
-186.3,1712016443140625
-173.33,1712016443156250
-155.16,1712016443171875
-132.85,1712016443187500
-109.34,1712016443203125
-88.67,1712016443218750
-74.26,1712016443234375
-67.08,1712016443250000
-64.51,1712016443265625
-60.68,1712016443281250
-48.34,1712016443296875
-21.57,1712016443312500
21.92,1712016443328125
79.71,1712016443343750
145.44,1712016443359375
210.85,1712016443375000
268.2,1712016443390625
312.11,1712016443406250
340.19,1712016443421875
352.64,1712016443437500
351.21,1712016443453125
338.06,1712016443468750
315.15,1712016443484375
284.22,1712016443500000
247.09,1712016443515625
206.12,1712016443531250
164.31,1712016443546875
124.9,1712016443562500
90.38,1712016443578125
61.62,1712016443593750
37.56,1712016443609375
16.01,1712016443625000
-4.95,1712016443640625
-25.57,1712016443656250
-44.3,1712016443671875
-58.72,1712016443687500
-67.51,1712016443703125
-71.92,1712016443718750
-75.51,1712016443734375
-82.63,1712016443750000
-96.19,1712016443765625
-116.45,1712016443781250
-141.35,1712016443796875
-167.99,1712016443812500
-193.88,1712016443828125
-217.26,1712016443843750
-236.51,1712016443859375
-249.31,1712016443875000
-252.87,1712016443890625
-245.2,1712016443906250
-226.66,1712016443921875
-200.55,1712016443937500
-172.02,1712016443953125
-145.88,1712016443968750
-124.69,1712016443984375
-108.42,1712016444000000
-95.65,1712016444015625
-85.66,1712016444031250
-79.63,1712016444046875
-80.13,1712016444062500
-89.16,1712016444078125
-106.02,1712016444093750
-126.33,1712016444109375
-142.84,1712016444125000
-147.67,1712016444140625
-134.94,1712016444156250
-102.7,1712016444171875
-53.56,1712016444187500
6.04,1712016444203125
67.41,1712016444218750
121.66,1712016444234375
161.76,1712016444250000
184.0,1712016444265625
188.65,1712016444281250
179.35,1712016444296875
161.26,1712016444312500
139.31,1712016444328125
116.66,1712016444343750
94.62,1712016444359375
73.48,1712016444375000
53.56,1712016444390625
35.73,1712016444406250
20.88,1712016444421875
8.94,1712016444437500
-1.8,1712016444453125
-14.1,1712016444468750
-30.29,1712016444484375
-50.54,1712016444500000
-72.08,1712016444515625
-89.96,1712016444531250
-98.94,1712016444546875
-95.72,1712016444562500
-80.28,1712016444578125
-55.91,1712016444593750
-27.7,1712016444609375
-0.61,1712016444625000
22.3,1712016444640625
40.35,1712016444656250
54.78,1712016444671875
67.33,1712016444687500
78.9,1712016444703125
88.89,1712016444718750
95.47,1712016444734375
96.67,1712016444750000
91.62,1712016444765625
81.07,1712016444781250
67.37,1712016444796875
53.46,1712016444812500
41.84,1712016444828125
33.82,1712016444843750
29.39,1712016444859375
27.72,1712016444875000
27.59,1712016444890625
27.82,1712016444906250
27.38,1712016444921875
25.53,1712016444937500
21.98,1712016444953125
17.27,1712016444968750
12.92,1712016444984375
11.14,1712016445000000
14.04,1712016445015625
22.64,1712016445031250
36.21,1712016445046875
52.39,1712016445062500
67.93,1712016445078125
79.73,1712016445093750
85.77,1712016445109375
85.37,1712016445125000
79.11,1712016445140625
68.25,1712016445156250
54.26,1712016445171875
38.57,1712016445187500
22.48,1712016445203125
7.19,1712016445218750
-6.22,1712016445234375
-16.76,1712016445250000
-23.59,1712016445265625
-26.28,1712016445281250
-24.94,1712016445296875
-20.31,1712016445312500
-13.57,1712016445328125
-6.02,1712016445343750
1.33,1712016445359375
7.91,1712016445375000
13.35,1712016445390625
17.21,1712016445406250
18.65,1712016445421875
16.85,1712016445437500
11.6,1712016445453125
3.76,1712016445468750
-4.58,1712016445484375
-10.8,1712016445500000
-12.6,1712016445515625
-8.77,1712016445531250
0.57,1712016445546875
14.54,1712016445562500
31.98,1712016445578125
51.71,1712016445593750
72.29,1712016445609375
91.7,1712016445625000
107.46,1712016445640625
117.35,1712016445656250
120.39,1712016445671875
117.48,1712016445687500
111.07,1712016445703125
104.1,1712016445718750
98.65,1712016445734375
95.07,1712016445750000
92.2,1712016445765625
88.28,1712016445781250
82.06,1712016445796875
73.52,1712016445812500
63.88,1712016445828125
54.72,1712016445843750
47.12,1712016445859375
41.04,1712016445875000
35.44,1712016445890625
28.92,1712016445906250
20.34,1712016445921875
9.17,1712016445937500
-4.62,1712016445953125
-20.89,1712016445968750
-39.41,1712016445984375
-59.69,1712016446000000
-80.46,1712016446015625
-99.62,1712016446031250
-114.58,1712016446046875
-123.22,1712016446062500
-124.78,1712016446078125
-120.18,1712016446093750
-111.54,1712016446109375
-101.44,1712016446125000
-92.22,1712016446140625
-85.79,1712016446156250
-83.84,1712016446171875
-87.71,1712016446187500
-97.82,1712016446203125
-112.91,1712016446218750
-129.75,1712016446234375
-143.99,1712016446250000
-151.86,1712016446265625
-151.88,1712016446281250
-145.55,1712016446296875
-136.39,1712016446312500
-128.0,1712016446328125
-122.3,1712016446343750
-118.67,1712016446359375
-114.56,1712016446375000
-106.92,1712016446390625
-93.73,1712016446406250
-74.84,1712016446421875
-52.27,1712016446437500
-29.73,1712016446453125
-11.77,1712016446468750
-2.53,1712016446484375
-4.23,1712016446500000
-16.04,1712016446515625
-33.62,1712016446531250
-50.79,1712016446546875
-61.65,1712016446562500
-62.93,1712016446578125
-54.92,1712016446593750
-41.0,1712016446609375
-25.94,1712016446625000
-14.18,1712016446640625
-8.61,1712016446656250
-10.08,1712016446671875
-18.05,1712016446687500
-30.84,1712016446703125
-45.41,1712016446718750
-57.17,1712016446734375
-60.63,1712016446750000
-51.36,1712016446765625
-28.3,1712016446781250
4.82,1712016446796875
41.02,1712016446812500
72.18,1712016446828125
92.58,1712016446843750
101.46,1712016446859375
103.18,1712016446875000
104.81,1712016446890625
112.22,1712016446906250
127.23,1712016446921875
147.23,1712016446937500
168.76,1712016446953125
188.23,1712016446968750
203.33,1712016446984375
213.33,1712016447000000
218.77,1712016447015625
220.45,1712016447031250
218.51,1712016447046875
212.45,1712016447062500
202.04,1712016447078125
191.63,1712016447093750
185.61,1712016447109375
186.32,1712016447125000
192.81,1712016447140625
201.84,1712016447156250
209.22,1712016447171875
210.88,1712016447187500
203.97,1712016447203125
187.98,1712016447218750
170.87,1712016447234375
160.9,1712016447250000
162.8,1712016447265625
176.2,1712016447281250
197.55,1712016447296875
222.48,1712016447312500
247.23,1712016447328125
269.52,1712016447343750
289.2,1712016447359375
315.23,1712016447375000
354.62,1712016447390625
407.48,1712016447406250
466.38,1712016447421875
521.08,1712016447437500
563.36,1712016447453125
589.42,1712016447468750
599.67,1712016447484375
552.21,1712016447500000
429.74,1712016447515625
245.97,1712016447531250
38.85,1712016447546875
-154.56,1712016447562500
-312.72,1712016447578125
-428.04,1712016447593750
-500.93,1712016447609375
-537.36,1712016447625000
-548.2,1712016447640625
-539.71,1712016447656250
-519.1,1712016447671875
-493.57,1712016447687500
-469.64,1712016447703125
-448.3,1712016447718750
-427.6,1712016447734375
-405.62,1712016447750000
-382.77,1712016447765625
-361.81,1712016447781250
-340.44,1712016447796875
-316.76,1712016447812500
-290.66,1712016447828125
-263.91,1712016447843750
-238.26,1712016447859375
-214.63,1712016447875000
-193.16,1712016447890625
-173.88,1712016447906250
-156.99,1712016447921875
-139.04,1712016447937500
-117.55,1712016447953125
-92.8,1712016447968750
-68.19,1712016447984375
-48.03,1712016448000000
-35.54,1712016448015625
-31.39,1712016448031250
-33.62,1712016448046875
-38.32,1712016448062500
-39.51,1712016448078125
-32.88,1712016448093750
-17.49,1712016448109375
4.69,1712016448125000
30.88,1712016448140625
58.96,1712016448156250
87.89,1712016448171875
116.75,1712016448187500
143.75,1712016448203125
166.67,1712016448218750
182.7,1712016448234375
189.57,1712016448250000
186.55,1712016448265625
175.04,1712016448281250
158.08,1712016448296875
139.21,1712016448312500
121.39,1712016448328125
106.51,1712016448343750
95.08,1712016448359375
86.29,1712016448375000
78.47,1712016448390625
69.59,1712016448406250
58.23,1712016448421875
44.19,1712016448437500
28.57,1712016448453125
13.13,1712016448468750
-0.48,1712016448484375
-11.35,1712016448500000
-19.19,1712016448515625
-23.68,1712016448531250
-23.87,1712016448546875
-18.18,1712016448562500
-5.05,1712016448578125
15.93,1712016448593750
43.2,1712016448609375
73.34,1712016448625000
102.27,1712016448640625
126.66,1712016448656250
145.07,1712016448671875
157.97,1712016448687500
166.84,1712016448703125
172.82,1712016448718750
175.83,1712016448734375
174.62,1712016448750000
167.63,1712016448765625
154.08,1712016448781250
134.67,1712016448796875
111.4,1712016448812500
86.56,1712016448828125
61.69,1712016448843750
36.99,1712016448859375
11.5,1712016448875000
-15.92,1712016448890625
-45.72,1712016448906250
-77.24,1712016448921875
-108.97,1712016448937500
-139.13,1712016448953125
-166.44,1712016448968750
-190.24,1712016448984375
-210.36,1712016449000000
-226.87,1712016449015625
-239.87,1712016449031250
-249.53,1712016449046875
-256.33,1712016449062500
-261.09,1712016449078125
-264.76,1712016449093750
-267.95,1712016449109375
-270.57,1712016449125000
-271.77,1712016449140625
-270.17,1712016449156250
-264.56,1712016449171875
-254.31,1712016449187500
-239.77,1712016449203125
-222.12,1712016449218750
-203.08,1712016449234375
-184.32,1712016449250000
-167.06,1712016449265625
-151.64,1712016449281250
-137.41,1712016449296875
-122.9,1712016449312500
-106.23,1712016449328125
-85.8,1712016449343750
-60.99,1712016449359375
-32.51,1712016449375000
-2.26,1712016449390625
27.19,1712016449406250
53.43,1712016449421875
74.94,1712016449437500
91.29,1712016449453125
103.04,1712016449468750
111.22,1712016449484375
116.62,1712016449500000
119.43,1712016449515625
119.13,1712016449531250
114.91,1712016449546875
106.3,1712016449562500
93.68,1712016449578125
78.32,1712016449593750
62.03,1712016449609375
46.6,1712016449625000
33.25,1712016449640625
22.67,1712016449656250
15.17,1712016449671875
11.0,1712016449687500
10.36,1712016449703125
13.11,1712016449718750
18.55,1712016449734375
25.28,1712016449750000
31.6,1712016449765625
36.06,1712016449781250
38.06,1712016449796875
37.88,1712016449812500
36.43,1712016449828125
34.76,1712016449843750
33.45,1712016449859375
32.48,1712016449875000
31.27,1712016449890625
29.05,1712016449906250
25.25,1712016449921875
19.77,1712016449937500
13.16,1712016449953125
6.3,1712016449968750
0.09,1712016449984375
-5.11,1712016450000000
-9.78,1712016450015625
-15.14,1712016450031250
-22.77,1712016450046875
-33.89,1712016450062500
-48.76,1712016450078125
-66.31,1712016450093750
-84.3,1712016450109375
-99.88,1712016450125000
-110.29,1712016450140625
-113.67,1712016450156250
-109.58,1712016450171875
-99.16,1712016450187500
-84.89,1712016450203125
-69.8,1712016450218750
-56.56,1712016450234375
-46.52,1712016450250000
-39.4,1712016450265625
-33.53,1712016450281250
-26.65,1712016450296875
-16.89,1712016450312500
-3.55,1712016450328125
12.88,1712016450343750
31.03,1712016450359375
49.32,1712016450375000
66.53,1712016450390625
81.98,1712016450406250
95.46,1712016450421875
106.94,1712016450437500
116.42,1712016450453125
123.93,1712016450468750
129.69,1712016450484375
134.09,1712016450500000
137.63,1712016450515625
140.62,1712016450531250
143.03,1712016450546875
144.59,1712016450562500
144.99,1712016450578125
144.28,1712016450593750
142.79,1712016450609375
140.97,1712016450625000
138.9,1712016450640625
136.16,1712016450656250
131.83,1712016450671875
125.02,1712016450687500
115.09,1712016450703125
101.79,1712016450718750
84.93,1712016450734375
64.06,1712016450750000
38.64,1712016450765625
8.47,1712016450781250
-25.38,1712016450796875
-60.38,1712016450812500
-93.03,1712016450828125
-120.02,1712016450843750
-139.39,1712016450859375
-151.19,1712016450875000
-157.26,1712016450890625
-160.39,1712016450906250
-163.24,1712016450921875
-167.34,1712016450937500
-172.78,1712016450953125
-178.37,1712016450968750
-182.29,1712016450984375
-182.66,1712016451000000
-178.11,1712016451015625
-167.98,1712016451031250
-152.52,1712016451046875
-132.94,1712016451062500
-111.49,1712016451078125
-91.1,1712016451093750
-74.69,1712016451109375
-64.07,1712016451125000
-58.89,1712016451140625
-56.45,1712016451156250
-52.2,1712016451171875
-41.34,1712016451187500
-21.04,1712016451203125
7.69,1712016451218750
39.65,1712016451234375
66.9,1712016451250000
81.71,1712016451265625
79.84,1712016451281250
62.84,1712016451296875
37.95,1712016451312500
15.61,1712016451328125
5.18,1712016451343750
10.93,1712016451359375
30.03,1712016451375000
53.82,1712016451390625
71.6,1712016451406250
75.4,1712016451421875
63.25,1712016451437500
39.43,1712016451453125
11.86,1712016451468750
-11.93,1712016451484375
-27.99,1712016451500000
-36.95,1712016451515625
-42.56,1712016451531250
-48.73,1712016451546875
-57.02,1712016451562500
-65.91,1712016451578125
-72.16,1712016451593750
-73.26,1712016451609375
-69.32,1712016451625000
-62.87,1712016451640625
-56.99,1712016451656250
-52.68,1712016451671875
-47.33,1712016451687500
-35.56,1712016451703125
-11.87,1712016451718750
26.14,1712016451734375
75.97,1712016451750000
130.87,1712016451765625
182.49,1712016451781250
224.31,1712016451796875
253.7,1712016451812500
272.04,1712016451828125
282.73,1712016451843750
288.73,1712016451859375
290.85,1712016451875000
287.72,1712016451890625
277.22,1712016451906250
258.3,1712016451921875
232.17,1712016451937500
202.14,1712016451953125
172.46,1712016451968750
146.64,1712016451984375
126.42,1712016452000000
111.55,1712016452015625
100.37,1712016452031250
90.76,1712016452046875
80.9,1712016452062500
69.66,1712016452078125
56.71,1712016452093750
42.42,1712016452109375
27.74,1712016452125000
13.94,1712016452140625
2.26,1712016452156250
-6.55,1712016452171875
-12.53,1712016452187500
-16.53,1712016452203125
-19.95,1712016452218750
-24.09,1712016452234375
-29.55,1712016452250000
-35.79,1712016452265625
-41.2,1712016452281250
-43.51,1712016452296875
-40.53,1712016452312500
-31.0,1712016452328125
-15.2,1712016452343750
4.96,1712016452359375
26.33,1712016452375000
45.38,1712016452390625
59.14,1712016452406250
66.03,1712016452421875
66.22,1712016452437500
61.27,1712016452453125
53.24,1712016452468750
43.63,1712016452484375
32.41,1712016452500000
17.58,1712016452515625
-4.25,1712016452531250
-36.22,1712016452546875
-79.08,1712016452562500
-129.7,1712016452578125
-180.83,1712016452593750
-222.91,1712016452609375
-247.13,1712016452625000
-248.79,1712016452640625
-229.23,1712016452656250
-195.93,1712016452671875
-159.97,1712016452687500
-132.31,1712016452703125
-120.14,1712016452718750
-124.79,1712016452734375
-142.25,1712016452750000
-165.88,1712016452765625
-189.89,1712016452781250
-211.56,1712016452796875
-231.36,1712016452812500
-250.96,1712016452828125
-270.56,1712016452843750
-287.3,1712016452859375
-296.01,1712016452875000
-291.79,1712016452890625
-272.97,1712016452906250
-242.34,1712016452921875
-205.91,1712016452937500
-170.18,1712016452953125
-139.16,1712016452968750
-113.18,1712016452984375
-89.73,1712016453000000
-65.53,1712016453015625
-38.61,1712016453031250
-9.35,1712016453046875
19.79,1712016453062500
45.63,1712016453078125
65.69,1712016453093750
79.05,1712016453109375
86.46,1712016453125000
89.49,1712016453140625
89.46,1712016453156250
86.54,1712016453171875
79.84,1712016453187500
68.53,1712016453203125
53.22,1712016453218750
36.81,1712016453234375
23.79,1712016453250000
18.29,1712016453265625
21.86,1712016453281250
32.33,1712016453296875
44.39,1712016453312500
51.5,1712016453328125
48.19,1712016453343750
31.95,1712016453359375
3.97,1712016453375000
-31.05,1712016453390625
-66.04,1712016453406250
-93.34,1712016453421875
-106.86,1712016453437500
-104.42,1712016453453125
-89.19,1712016453468750
-69.32,1712016453484375
-55.78,1712016453500000
-58.58,1712016453515625
-82.98,1712016453531250
-127.54,1712016453546875
-184.83,1712016453562500
-244.28,1712016453578125
-295.66,1712016453593750
-331.64,1712016453609375
-348.67,1712016453625000
-346.29,1712016453640625
-325.96,1712016453656250
-290.07,1712016453671875
-241.81,1712016453687500
-185.47,1712016453703125
-126.51,1712016453718750
-71.22,1712016453734375
-25.51,1712016453750000
6.38,1712016453765625
23.04,1712016453781250
26.34,1712016453796875
21.16,1712016453812500
14.14,1712016453828125
11.71,1712016453843750
17.99,1712016453859375
33.41,1712016453875000
54.82,1712016453890625
77.24,1712016453906250
96.4,1712016453921875
110.79,1712016453937500
121.94,1712016453953125
132.9,1712016453968750
145.99,1712016453984375
161.19,1712016454000000
176.17,1712016454015625
188.1,1712016454031250
195.68,1712016454046875
200.28,1712016454062500
205.46,1712016454078125
215.15,1712016454093750
231.6,1712016454109375
254.39,1712016454125000
280.46,1712016454140625
305.18,1712016454156250
323.94,1712016454171875
333.33,1712016454187500
331.85,1712016454203125
320.17,1712016454218750
300.64,1712016454234375
276.4,1712016454250000
250.33,1712016454265625
224.25,1712016454281250
198.58,1712016454296875
172.82,1712016454312500
146.59,1712016454328125
120.49,1712016454343750
96.53,1712016454359375
77.38,1712016454375000
65.05,1712016454390625
59.59,1712016454406250
58.59,1712016454421875
57.98,1712016454437500
53.66,1712016454453125
43.07,1712016454468750
26.01,1712016454484375
4.05,1712016454500000
-20.86,1712016454515625
-47.69,1712016454531250
-76.76,1712016454546875
-109.05,1712016454562500
-144.84,1712016454578125
-182.61,1712016454593750
-218.95,1712016454609375
-249.29,1712016454625000
-269.44,1712016454640625
-277.0,1712016454656250
-271.95,1712016454671875
-256.45,1712016454687500
-233.93,1712016454703125
-208.16,1712016454718750
-182.36,1712016454734375
-158.85,1712016454750000
-138.89,1712016454765625
-122.79,1712016454781250
-109.94,1712016454796875
-99.21,1712016454812500
-89.28,1712016454828125
-79.18,1712016454843750
-68.66,1712016454859375
-58.12,1712016454875000
-48.23,1712016454890625
-39.15,1712016454906250
-30.17,1712016454921875
-19.85,1712016454937500
-6.71,1712016454953125
9.82,1712016454968750
28.76,1712016454984375
47.7,1712016455000000
63.45,1712016455015625
73.2,1712016455031250
75.45,1712016455046875
70.45,1712016455062500
60.08,1712016455078125
47.06,1712016455093750
34.05,1712016455109375
22.8,1712016455125000
13.86,1712016455140625
6.95,1712016455156250
1.52,1712016455171875
-2.64,1712016455187500
-5.25,1712016455203125
-5.87,1712016455218750
-4.49,1712016455234375
-1.88,1712016455250000
0.57,1712016455265625
1.5,1712016455281250
0.26,1712016455296875
-2.85,1712016455312500
-6.95,1712016455328125
-11.13,1712016455343750
-15.05,1712016455359375
-18.72,1712016455375000
-22.24,1712016455390625
-25.16,1712016455406250
-26.44,1712016455421875
-24.84,1712016455437500
-19.65,1712016455453125
-11.06,1712016455468750
-0.21,1712016455484375
11.26,1712016455500000
21.86,1712016455515625
30.56,1712016455531250
36.78,1712016455546875
40.11,1712016455562500
39.98,1712016455578125
35.73,1712016455593750
27.09,1712016455609375
14.81,1712016455625000
1.0,1712016455640625
-10.95,1712016455656250
-17.38,1712016455671875
-15.56,1712016455687500
-4.79,1712016455703125
13.25,1712016455718750
35.14,1712016455734375
57.04,1712016455750000
76.05,1712016455765625
91.08,1712016455781250
102.76,1712016455796875
112.72,1712016455812500
122.63,1712016455828125
133.36,1712016455843750
144.71,1712016455859375
155.59,1712016455875000
164.49,1712016455890625
169.98,1712016455906250
171.15,1712016455921875
167.74,1712016455937500
159.95,1712016455953125
148.03,1712016455968750
131.83,1712016455984375
110.69,1712016456000000
83.61,1712016456015625
49.81,1712016456031250
9.4,1712016456046875
-36.09,1712016456062500
-83.69,1712016456078125
-129.4,1712016456093750
-169.02,1712016456109375
-199.0,1712016456125000
-217.31,1712016456140625
-223.93,1712016456156250
-220.77,1712016456171875
-211.05,1712016456187500
-198.2,1712016456203125
-184.79,1712016456218750
-171.85,1712016456234375
-159.03,1712016456250000
-145.26,1712016456265625
-129.7,1712016456281250
-112.17,1712016456296875
-93.09,1712016456312500
-73.05,1712016456328125
-52.41,1712016456343750
-31.26,1712016456359375
-9.83,1712016456375000
11.12,1712016456390625
30.21,1712016456406250
45.87,1712016456421875
57.05,1712016456437500
63.7,1712016456453125
66.75,1712016456468750
67.66,1712016456484375
67.88,1712016456500000
68.52,1712016456515625
70.37,1712016456531250
74.1,1712016456546875
80.38,1712016456562500
89.81,1712016456578125
102.81,1712016456593750
119.3,1712016456609375
138.71,1712016456625000
159.9,1712016456640625
181.3,1712016456656250
201.04,1712016456671875
217.25,1712016456687500
228.32,1712016456703125
233.17,1712016456718750
231.38,1712016456734375
223.18,1712016456750000
209.25,1712016456765625
190.57,1712016456781250
168.44,1712016456796875
144.58,1712016456812500
121.02,1712016456828125
99.71,1712016456843750
81.99,1712016456859375
68.2,1712016456875000
57.7,1712016456890625
49.37,1712016456906250
42.24,1712016456921875
35.85,1712016456937500
30.14,1712016456953125
25.04,1712016456968750
20.01,1712016456984375
14.14,1712016457000000
6.51,1712016457015625
-2.98,1712016457031250
-13.37,1712016457046875
-22.92,1712016457062500
-29.91,1712016457078125
-33.52,1712016457093750
-34.21,1712016457109375
-33.27,1712016457125000
-32.13,1712016457140625
-31.54,1712016457156250
-31.34,1712016457171875
-30.68,1712016457187500
-28.66,1712016457203125
-24.77,1712016457218750
-19.05,1712016457234375
-12.0,1712016457250000
-4.33,1712016457265625
3.2,1712016457281250
9.89,1712016457296875
15.27,1712016457312500
19.3,1712016457328125
22.44,1712016457343750
25.47,1712016457359375
28.97,1712016457375000
32.86,1712016457390625
36.15,1712016457406250
37.33,1712016457421875
35.1,1712016457437500
29.01,1712016457453125
19.55,1712016457468750
7.76,1712016457484375
-5.32,1712016457500000
-19.13,1712016457515625
-33.31,1712016457531250
-47.24,1712016457546875
-59.6,1712016457562500
-68.48,1712016457578125
-72.06,1712016457593750
-69.49,1712016457609375
-61.25,1712016457625000
-49.0,1712016457640625
-34.86,1712016457656250
-20.66,1712016457671875
-7.62,1712016457687500
3.51,1712016457703125
12.18,1712016457718750
17.89,1712016457734375
20.43,1712016457750000
20.11,1712016457765625
17.75,1712016457781250
14.3,1712016457796875
10.29,1712016457812500
5.55,1712016457828125
-0.6,1712016457843750
-8.72,1712016457859375
-18.71,1712016457875000
-29.6,1712016457890625
-39.88,1712016457906250
-48.13,1712016457921875
-53.5,1712016457937500
-55.77,1712016457953125
-55.17,1712016457968750
-52.21,1712016457984375
-47.63,1712016458000000
-42.48,1712016458015625
-38.15,1712016458031250
-35.94,1712016458046875
-36.49,1712016458062500
-39.46,1712016458078125
-43.63,1712016458093750
-47.63,1712016458109375
-50.84,1712016458125000
-53.7,1712016458140625
-57.28,1712016458156250
-62.25,1712016458171875
-67.86,1712016458187500
-71.85,1712016458203125
-71.54,1712016458218750
-65.41,1712016458234375
-54.42,1712016458250000
-41.82,1712016458265625
-31.56,1712016458281250
-26.15,1712016458296875
-25.1,1712016458312500
-24.99,1712016458328125
-21.11,1712016458343750
-9.81,1712016458359375
9.7,1712016458375000
34.94,1712016458390625
61.28,1712016458406250
83.74,1712016458421875
98.67,1712016458437500
104.58,1712016458453125
102.08,1712016458468750
93.03,1712016458484375
79.8,1712016458500000
64.69,1712016458515625
49.69,1712016458531250
36.51,1712016458546875
26.54,1712016458562500
20.75,1712016458578125
19.48,1712016458593750
22.33,1712016458609375
28.14,1712016458625000
35.14,1712016458640625
41.46,1712016458656250
45.41,1712016458671875
45.8,1712016458687500
42.02,1712016458703125
34.05,1712016458718750
22.31,1712016458734375
7.56,1712016458750000
-9.21,1712016458765625
-26.71,1712016458781250
-43.35,1712016458796875
-57.4,1712016458812500
-67.45,1712016458828125
-73.04,1712016458843750
-75.23,1712016458859375
-76.53,1712016458875000
-79.96,1712016458890625
-87.62,1712016458906250
-99.6,1712016458921875
-113.88,1712016458937500
-127.59,1712016458953125
-138.58,1712016458968750
-146.51,1712016458984375
-152.55,1712016459000000
-158.13,1712016459015625
-163.56,1712016459031250
-167.58,1712016459046875
-168.28,1712016459062500
-164.45,1712016459078125
-156.77,1712016459093750
-147.74,1712016459109375
-140.67,1712016459125000
-138.4,1712016459140625
-142.22,1712016459156250
-151.49,1712016459171875
-163.95,1712016459187500
-176.41,1712016459203125
-185.64,1712016459218750
-189.41,1712016459234375
-187.1,1712016459250000
-179.62,1712016459265625
-168.62,1712016459281250
-155.1,1712016459296875
-138.36,1712016459312500
-115.86,1712016459328125
-84.43,1712016459343750
-42.15,1712016459359375
9.88,1712016459375000
67.08,1712016459390625
122.49,1712016459406250
169.12,1712016459421875
202.21,1712016459437500
220.42,1712016459453125
225.46,1712016459468750
220.27,1712016459484375
207.18,1712016459500000
187.19,1712016459515625
160.9,1712016459531250
130.25,1712016459546875
99.75,1712016459562500
75.84,1712016459578125
64.27,1712016459593750
67.15,1712016459609375
81.32,1712016459625000
99.58,1712016459640625
113.95,1712016459656250
119.48,1712016459671875
116.08,1712016459687500
107.83,1712016459703125
100.13,1712016459718750
96.64,1712016459734375
97.83,1712016459750000
101.49,1712016459765625
104.65,1712016459781250
105.43,1712016459796875
103.81,1712016459812500
101.09,1712016459828125
98.66,1712016459843750
97.04,1712016459859375
95.58,1712016459875000
92.93,1712016459890625
87.92,1712016459906250
80.28,1712016459921875
70.91,1712016459937500
61.51,1712016459953125
53.84,1712016459968750
48.94,1712016459984375
46.74,1712016460000000
46.06,1712016460015625
45.28,1712016460031250
43.08,1712016460046875
38.95,1712016460062500
33.35,1712016460078125
27.25,1712016460093750
21.5,1712016460109375
16.33,1712016460125000
11.35,1712016460140625
5.81,1712016460156250
-0.78,1712016460171875
-8.32,1712016460187500
-16.21,1712016460203125
-23.68,1712016460218750
-30.3,1712016460234375
-36.15,1712016460250000
-41.74,1712016460265625
-47.55,1712016460281250
-53.54,1712016460296875
-58.95,1712016460312500
-62.49,1712016460328125
-62.82,1712016460343750
-59.19,1712016460359375
-51.74,1712016460375000
-41.55,1712016460390625
-30.25,1712016460406250
-19.41,1712016460421875
-10.07,1712016460437500
-2.52,1712016460453125
3.55,1712016460468750
8.61,1712016460484375
13.01,1712016460500000
16.73,1712016460515625
19.54,1712016460531250
21.26,1712016460546875
21.98,1712016460562500
22.07,1712016460578125
21.98,1712016460593750
22.0,1712016460609375
22.12,1712016460625000
22.06,1712016460640625
21.53,1712016460656250
20.41,1712016460671875
18.89,1712016460687500
17.29,1712016460703125
15.88,1712016460718750
14.66,1712016460734375
13.34,1712016460750000
11.41,1712016460765625
8.42,1712016460781250
4.21,1712016460796875
-1.04,1712016460812500
-6.8,1712016460828125
-12.48,1712016460843750
-17.59,1712016460859375
-21.95,1712016460875000
-25.75,1712016460890625
-29.45,1712016460906250
-33.59,1712016460921875
-38.64,1712016460937500
-44.74,1712016460953125
-51.58,1712016460968750
-58.38,1712016460984375
-63.95,1712016461000000
-66.92,1712016461015625
-66.18,1712016461031250
-61.19,1712016461046875
-52.26,1712016461062500
-40.53,1712016461078125
-27.68,1712016461093750
-15.35,1712016461109375
-4.73,1712016461125000
3.68,1712016461140625
10.07,1712016461156250
14.96,1712016461171875
18.85,1712016461187500
22.05,1712016461203125
24.53,1712016461218750
26.14,1712016461234375
26.8,1712016461250000
26.62,1712016461265625
25.95,1712016461281250
25.25,1712016461296875
24.9,1712016461312500
25.05,1712016461328125
25.56,1712016461343750
26.11,1712016461359375
26.41,1712016461375000
26.28,1712016461390625
25.77,1712016461406250
24.95,1712016461421875
23.8,1712016461437500
22.13,1712016461453125
19.63,1712016461468750
16.05,1712016461484375
11.33,1712016461500000
5.79,1712016461515625
-0.09,1712016461531250
-5.72,1712016461546875
-10.67,1712016461562500
-14.73,1712016461578125
-17.97,1712016461593750
-20.73,1712016461609375
-23.51,1712016461625000
-26.92,1712016461640625
-31.49,1712016461656250
-37.45,1712016461671875
-44.56,1712016461687500
-51.98,1712016461703125
-58.29,1712016461718750
-61.9,1712016461734375
-61.45,1712016461750000
-56.29,1712016461765625
-46.78,1712016461781250
-34.24,1712016461796875
-20.54,1712016461812500
-7.52,1712016461828125
3.52,1712016461843750
12.11,1712016461859375
18.44,1712016461875000
23.1,1712016461890625
26.63,1712016461906250
29.28,1712016461921875
31.06,1712016461937500
31.87,1712016461953125
31.78,1712016461968750
31.02,1712016461984375
30.02,1712016462000000
29.22,1712016462015625
28.89,1712016462031250
29.09,1712016462046875
29.65,1712016462062500
30.26,1712016462078125
30.64,1712016462093750
30.58,1712016462109375
30.05,1712016462125000
29.09,1712016462140625
27.77,1712016462156250
26.06,1712016462171875
23.87,1712016462187500
21.06,1712016462203125
17.54,1712016462218750
13.36,1712016462234375
8.7,1712016462250000
3.83,1712016462265625
-0.94,1712016462281250
-5.38,1712016462296875
-9.36,1712016462312500
-12.83,1712016462328125
-15.87,1712016462343750
-18.65,1712016462359375
-21.44,1712016462375000
-24.59,1712016462390625
-28.44,1712016462406250
-33.12,1712016462421875
-38.46,1712016462437500
-43.81,1712016462453125
-48.09,1712016462468750
-50.06,1712016462484375
-48.63,1712016462500000
-43.34,1712016462515625
-34.55,1712016462531250
-23.41,1712016462546875
-11.53,1712016462562500
-0.48,1712016462578125
8.67,1712016462593750
15.49,1712016462609375
20.18,1712016462625000
23.23,1712016462640625
25.18,1712016462656250
26.4,1712016462671875
27.06,1712016462687500
27.31,1712016462703125
27.28,1712016462718750
27.14,1712016462734375
27.11,1712016462750000
27.33,1712016462765625
27.83,1712016462781250
28.45,1712016462796875
28.97,1712016462812500
29.12,1712016462828125
28.74,1712016462843750
27.82,1712016462859375
26.48,1712016462875000
24.88,1712016462890625
23.17,1712016462906250
21.39,1712016462921875
19.46,1712016462937500
17.23,1712016462953125
14.52,1712016462968750
11.23,1712016462984375
7.35,1712016463000000
3.03,1712016463015625
-1.45,1712016463031250
-5.73,1712016463046875
-9.5,1712016463062500
-12.58,1712016463078125
-15.0,1712016463093750
-16.98,1712016463109375
-18.87,1712016463125000
-21.05,1712016463140625
-23.85,1712016463156250
-27.5,1712016463171875
-32.05,1712016463187500
-37.22,1712016463203125
-42.35,1712016463218750
-46.4,1712016463234375
-48.18,1712016463250000
-46.71,1712016463265625
-41.58,1712016463281250
-33.18,1712016463296875
-22.65,1712016463312500
-11.51,1712016463328125
-1.24,1712016463343750
7.17,1712016463359375
13.39,1712016463375000
17.6,1712016463390625
20.32,1712016463406250
22.05,1712016463421875
23.1,1712016463437500
23.57,1712016463453125
23.48,1712016463468750
22.87,1712016463484375
21.89,1712016463500000
20.8,1712016463515625
19.86,1712016463531250
19.21,1712016463546875
18.79,1712016463562500
18.39,1712016463578125
17.73,1712016463593750
16.66,1712016463609375
15.14,1712016463625000
13.35,1712016463640625
11.49,1712016463656250
9.76,1712016463671875
8.17,1712016463687500
6.58,1712016463703125
4.71,1712016463718750
2.33,1712016463734375
-0.65,1712016463750000
-4.15,1712016463765625
-7.89,1712016463781250
-11.61,1712016463796875
-15.08,1712016463812500
-18.24,1712016463828125
-21.14,1712016463843750
-23.95,1712016463859375
-26.87,1712016463875000
-30.18,1712016463890625
-34.2,1712016463906250
-39.14,1712016463921875
-44.97,1712016463937500
-51.2,1712016463953125
-56.83,1712016463968750
-60.5,1712016463984375
-60.9,1712016464000000
-57.22,1712016464015625
-49.48,1712016464031250
-38.53,1712016464046875
-25.76,1712016464062500
-12.62,1712016464078125
-0.23,1712016464093750
10.75,1712016464109375
20.01,1712016464125000
27.38,1712016464140625
32.7,1712016464156250
35.81,1712016464171875
36.76,1712016464187500
35.88,1712016464203125
33.88,1712016464218750
31.61,1712016464234375
29.84,1712016464250000
28.99,1712016464265625
29.06,1712016464281250
29.68,1712016464296875
30.31,1712016464312500
30.49,1712016464328125
29.91,1712016464343750
28.54,1712016464359375
26.52,1712016464375000
24.08,1712016464390625
21.39,1712016464406250
18.48,1712016464421875
15.26,1712016464437500
11.6,1712016464453125
7.42,1712016464468750
2.85,1712016464484375
-1.86,1712016464500000
-6.33,1712016464515625
-10.26,1712016464531250
-13.52,1712016464546875
-16.13,1712016464562500
-18.26,1712016464578125
-20.17,1712016464593750
-22.18,1712016464609375
-24.63,1712016464625000
-27.87,1712016464640625
-32.16,1712016464656250
-37.51,1712016464671875
-43.5,1712016464687500
-49.18,1712016464703125
-53.25,1712016464718750
-54.33,1712016464734375
-51.51,1712016464750000
-44.65,1712016464765625
-34.57,1712016464781250
-22.77,1712016464796875
-10.98,1712016464812500
-0.63,1712016464828125
7.51,1712016464843750
13.39,1712016464859375
17.41,1712016464875000
20.06,1712016464890625
21.67,1712016464906250
22.33,1712016464921875
22.01,1712016464937500
20.82,1712016464953125
19.08,1712016464968750
17.3,1712016464984375
15.99,1712016465000000
15.46,1712016465015625
15.7,1712016465031250
16.48,1712016465046875
17.38,1712016465062500
18.06,1712016465078125
18.29,1712016465093750
18.02,1712016465109375
17.31,1712016465125000
16.26,1712016465140625
14.91,1712016465156250
13.2,1712016465171875
11.05,1712016465187500
8.36,1712016465203125
5.13,1712016465218750
1.5,1712016465234375
-2.31,1712016465250000
-6.02,1712016465265625
-9.39,1712016465281250
-12.28,1712016465296875
-14.66,1712016465312500
-16.7,1712016465328125
-18.7,1712016465343750
-21.08,1712016465359375
-24.28,1712016465375000
-28.58,1712016465390625
-33.85,1712016465406250
-39.51,1712016465421875
-44.47,1712016465437500
-47.42,1712016465453125
-47.24,1712016465468750
-43.37,1712016465484375
-35.99,1712016465500000
-26.03,1712016465515625
-14.9,1712016465531250
-4.09,1712016465546875
5.23,1712016465562500
12.39,1712016465578125
17.3,1712016465593750
20.28,1712016465609375
21.75,1712016465625000
22.13,1712016465640625
21.67,1712016465656250
20.53,1712016465671875
18.98,1712016465687500
17.38,1712016465703125
16.16,1712016465718750
15.7,1712016465734375
16.08,1712016465750000
17.1,1712016465765625
18.35,1712016465781250
19.41,1712016465796875
20.02,1712016465812500
20.15,1712016465828125
19.85,1712016465843750
19.19,1712016465859375
18.15,1712016465875000
16.62,1712016465890625
14.5,1712016465906250
11.77,1712016465921875
8.45,1712016465937500
4.65,1712016465953125
0.44,1712016465968750
-4.04,1712016465984375
-8.67,1712016466000000
-13.23,1712016466015625
-17.49,1712016466031250
-21.28,1712016466046875
-24.51,1712016466062500
-27.27,1712016466078125
-29.78,1712016466093750
-32.37,1712016466109375
-35.41,1712016466125000
-39.05,1712016466140625
-43.11,1712016466156250
-46.92,1712016466171875
-49.39,1712016466187500
-49.3,1712016466203125
-45.73,1712016466218750
-38.47,1712016466234375
-28.16,1712016466250000
-16.16,1712016466265625
-4.15,1712016466281250
6.47,1712016466296875
14.83,1712016466312500
20.74,1712016466328125
24.47,1712016466343750
26.45,1712016466359375
27.06,1712016466375000
26.6,1712016466390625
25.27,1712016466406250
23.41,1712016466421875
21.41,1712016466437500
19.74,1712016466453125
18.75,1712016466468750
18.54,1712016466484375
18.93,1712016466500000
19.55,1712016466515625
20.04,1712016466531250
20.18,1712016466546875
19.96,1712016466562500
19.55,1712016466578125
19.07,1712016466593750
18.54,1712016466609375
17.74,1712016466625000
16.33,1712016466640625
13.99,1712016466656250
10.55,1712016466671875
6.15,1712016466687500
1.19,1712016466703125
-3.77,1712016466718750
-8.28,1712016466734375
-12.05,1712016466750000
-15.11,1712016466765625
-17.77,1712016466781250
-20.52,1712016466796875
-23.9,1712016466812500
-28.27,1712016466828125
-33.69,1712016466843750
-39.74,1712016466859375
-45.56,1712016466875000
-49.88,1712016466890625
-51.47,1712016466906250
-49.4,1712016466921875
-43.45,1712016466937500
-34.15,1712016466953125
-22.68,1712016466968750
-10.48,1712016466984375
1.09,1712016467000000
11.06,1712016467015625
18.91,1712016467031250
24.5,1712016467046875
27.98,1712016467062500
29.54,1712016467078125
29.45,1712016467093750
28.0,1712016467109375
25.56,1712016467125000
22.66,1712016467140625
19.91,1712016467156250
17.88,1712016467171875
16.95,1712016467187500
17.15,1712016467203125
18.13,1712016467218750
19.34,1712016467234375
20.21,1712016467250000
20.47,1712016467265625
20.11,1712016467281250
19.34,1712016467296875
18.4,1712016467312500
17.3,1712016467328125
15.82,1712016467343750
13.57,1712016467359375
10.22,1712016467375000
5.65,1712016467390625
0.1,1712016467406250
-5.89,1712016467421875
-11.63,1712016467437500
-16.51,1712016467453125
-20.27,1712016467468750
-23.05,1712016467484375
-25.41,1712016467500000
-28.03,1712016467515625
-31.54,1712016467531250
-36.18,1712016467546875
-41.69,1712016467562500
-47.29,1712016467578125
-51.82,1712016467593750
-54.04,1712016467609375
-52.93,1712016467625000
-48.03,1712016467640625
-39.59,1712016467656250
-28.57,1712016467671875
-16.34,1712016467687500
-4.4,1712016467703125
6.09,1712016467718750
14.42,1712016467734375
20.39,1712016467750000
24.17,1712016467765625
26.12,1712016467781250
26.61,1712016467796875
25.96,1712016467812500
24.51,1712016467828125
22.56,1712016467843750
20.49,1712016467859375
18.69,1712016467875000
17.48,1712016467890625
17.06,1712016467906250
17.35,1712016467921875
18.05,1712016467937500
18.77,1712016467953125
19.25,1712016467968750
19.44,1712016467984375
19.54,1712016468000000
19.81,1712016468015625
20.37,1712016468031250
20.98,1712016468046875
21.11,1712016468062500
20.14,1712016468078125
17.67,1712016468093750
13.75,1712016468109375
8.82,1712016468125000
3.54,1712016468140625
-1.46,1712016468156250
-5.85,1712016468171875
-9.6,1712016468187500
-12.93,1712016468203125
-16.2,1712016468218750
-19.82,1712016468234375
-24.18,1712016468250000
-29.49,1712016468265625
-35.68,1712016468281250
-42.24,1712016468296875
-48.18,1712016468312500
-52.22,1712016468328125
-53.13,1712016468343750
-50.19,1712016468359375
-43.48,1712016468375000
-33.88,1712016468390625
-22.8,1712016468406250
-11.73,1712016468421875
-1.88,1712016468437500
6.06,1712016468453125
11.9,1712016468468750
15.66,1712016468484375
17.49,1712016468500000
17.47,1712016468515625
15.69,1712016468531250
12.37,1712016468546875
7.94,1712016468562500
3.07,1712016468578125
-1.42,1712016468593750
-4.82,1712016468609375
-6.69,1712016468625000
-7.08,1712016468640625
-6.51,1712016468656250
-5.74,1712016468671875
-5.38,1712016468687500
-5.39,1712016468703125
-4.97,1712016468718750
-2.59,1712016468734375
3.35,1712016468750000
13.8,1712016468765625
28.45,1712016468781250
45.68,1712016468796875
62.92,1712016468812500
77.45,1712016468828125
87.09,1712016468843750
90.63,1712016468859375
87.77,1712016468875000
79.05,1712016468890625
65.58,1712016468906250
48.87,1712016468921875
30.6,1712016468937500
12.44,1712016468953125
-4.33,1712016468968750
-19.11,1712016468984375
-32.06,1712016469000000
-43.9,1712016469015625
-55.42,1712016469031250
-66.97,1712016469046875
-78.08,1712016469062500
-87.47,1712016469078125
-93.46,1712016469093750
-94.56,1712016469109375
-90.05,1712016469125000
-80.36,1712016469140625
-67.01,1712016469156250
-52.16,1712016469171875
-38.03,1712016469187500
-26.26,1712016469203125
-17.6,1712016469218750
-12.0,1712016469234375
-8.95,1712016469250000
-7.75,1712016469265625
-7.72,1712016469281250
-8.26,1712016469296875
-8.71,1712016469312500
-8.4,1712016469328125
-6.76,1712016469343750
-3.42,1712016469359375
1.54,1712016469375000
7.61,1712016469390625
14.04,1712016469406250
20.02,1712016469421875
24.89,1712016469437500
28.3,1712016469453125
30.24,1712016469468750
30.93,1712016469484375
30.72,1712016469500000
30.0,1712016469515625
29.04,1712016469531250
27.93,1712016469546875
26.59,1712016469562500
24.79,1712016469578125
22.39,1712016469593750
19.37,1712016469609375
15.91,1712016469625000
12.34,1712016469640625
9.04,1712016469656250
6.3,1712016469671875
4.3,1712016469687500
3.0,1712016469703125
2.17,1712016469718750
1.46,1712016469734375
0.47,1712016469750000
-1.16,1712016469765625
-3.58,1712016469781250
-6.76,1712016469796875
-10.44,1712016469812500
-14.18,1712016469828125
-17.39,1712016469843750
-19.35,1712016469859375
-19.19,1712016469875000
-16.04,1712016469890625
-9.18,1712016469906250
1.69,1712016469921875
16.2,1712016469937500
33.08,1712016469953125
50.38,1712016469968750
65.63,1712016469984375
76.56,1712016470000000
81.78,1712016470015625
81.37,1712016470031250
77.04,1712016470046875
71.74,1712016470062500
68.65,1712016470078125
69.9,1712016470093750
75.76,1712016470109375
84.39,1712016470125000
92.47,1712016470140625
96.43,1712016470156250
93.62,1712016470171875
83.17,1712016470187500
66.23,1712016470203125
45.95,1712016470218750
27.08,1712016470234375
15.03,1712016470250000
14.38,1712016470265625
26.93,1712016470281250
50.11,1712016470296875
76.85,1712016470312500
97.39,1712016470328125
102.75,1712016470343750
88.5,1712016470359375
56.87,1712016470375000
15.96,1712016470390625
-23.53,1712016470406250
-52.68,1712016470421875
-67.54,1712016470437500
-69.8,1712016470453125
-64.88,1712016470468750
-58.75,1712016470484375
-55.28,1712016470500000
-55.33,1712016470515625
-57.58,1712016470531250
-60.27,1712016470546875
-62.6,1712016470562500
-64.92,1712016470578125
-68.03,1712016470593750
-72.06,1712016470609375
-75.71,1712016470625000
-76.75,1712016470640625
-73.2,1712016470656250
-64.6,1712016470671875
-52.61,1712016470687500
-40.38,1712016470703125
-31.21,1712016470718750
-26.98,1712016470734375
-27.35,1712016470750000
-30.21,1712016470765625
-32.89,1712016470781250
-33.67,1712016470796875
-32.57,1712016470812500
-31.09,1712016470828125
-31.44,1712016470843750
-35.27,1712016470859375
-42.95,1712016470875000
-53.59,1712016470890625
-65.53,1712016470906250
-77.1,1712016470921875
-87.08,1712016470937500
-94.8,1712016470953125
-99.83,1712016470968750
-101.8,1712016470984375
-100.24,1712016471000000
-94.72,1712016471015625
-85.02,1712016471031250
-71.1,1712016471046875
-53.08,1712016471062500
-31.2,1712016471078125
-6.03,1712016471093750
21.16,1712016471109375
48.15,1712016471125000
71.95,1712016471140625
89.46,1712016471156250
98.6,1712016471171875
99.03,1712016471187500
92.52,1712016471203125
82.23,1712016471218750
71.73,1712016471234375
63.77,1712016471250000
59.65,1712016471265625
59.14,1712016471281250
60.9,1712016471296875
63.25,1712016471312500
64.8,1712016471328125
64.88,1712016471343750
63.71,1712016471359375
62.17,1712016471375000
61.42,1712016471390625
62.45,1712016471406250
65.73,1712016471421875
71.2,1712016471437500
78.41,1712016471453125
86.78,1712016471468750
95.63,1712016471484375
104.02,1712016471500000
110.67,1712016471515625
114.08,1712016471531250
113.04,1712016471546875
107.2,1712016471562500
97.37,1712016471578125
85.23,1712016471593750
72.52,1712016471609375
60.22,1712016471625000
48.17,1712016471640625
35.36,1712016471656250
20.83,1712016471671875
4.44,1712016471687500
-12.84,1712016471703125
-29.24,1712016471718750
-43.03,1712016471734375
-53.19,1712016471750000
-59.75,1712016471765625
-63.49,1712016471781250
-65.49,1712016471796875
-66.57,1712016471812500
-67.18,1712016471828125
-67.43,1712016471843750
-67.3,1712016471859375
-66.89,1712016471875000
-66.42,1712016471890625
-66.2,1712016471906250
-66.38,1712016471921875
-66.93,1712016471937500
-67.49,1712016471953125
-67.64,1712016471968750
-67.03,1712016471984375
-65.54,1712016472000000
-63.34,1712016472015625
-60.8,1712016472031250
-58.38,1712016472046875
-56.49,1712016472062500
-55.48,1712016472078125
-55.55,1712016472093750
-56.73,1712016472109375
-58.86,1712016472125000
-61.45,1712016472140625
-63.73,1712016472156250
-64.71,1712016472171875
-63.35,1712016472187500
-58.86,1712016472203125
-50.94,1712016472218750
-39.98,1712016472234375
-27.03,1712016472250000
-13.54,1712016472265625
-0.97,1712016472281250
9.59,1712016472296875
17.72,1712016472312500
23.6,1712016472328125
27.78,1712016472343750
30.88,1712016472359375
33.36,1712016472375000
35.4,1712016472390625
37.0,1712016472406250
38.08,1712016472421875
38.61,1712016472437500
38.64,1712016472453125
38.31,1712016472468750
37.88,1712016472484375
37.65,1712016472500000
37.81,1712016472515625
38.41,1712016472531250
39.19,1712016472546875
39.72,1712016472562500
39.5,1712016472578125
38.2,1712016472593750
35.75,1712016472609375
32.33,1712016472625000
28.28,1712016472640625
23.93,1712016472656250
19.57,1712016472671875
15.42,1712016472687500
11.62,1712016472703125
8.21,1712016472718750
5.11,1712016472734375
2.17,1712016472750000
-0.76,1712016472765625
-3.71,1712016472781250
-6.61,1712016472796875
-9.32,1712016472812500
-11.79,1712016472828125
-14.18,1712016472843750
-16.78,1712016472859375
-19.98,1712016472875000
-23.94,1712016472890625
-28.57,1712016472906250
-33.4,1712016472921875
-37.66,1712016472937500
-40.45,1712016472953125
-40.96,1712016472968750
-38.66,1712016472984375
-33.51,1712016473000000
-26.02,1712016473015625
-17.13,1712016473031250
-7.97,1712016473046875
0.43,1712016473062500
7.36,1712016473078125
12.54,1712016473093750
15.99,1712016473109375
17.91,1712016473125000
18.56,1712016473140625
18.19,1712016473156250
17.06,1712016473171875
15.45,1712016473187500
13.68,1712016473203125
12.06,1712016473218750
10.86,1712016473234375
10.24,1712016473250000
10.23,1712016473265625
10.71,1712016473281250
11.43,1712016473296875
12.01,1712016473312500
12.06,1712016473328125
11.23,1712016473343750
9.34,1712016473359375
6.39,1712016473375000
2.55,1712016473390625
-1.84,1712016473406250
-6.35,1712016473421875
-10.57,1712016473437500
-14.17,1712016473453125
-17.03,1712016473468750
-19.2,1712016473484375
-20.95,1712016473500000
-22.52,1712016473515625
-24.1,1712016473531250
-25.75,1712016473546875
-27.43,1712016473562500
-29.14,1712016473578125
-30.92,1712016473593750
-32.94,1712016473609375
-35.4,1712016473625000
-38.44,1712016473640625
-42.02,1712016473656250
-45.96,1712016473671875
-49.81,1712016473687500
-52.96,1712016473703125
-54.65,1712016473718750
-54.07,1712016473734375
-50.72,1712016473750000
-44.49,1712016473765625
-35.87,1712016473781250
-25.83,1712016473796875
-15.59,1712016473812500
-6.27,1712016473828125
1.33,1712016473843750
6.92,1712016473859375
10.62,1712016473875000
12.81,1712016473890625
14.0,1712016473906250
14.63,1712016473921875
15.03,1712016473937500
15.38,1712016473953125
15.72,1712016473968750
16.05,1712016473984375
16.41,1712016474000000
16.88,1712016474015625
17.54,1712016474031250
18.45,1712016474046875
19.5,1712016474062500
20.47,1712016474078125
21.1,1712016474093750
21.2,1712016474109375
20.7,1712016474125000
19.6,1712016474140625
17.94,1712016474156250
15.7,1712016474171875
12.8,1712016474187500
9.18,1712016474203125
4.91,1712016474218750
0.21,1712016474234375
-4.52,1712016474250000
-8.84,1712016474265625
-12.35,1712016474281250
-14.85,1712016474296875
-16.42,1712016474312500
-17.44,1712016474328125
-18.45,1712016474343750
-19.98,1712016474359375
-22.35,1712016474375000
-25.62,1712016474390625
-29.55,1712016474406250
-33.79,1712016474421875
-37.9,1712016474437500
-41.44,1712016474453125
-43.92,1712016474468750
-44.82,1712016474484375
-43.63,1712016474500000
-39.99,1712016474515625
-33.9,1712016474531250
-25.79,1712016474546875
-16.5,1712016474562500
-7.1,1712016474578125
1.36,1712016474593750
8.13,1712016474609375
12.82,1712016474625000
15.46,1712016474640625
16.41,1712016474656250
16.17,1712016474671875
15.27,1712016474687500
14.1,1712016474703125
12.93,1712016474718750
11.91,1712016474734375
11.21,1712016474750000
11.08,1712016474765625
11.71,1712016474781250
13.18,1712016474796875
15.31,1712016474812500
17.71,1712016474828125
19.86,1712016474843750
21.35,1712016474859375
21.95,1712016474875000
21.67,1712016474890625
20.71,1712016474906250
19.26,1712016474921875
17.42,1712016474937500
15.21,1712016474953125
12.63,1712016474968750
9.65,1712016474984375
6.36,1712016475000000
2.9,1712016475015625
-0.53,1712016475031250
-3.72,1712016475046875
-6.48,1712016475062500
-8.72,1712016475078125
-10.45,1712016475093750
-11.86,1712016475109375
-13.25,1712016475125000
-15.0,1712016475140625
-17.48,1712016475156250
-20.85,1712016475171875
-25.01,1712016475187500
-29.48,1712016475203125
-33.54,1712016475218750
-36.3,1712016475234375
-36.96,1712016475250000
-34.98,1712016475265625
-30.21,1712016475281250
-22.97,1712016475296875
-14.02,1712016475312500
-4.36,1712016475328125
4.92,1712016475343750
12.88,1712016475359375
18.89,1712016475375000
22.7,1712016475390625
24.45,1712016475406250
24.53,1712016475421875
23.5,1712016475437500
21.96,1712016475453125
20.43,1712016475468750
19.32,1712016475484375
18.89,1712016475500000
19.2,1712016475515625
20.18,1712016475531250
21.6,1712016475546875
23.19,1712016475562500
24.62,1712016475578125
25.65,1712016475593750
26.07,1712016475609375
25.74,1712016475625000
24.62,1712016475640625
22.79,1712016475656250
20.44,1712016475671875
17.78,1712016475687500
15.02,1712016475703125
12.26,1712016475718750
9.45,1712016475734375
6.48,1712016475750000
3.18,1712016475765625
-0.47,1712016475781250
-4.33,1712016475796875
-8.11,1712016475812500
-11.49,1712016475828125
-14.26,1712016475843750
-16.48,1712016475859375
-18.41,1712016475875000
-20.48,1712016475890625
-23.11,1712016475906250
-26.51,1712016475921875
-30.56,1712016475937500
-34.82,1712016475953125
-38.54,1712016475968750
-40.8,1712016475984375
-40.76,1712016476000000
-37.86,1712016476015625
-32.03,1712016476031250
-23.81,1712016476046875
-14.21,1712016476062500
-4.53,1712016476078125
4.07,1712016476093750
10.79,1712016476109375
15.37,1712016476125000
17.98,1712016476140625
19.08,1712016476156250
19.15,1712016476171875
18.6,1712016476187500
17.74,1712016476203125
16.84,1712016476218750
16.17,1712016476234375
16.0,1712016476250000
16.47,1712016476265625
17.55,1712016476281250
19.02,1712016476296875
20.52,1712016476312500
21.7,1712016476328125
22.34,1712016476343750
22.35,1712016476359375
21.76,1712016476375000
20.63,1712016476390625
18.96,1712016476406250
16.76,1712016476421875
14.02,1712016476437500
10.82,1712016476453125
7.33,1712016476468750
3.72,1712016476484375
0.12,1712016476500000
-3.4,1712016476515625
-6.82,1712016476531250
-10.14,1712016476546875
-13.24,1712016476562500
-16.02,1712016476578125
-18.35,1712016476593750
-20.22,1712016476609375
-21.78,1712016476625000
-23.34,1712016476640625
-25.26,1712016476656250
-27.79,1712016476671875
-30.93,1712016476687500
-34.28,1712016476703125
-37.05,1712016476718750
-38.25,1712016476734375
-37.0,1712016476750000
-32.86,1712016476765625
-26.03,1712016476781250
-17.37,1712016476796875
-8.12,1712016476812500
0.47,1712016476828125
7.49,1712016476843750
12.54,1712016476859375
15.73,1712016476875000
17.44,1712016476890625
18.15,1712016476906250
18.25,1712016476921875
18.03,1712016476937500
17.73,1712016476953125
17.52,1712016476968750
17.6,1712016476984375
18.07,1712016477000000
18.97,1712016477015625
20.2,1712016477031250
21.54,1712016477046875
22.77,1712016477062500
23.68,1712016477078125
24.17,1712016477093750
24.25,1712016477109375
23.93,1712016477125000
23.23,1712016477140625
22.04,1712016477156250
20.22,1712016477171875
17.7,1712016477187500
14.55,1712016477203125
11.0,1712016477218750
7.38,1712016477234375
3.98,1712016477250000
0.88,1712016477265625
-1.95,1712016477281250
-4.66,1712016477296875
-7.33,1712016477312500
-9.95,1712016477328125
-12.4,1712016477343750
-14.63,1712016477359375
-16.72,1712016477375000
-18.88,1712016477390625
-21.4,1712016477406250
-24.47,1712016477421875
-28.09,1712016477437500
-31.97,1712016477453125
-35.54,1712016477468750
-38.08,1712016477484375
-38.85,1712016477500000
-37.27,1712016477515625
-33.12,1712016477531250
-26.57,1712016477546875
-18.26,1712016477562500
-9.15,1712016477578125
-0.31,1712016477593750
7.34,1712016477609375
13.2,1712016477625000
17.08,1712016477640625
19.16,1712016477656250
19.93,1712016477671875
19.93,1712016477687500
19.63,1712016477703125
19.33,1712016477718750
19.17,1712016477734375
19.19,1712016477750000
19.42,1712016477765625
19.9,1712016477781250
20.69,1712016477796875
21.81,1712016477812500
23.16,1712016477828125
24.57,1712016477843750
25.78,1712016477859375
26.52,1712016477875000
26.6,1712016477890625
25.95,1712016477906250
24.61,1712016477921875
22.74,1712016477937500
20.51,1712016477953125
18.08,1712016477968750
15.48,1712016477984375
12.71,1712016478000000
9.71,1712016478015625
6.48,1712016478031250
3.08,1712016478046875
-0.37,1712016478062500
-3.78,1712016478078125
-7.05,1712016478093750
-10.16,1712016478109375
-13.13,1712016478125000
-15.92,1712016478140625
-18.55,1712016478156250
-21.05,1712016478171875
-23.59,1712016478187500
-26.47,1712016478203125
-29.93,1712016478218750
-33.97,1712016478234375
-38.2,1712016478250000
-41.79,1712016478265625
-43.68,1712016478281250
-42.88,1712016478296875
-38.88,1712016478312500
-31.81,1712016478328125
-22.5,1712016478343750
-12.21,1712016478359375
-2.35,1712016478375000
5.98,1712016478390625
12.17,1712016478406250
16.19,1712016478421875
18.4,1712016478437500
19.33,1712016478453125
19.52,1712016478468750
19.3,1712016478484375
18.93,1712016478500000
18.55,1712016478515625
18.34,1712016478531250
18.45,1712016478546875
18.98,1712016478562500
19.92,1712016478578125
21.17,1712016478593750
22.56,1712016478609375
23.91,1712016478625000
25.05,1712016478640625
25.83,1712016478656250
26.11,1712016478671875
25.77,1712016478687500
24.74,1712016478703125
23.03,1712016478718750
20.76,1712016478734375
18.08,1712016478750000
15.12,1712016478765625
12.0,1712016478781250
8.79,1712016478796875
5.54,1712016478812500
2.28,1712016478828125
-0.99,1712016478843750
-4.25,1712016478859375
-7.44,1712016478875000
-10.52,1712016478890625
-13.36,1712016478906250
-15.87,1712016478921875
-18.03,1712016478937500
-19.89,1712016478953125
-21.68,1712016478968750
-23.72,1712016478984375
-26.33,1712016479000000
-29.68,1712016479015625
-33.6,1712016479031250
-37.53,1712016479046875
-40.6,1712016479062500
-41.83,1712016479078125
-40.49,1712016479093750
-36.31,1712016479109375
-29.66,1712016479125000
-21.35,1712016479140625
-12.49,1712016479156250
-4.13,1712016479171875
2.94,1712016479187500
8.31,1712016479203125
11.89,1712016479218750
13.84,1712016479234375
14.52,1712016479250000
14.3,1712016479265625
13.57,1712016479281250
12.66,1712016479296875
11.86,1712016479312500
11.41,1712016479328125
11.55,1712016479343750
12.38,1712016479359375
13.88,1712016479375000
15.84,1712016479390625
17.88,1712016479406250
19.62,1712016479421875
20.72,1712016479437500
21.06,1712016479453125
20.67,1712016479468750
19.68,1712016479484375
18.23,1712016479500000
16.42,1712016479515625
14.3,1712016479531250
11.9,1712016479546875
9.27,1712016479562500
6.47,1712016479578125
3.6,1712016479593750
0.76,1712016479609375
-2.01,1712016479625000
-4.59,1712016479640625
-6.93,1712016479656250
-8.98,1712016479671875
-10.74,1712016479687500
-12.28,1712016479703125
-13.77,1712016479718750
-15.43,1712016479734375
-17.5,1712016479750000
-20.18,1712016479765625
-23.53,1712016479781250
-27.38,1712016479796875
-31.28,1712016479812500
-34.47,1712016479828125
-36.05,1712016479843750
-35.26,1712016479859375
-31.68,1712016479875000
-25.46,1712016479890625
-17.36,1712016479906250
-8.51,1712016479921875
-0.16,1712016479937500
6.71,1712016479953125
11.62,1712016479968750
14.57,1712016479984375
15.96,1712016480000000
16.37,1712016480015625
16.3,1712016480031250
16.11,1712016480046875
16.01,1712016480062500
16.05,1712016480078125
16.2,1712016480093750
16.41,1712016480109375
16.6,1712016480125000
16.79,1712016480140625
17.06,1712016480156250
17.56,1712016480171875
18.39,1712016480187500
19.53,1712016480203125
20.78,1712016480218750
21.75,1712016480234375
22.01,1712016480250000
21.22,1712016480265625
19.31,1712016480281250
16.48,1712016480296875
13.17,1712016480312500
9.8,1712016480328125
6.7,1712016480343750
3.91,1712016480359375
1.29,1712016480375000
-1.41,1712016480390625
