phoneTimestamp,sensorTimestamp,ecg
1710858612297,599616037577790797,3715
1710858612304,599616037585471926,5826
1710858612312,599616037593153055,6444
1710858612320,599616037600834184,7067
1710858612327,599616037608515313,7998
1710858612335,599616037616196442,8491
1710858612343,599616037623877571,8936
1710858612350,599616037631558700,9669
1710858612358,599616037639239829,10326
1710858612366,599616037646920958,10691
1710858612373,599616037654602087,10720
1710858612381,599616037662283216,10566
1710858612389,599616037669964345,10674
1710858612396,599616037677645474,10994
1710858612404,599616037685326603,11146
1710858612412,599616037693007732,11254
1710858612419,599616037700688861,11441
1710858612427,599616037708369990,11603
1710858612435,599616037716051119,11723
1710858612441,599616037723732248,11819
1710858612449,599616037731413377,11915
1710858612457,599616037739094506,12026
1710858612465,599616037746775635,12124
1710858612473,599616037754456764,12177
1710858612481,599616037762137893,12185
1710858612489,599616037769819022,12237
1710858612496,599616037777500151,12326
1710858612504,599616037785181280,12355
1710858612512,599616037792862409,12353
1710858612519,599616037800543538,12387
1710858612527,599616037808224667,12427
1710858612535,599616037815905796,12461
1710858612542,599616037823586925,12480
1710858612550,599616037831268054,12427
1710858612558,599616037838949183,12358
1710858612565,599616037846630312,12348
1710858612573,599616037854311441,12348
1710858612581,599616037861992570,12310
1710858612588,599616037869673699,12221
1710858612596,599616037877354828,12139
1710858612604,599616037885035957,12096
1710858612611,599616037892717086,12064
1710858612619,599616037900398215,11992
1710858612627,599616037908079344,11874
1710858612633,599616037915760473,11805
1710858612641,599616037923441602,11769
1710858612649,599616037931122731,11675
1710858612657,599616037938803860,11574
1710858612665,599616037946484989,11502
1710858612673,599616037954166118,11449
1710858612681,599616037961847247,11391
1710858612688,599616037969528376,11304
1710858612696,599616037977209505,11213
1710858612704,599616037984890634,11143
1710858612711,599616037992571763,11071
1710858612719,599616038000252892,10994
1710858612727,599616038007934021,10920
1710858612734,599616038015615150,10814
1710858612742,599616038023296279,10706
1710858612750,599616038030977408,10631
1710858612757,599616038038658537,10566
1710858612765,599616038046339666,10484
1710858612773,599616038054020795,10350
1710858612780,599616038061701924,10217
1710858612788,599616038069383053,10155
1710858612796,599616038077064182,10088
1710858612803,599616038084745311,9963
1710858612811,599616038092426440,9842
1710858612819,599616038100107569,9763
1710858612825,599616038107788698,9684
1710858612833,599616038115469827,9578
1710858612841,599616038123150956,9467
1710858612849,599616038130832085,9340
1710858612857,599616038138508230,9241
1710858612865,599616038146189429,9186
1710858612873,599616038153870628,9092
1710858612880,599616038161551827,8948
1710858612888,599616038169233026,8839
1710858612896,599616038176914225,8777
1710858612903,599616038184595424,8698
1710858612911,599616038192276623,8585
1710858612919,599616038199957822,8448
1710858612926,599616038207639021,8337
1710858612934,599616038215320220,8274
1710858612942,599616038223001419,8197
1710858612949,599616038230682618,8080
1710858612957,599616038238363817,7976
1710858612965,599616038246045016,7904
1710858612972,599616038253726215,7796
1710858612980,599616038261407414,7654
1710858612988,599616038269088613,7555
1710858612995,599616038276769812,7498
1710858613003,599616038284451011,7416
1710858613011,599616038292132210,7296
1710858613019,599616038299813409,7223
1710858613025,599616038307494608,7185
1710858613033,599616038315175807,7082
1710858613041,599616038322857006,6976
1710858613049,599616038330538205,6959
1710858613057,599616038338219404,7046
1710858613065,599616038345900603,7183
1710858613072,599616038353581802,7199
1710858613080,599616038361263001,6868
1710858613088,599616038368944200,6382
1710858613095,599616038376625399,6247
1710858613103,599616038384306598,6317
1710858613111,599616038391987797,6194
1710858613118,599616038399668996,6060
1710858613126,599616038407350195,6033
1710858613134,599616038415031394,5961
1710858613141,599616038422712593,5865
1710858613149,599616038430393792,5807
1710858613157,599616038438074991,5737
1710858613164,599616038445756190,5663
1710858613172,599616038453437389,5612
1710858613180,599616038461118588,5555
1710858613188,599616038468799787,5485
1710858613195,599616038476480986,5410
1710858613203,599616038484162185,5338
1710858613211,599616038491843384,5278
1710858613217,599616038499524583,5232
1710858613225,599616038507205782,5189
1710858613233,599616038514886981,5122
1710858613241,599616038522568180,5062
1710858613249,599616038530249379,5013
1710858613257,599616038537930578,4934
1710858613264,599616038545611777,4838
1710858613272,599616038553292976,4778
1710858613280,599616038560974175,4730
1710858613287,599616038568655374,4655
1710858613295,599616038576336573,4566
1710858613303,599616038584017772,4492
1710858613310,599616038591698971,4432
1710858613318,599616038599380170,4357
1710858613326,599616038607061369,4266
1710858613333,599616038614742568,4165
1710858613341,599616038622423767,4078
1710858613349,599616038630104966,4018
1710858613356,599616038637786165,3970
1710858613364,599616038645467364,3924
1710858613372,599616038653148563,3862
1710858613380,599616038660829762,3797
1710858613387,599616038668510961,3753
1710858613395,599616038676192160,3717
1710858613403,599616038683873359,3667
1710858613409,599616038691554558,3607
1710858613417,599616038699235789,3571
1710858613425,599616038706916988,3535
1710858613433,599616038714598187,3474
1710858613441,599616038722279386,3426
1710858613449,599616038729960585,3395
1710858613456,599616038737641784,3349
1710858613464,599616038745322983,3301
1710858613472,599616038753004182,3244
1710858613479,599616038760685381,3169
1710858613487,599616038768366580,3128
1710858613495,599616038776047779,3099
1710858613502,599616038783728978,3034
1710858613510,599616038791410177,2981
1710858613518,599616038799091376,2953
1710858613525,599616038806772575,2912
1710858613533,599616038814453774,2864
1710858613541,599616038822134973,2820
1710858613549,599616038829816172,2784
1710858613556,599616038837497371,2743
1710858613564,599616038845178570,2695
1710858613572,599616038852859769,2645
1710858613579,599616038860540968,2609
1710858613587,599616038868222167,2582
1710858613595,599616038875903366,2551
1710858613601,599616038883584565,2503
1710858613609,599616038891265764,2457
1710858613617,599616038898946963,2426
1710858613625,599616038906628162,2399
1710858613633,599616038914309361,2359
1710858613641,599616038921990560,2318
1710858613648,599616038929671759,2301
1710858613656,599616038937352958,2286
1710858613664,599616038945034157,2270
1710858613671,599616038952715356,2219
1710858613679,599616038960396555,2125
1710858613687,599616038968077754,2048
1710858613694,599616038975758953,2012
1710858613702,599616038983440152,1962
1710858613710,599616038991121351,1923
1710858613718,599616038998802550,1906
1710858613725,599616039006483749,1878
1710858613733,599616039014164948,1842
1710858613741,599616039021846147,1810
1710858613748,599616039029527346,1796
1710858613756,599616039037208545,1854
1710858613764,599616039044889744,2007
1710858613771,599616039052570943,2173
1710858613779,599616039060252142,2173
1710858613787,599616039067933341,1861
1710858613793,599616039075614540,1510
1710858613801,599616039083295739,1493
1710858613809,599616039090976938,1577
1710858613817,599616039098658137,1493
1710858613825,599616039106339336,1452
1710858613833,599616039114020535,1488
1710858613840,599616039121701734,1454
1710858613848,599616039129382933,1404
1710858613856,599616039137064132,1404
1710858613863,599616039144745331,1414
1710858613871,599616039152426530,1392
1710858613879,599616039160107729,1361
1710858613886,599616039167788928,1356
1710858613894,599616039175470127,1365
1710858613902,599616039183151326,1339
1710858613910,599616039190832525,1298
1710858613917,599616039198513724,1291
1710858613925,599616039206194923,1293
1710858613933,599616039213876122,1281
1710858613940,599616039221557321,1269
1710858613948,599616039229238520,1269
1710858613956,599616039236919719,1257
1710858613963,599616039244600918,1240
1710858613971,599616039252282117,1231
1710858613979,599616039259968388,1209
1710858613985,599616039267649517,1187
1710858613993,599616039275330646,1166
1710858614001,599616039283011775,1127
1710858614009,599616039290692904,1094
1710858614017,599616039298374033,1070
1710858614025,599616039306055162,1036
1710858614032,599616039313736291,990
1710858614040,599616039321417420,954
1710858614048,599616039329098549,933
1710858614055,599616039336779678,913
1710858614063,599616039344460807,892
1710858614071,599616039352141936,865
1710858614079,599616039359823065,851
1710858614086,599616039367504194,848
1710858614094,599616039375185323,844
1710858614102,599616039382866452,839
1710858614109,599616039390547581,839
1710858614117,599616039398228710,829
1710858614125,599616039405909839,815
1710858614132,599616039413590968,808
1710858614140,599616039421272097,783
1710858614148,599616039428953226,769
1710858614155,599616039436634355,771
1710858614163,599616039444315484,757
1710858614171,599616039451996613,731
1710858614177,599616039459677742,726
1710858614185,599616039467358871,726
1710858614193,599616039475040000,716
1710858614201,599616039482721129,707
1710858614209,599616039490402258,682
1710858614217,599616039498083387,658
1710858614224,599616039505764516,668
1710858614232,599616039513445645,675
1710858614240,599616039521126774,656
1710858614248,599616039528807903,634
1710858614255,599616039536489032,630
1710858614263,599616039544170161,632
1710858614271,599616039551851290,625
1710858614278,599616039559532419,613
1710858614286,599616039567213548,606
1710858614294,599616039574894677,598
1710858614301,599616039582575806,593
1710858614309,599616039590256935,589
1710858614317,599616039597938064,586
1710858614324,599616039605619193,601
1710858614332,599616039613300322,613
1710858614340,599616039620981451,591
1710858614347,599616039628662580,565
1710858614355,599616039636343709,557
1710858614363,599616039644024838,550
1710858614369,599616039651705967,529
1710858614377,599616039659387096,514
1710858614385,599616039667068225,500
1710858614393,599616039674749354,476
1710858614401,599616039682430483,461
1710858614409,599616039690111612,468
1710858614417,599616039697792741,461
1710858614424,599616039705473870,442
1710858614432,599616039713154999,442
1710858614440,599616039720836128,476
1710858614447,599616039728517257,589
1710858614455,599616039736198386,795
1710858614463,599616039743879515,949
1710858614470,599616039751560644,829
1710858614478,599616039759241773,454
1710858614486,599616039766922902,254
1710858614493,599616039774604031,355
1710858614501,599616039782285160,391
1710858614509,599616039789966289,331
1710858614516,599616039797647418,355
1710858614524,599616039805328547,377
1710858614532,599616039813009676,339
1710858614539,599616039820680779,324
1710858614547,599616039828362048,343
1710858614555,599616039836043317,358
1710858614561,599616039843724586,353
1710858614569,599616039851405855,336
1710858614577,599616039859087124,331
1710858614585,599616039866768393,346
1710858614593,599616039874449662,355
1710858614601,599616039882130931,351
1710858614609,599616039889812200,358
1710858614616,599616039897493469,375
1710858614624,599616039905174738,367
1710858614632,599616039912856007,358
1710858614639,599616039920537276,375
1710858614647,599616039928218545,394
1710858614655,599616039935899814,389
1710858614662,599616039943581083,375
1710858614670,599616039951262352,370
1710858614678,599616039958943621,379
1710858614685,599616039966624890,411
1710858614693,599616039974306159,471
1710858614701,599616039981987428,557
1710858614708,599616039989668697,642
1710858614716,599616039997349966,692
1710858614724,599616040005031235,704
1710858614731,599616040012712504,699
1710858614739,599616040020393773,714
1710858614747,599616040028075042,726
1710858614753,599616040035756311,711
1710858614761,599616040043437580,723
1710858614769,599616040051118849,658
1710858614777,599616040058800118,447
1710858614785,599616040066481387,300
1710858614793,599616040074162656,240
1710858614801,599616040081843925,141
1710858614808,599616040089525194,48
1710858614816,599616040097206463,-9
1710858614824,599616040104887732,-79
1710858614831,599616040112569001,-146
1710858614839,599616040120250270,-182
1710858614847,599616040127931539,-204
1710858614854,599616040135612808,-235
1710858614862,599616040143294077,-271
1710858614870,599616040150975346,-307
1710858614877,599616040158656615,-331
1710858614885,599616040166337884,-327
1710858614893,599616040174019153,-322
1710858614900,599616040181700422,-331
1710858614908,599616040189381691,-336
1710858614916,599616040197062960,-324
1710858614923,599616040204744229,-312
1710858614931,599616040212425498,-307
1710858614939,599616040220106767,-300
1710858614945,599616040227788036,-290
1710858614953,599616040235469305,-276
1710858614961,599616040243150574,-266
1710858614969,599616040250831843,-269
1710858614977,599616040258513112,-250
1710858614985,599616040266194381,-216
1710858614993,599616040273875650,-214
1710858615000,599616040281556919,-214
1710858615008,599616040289238188,-197
1710858615016,599616040296919457,-177
1710858615023,599616040304600726,-141
1710858615031,599616040312281995,-52
1710858615039,599616040319963264,4
1710858615046,599616040327644533,-91
1710858615054,599616040335325802,-218
1710858615062,599616040343007071,-247
1710858615069,599616040350688340,-216
1710858615077,599616040358369609,-185
1710858615085,599616040366050878,-202
1710858615092,599616040373732147,-228
1710858615100,599616040381443520,-216
1710858615108,599616040389124371,-137
1710858615116,599616040396805222,50
1710858615123,599616040404486073,324
1710858615131,599616040412166924,531
1710858615139,599616040419847775,408
1710858615145,599616040427528626,-43
1710858615153,599616040435209477,-324
1710858615161,599616040442890328,-218
1710858615169,599616040450571179,-153
1710858615177,599616040458252030,-235
1710858615185,599616040465932881,-233
1710858615192,599616040473613732,-185
1710858615200,599616040481294583,-194
1710858615208,599616040488975434,-206
1710858615215,599616040496656285,-187
1710858615223,599616040504337136,-182
1710858615231,599616040512017987,-177
1710858615238,599616040519698838,-149
1710858615246,599616040527379689,-127
1710858615254,599616040535060540,-129
1710858615261,599616040542741391,-132
1710858615269,599616040550422242,-113
1710858615277,599616040558103093,-88
1710858615284,599616040565783944,-72
1710858615292,599616040573464795,-69
1710858615300,599616040581145646,-67
1710858615308,599616040588826497,-55
1710858615315,599616040596507348,-38
1710858615323,599616040604188199,-33
1710858615331,599616040611869050,-31
1710858615337,599616040619549901,-21
1710858615345,599616040627230752,-16
1710858615353,599616040634911603,-24
1710858615361,599616040642592454,-38
1710858615369,599616040650273305,-28
1710858615377,599616040657954156,-14
1710858615384,599616040665635007,-57
1710858615392,599616040673315858,-134
1710858615400,599616040680996709,-204
1710858615407,599616040688677560,-230
1710858615415,599616040696358411,-223
1710858615423,599616040704039262,-216
1710858615430,599616040711720113,-199
1710858615438,599616040719400964,-199
1710858615446,599616040727081815,-226
1710858615453,599616040734762666,-221
1710858615461,599616040742443517,-194
1710858615469,599616040750124368,-194
1710858615477,599616040757805219,-197
1710858615484,599616040765486070,-180
1710858615492,599616040773166921,-177
1710858615500,599616040780847772,-209
1710858615507,599616040788528623,-221
1710858615515,599616040796209474,-187
1710858615523,599616040803890325,-165
1710858615529,599616040811571176,-163
1710858615537,599616040819252027,-151
1710858615545,599616040826932878,-137
1710858615553,599616040834613729,-129
1710858615561,599616040842294580,-122
1710858615569,599616040849975431,-117
1710858615576,599616040857656282,-122
1710858615584,599616040865337133,-129
1710858615592,599616040873017984,-137
1710858615599,599616040880698835,-129
1710858615607,599616040888379686,-122
1710858615615,599616040896060537,-134
1710858615622,599616040903741388,-137
1710858615630,599616040911422239,-113
1710858615638,599616040919103090,-91
1710858615645,599616040926783941,-79
1710858615653,599616040934464792,-60
1710858615661,599616040942115555,-45
1710858615669,599616040949796824,-60
1710858615676,599616040957478093,-101
1710858615684,599616040965159362,-117
1710858615692,599616040972840631,-64
1710858615699,599616040980521900,-12
1710858615707,599616040988203169,-24
1710858615715,599616040995884438,-16
1710858615721,599616041003565707,4
1710858615729,599616041011246976,-4
1710858615737,599616041018928245,0
1710858615745,599616041026609514,16
1710858615753,599616041034290783,79
1710858615761,599616041041972052,278
1710858615768,599616041049653321,548
1710858615776,599616041057334590,658
1710858615784,599616041065015859,396
1710858615791,599616041072697128,-55
1710858615799,599616041080378397,-192
1710858615807,599616041088059666,-55
1710858615814,599616041095740935,-55
1710858615822,599616041103422204,-101
1710858615830,599616041111103473,-21
1710858615837,599616041118784742,31
1710858615845,599616041126466011,-2
1710858615853,599616041134147280,-40
1710858615861,599616041141828549,-43
1710858615868,599616041149509818,-28
1710858615876,599616041157191087,-12
1710858615884,599616041164872356,7
1710858615891,599616041172553625,26
1710858615899,599616041180234894,50
1710858615907,599616041187916163,52
1710858615913,599616041195597432,-7
1710858615921,599616041203278701,-69
1710858615929,599616041210959970,-55
1710858615937,599616041218641239,-28
1710858615945,599616041226322508,-45
1710858615953,599616041234003777,-60
1710858615960,599616041241685046,-40
1710858615968,599616041249366315,-16
1710858615976,599616041257047584,-7
1710858615983,599616041264728853,7
1710858615991,599616041272410122,31
1710858615999,599616041280091391,9
1710858616006,599616041287772660,-62
1710858616014,599616041295453929,-103
1710858616022,599616041303135198,-101
1710858616030,599616041310816467,-110
1710858616037,599616041318497736,-117
1710858616045,599616041326179005,-96
1710858616053,599616041333860274,-60
1710858616060,599616041341541543,-40
1710858616068,599616041349222812,-60
1710858616076,599616041356904081,-62
1710858616083,599616041364585350,-52
1710858616091,599616041372266619,-91
1710858616099,599616041379947888,-93
1710858616105,599616041387629157,-45
1710858616113,599616041395310426,-74
1710858616121,599616041402991695,-129
1710858616129,599616041410672964,-108
1710858616137,599616041418354233,-101
1710858616145,599616041426035502,-110
1710858616152,599616041433716771,-93
1710858616160,599616041441398040,-98
1710858616168,599616041449079309,-110
1710858616175,599616041456760578,-86
1710858616183,599616041464441847,-69
1710858616191,599616041472123116,-72
1710858616199,599616041479804385,-74
1710858616206,599616041487485654,-64
1710858616214,599616041495166923,-55
1710858616222,599616041502863248,-45
1710858616229,599616041510544308,-33
1710858616237,599616041518225368,-24
1710858616245,599616041525906428,-21
1710858616252,599616041533587488,-24
1710858616260,599616041541268548,-33
1710858616268,599616041548949608,-45
1710858616275,599616041556630668,-38
1710858616283,599616041564311728,-21
1710858616291,599616041571992788,-2
1710858616297,599616041579673848,2
1710858616305,599616041587354908,-19
1710858616313,599616041595035968,-38
1710858616321,599616041602717028,-33
1710858616329,599616041610398088,-38
1710858616337,599616041618079148,-52
1710858616344,599616041625760208,-45
1710858616352,599616041633441268,-33
1710858616360,599616041641122328,-48
1710858616368,599616041648803388,-57
1710858616375,599616041656484448,-43
1710858616383,599616041664165508,-26
1710858616391,599616041671846568,-26
1710858616398,599616041679527628,16
1710858616406,599616041687208688,194
1710858616414,599616041694889748,468
1710858616421,599616041702570808,658
1710858616429,599616041710251868,557
1710858616437,599616041717932928,209
1710858616444,599616041725613988,-19
1710858616452,599616041733295048,12
1710858616460,599616041740976108,60
1710858616467,599616041748657168,50
1710858616475,599616041756338228,69
1710858616483,599616041764019288,74
1710858616489,599616041771700348,57
1710858616497,599616041779381408,48
1710858616505,599616041787062468,48
1710858616513,599616041794743528,52
1710858616521,599616041802424588,38
1710858616529,599616041810105648,31
1710858616536,599616041817786708,57
1710858616544,599616041825467768,64
1710858616552,599616041833148828,52
1710858616560,599616041840829888,60
1710858616567,599616041848510948,88
1710858616575,599616041856192008,122
1710858616583,599616041863873068,117
1710858616590,599616041871554128,86
1710858616598,599616041879235188,86
1710858616606,599616041886916248,110
1710858616613,599616041894597308,101
1710858616621,599616041902278368,48
1710858616629,599616041909959428,24
1710858616636,599616041917640488,72
1710858616644,599616041925321548,149
1710858616652,599616041933002608,156
1710858616659,599616041940683668,96
1710858616667,599616041948364728,105
1710858616675,599616041956045788,192
1710858616681,599616041963726848,245
1710858616689,599616041971407908,204
1710858616697,599616041979088968,137
1710858616705,599616041986770028,161
1710858616713,599616041994451088,202
1710858616721,599616042002132148,182
1710858616729,599616042009813208,168
1710858616736,599616042017494268,168
1710858616744,599616042025175328,156
1710858616752,599616042032856388,134
1710858616759,599616042040537448,115
1710858616767,599616042048218508,132
1710858616775,599616042055899568,146
1710858616782,599616042063570627,122
1710858616790,599616042071251826,84
1710858616798,599616042078933025,-12
1710858616805,599616042086614224,-146
1710858616813,599616042094295423,-175
1710858616821,599616042101976622,-125
1710858616828,599616042109657821,-122
1710858616836,599616042117339020,-117
1710858616844,599616042125020219,-91
1710858616851,599616042132701418,-74
1710858616859,599616042140382617,-57
1710858616867,599616042148063816,-40
1710858616873,599616042155745015,-43
1710858616881,599616042163426214,-57
1710858616889,599616042171107413,-52
1710858616897,599616042178788612,-45
1710858616905,599616042186469811,-38
1710858616913,599616042194151010,-4
1710858616921,599616042201832209,14
1710858616928,599616042209513408,2
1710858616936,599616042217194607,33
1710858616944,599616042224875806,91
1710858616951,599616042232557005,96
1710858616959,599616042240238204,40
1710858616967,599616042247919403,9
1710858616974,599616042255600602,45
1710858616982,599616042263281801,69
1710858616990,599616042270963000,48
1710858616997,599616042278644199,26
1710858617005,599616042286325398,7
1710858617013,599616042294006597,16
1710858617020,599616042301687796,24
1710858617028,599616042309368995,-43
1710858617036,599616042317050194,-98
1710858617043,599616042324731393,-72
1710858617051,599616042332412592,-48
1710858617059,599616042340093791,-64
1710858617065,599616042347774990,-81
1710858617073,599616042355456189,-48
1710858617081,599616042363137388,96
1710858617089,599616042370818587,343
1710858617097,599616042378499786,574
1710858617105,599616042386180985,591
1710858617113,599616042393862184,250
1710858617120,599616042401543383,-137
1710858617128,599616042409224582,-146
1710858617136,599616042416905781,-28
1710858617143,599616042424586980,-81
1710858617151,599616042432268179,-103
1710858617159,599616042439949378,-36
1710858617166,599616042447630577,-26
1710858617174,599616042455311776,-52
1710858617182,599616042462992975,-43
1710858617189,599616042470674174,-16
1710858617197,599616042478355373,-4
1710858617205,599616042486036572,-12
1710858617212,599616042493717771,-21
1710858617220,599616042501398970,0
1710858617228,599616042509080169,38
1710858617235,599616042516761368,45
1710858617243,599616042524442567,45
1710858617251,599616042532123766,55
1710858617259,599616042539804965,76
1710858617265,599616042547486164,101
1710858617273,599616042555167363,113
1710858617281,599616042562848562,110
1710858617289,599616042570529761,125
1710858617297,599616042578210960,149
1710858617305,599616042585892159,149
1710858617312,599616042593573358,127
1710858617320,599616042601254557,110
1710858617328,599616042608935756,88
1710858617335,599616042616616955,72
1710858617343,599616042624298186,50
1710858617351,599616042631979385,4
1710858617358,599616042639660584,-28
1710858617366,599616042647341783,-33
1710858617374,599616042655022982,-38
1710858617381,599616042662704181,-40
1710858617389,599616042670385380,-43
1710858617397,599616042678066579,-45
1710858617404,599616042685747778,-38
1710858617412,599616042693428977,-36
1710858617420,599616042701110176,-33
1710858617428,599616042708791375,-26
1710858617435,599616042716472574,-24
1710858617443,599616042724153773,-24
1710858617451,599616042731834972,-19
1710858617457,599616042739516171,-4
1710858617465,599616042747197370,4
1710858617473,599616042754878569,2
1710858617481,599616042762559768,2
1710858617489,599616042770240967,7
1710858617497,599616042777922166,12
1710858617504,599616042785603365,14
1710858617512,599616042793284564,4
1710858617520,599616042800965763,0
1710858617527,599616042808646962,0
1710858617535,599616042816328161,-4
1710858617543,599616042824009360,-7
1710858617550,599616042831690559,-4
1710858617558,599616042839371758,-2
1710858617566,599616042847052957,-16
1710858617573,599616042854734156,-21
1710858617581,599616042862415355,-2
1710858617589,599616042870096554,9
1710858617596,599616042877777753,-14
1710858617604,599616042885458952,-31
1710858617612,599616042893140151,-4
1710858617620,599616042900821350,16
1710858617627,599616042908502549,7
1710858617635,599616042916183748,0
1710858617643,599616042923864947,14
1710858617649,599616042931546146,26
1710858617657,599616042939227345,24
1710858617665,599616042946908544,26
1710858617673,599616042954589743,26
1710858617681,599616042962270942,21
1710858617689,599616042969952141,31
1710858617696,599616042977633340,52
1710858617704,599616042985314539,55
1710858617712,599616042992995738,43
1710858617719,599616043000676937,57
1710858617727,599616043008358136,60
1710858617735,599616043016039335,24
1710858617742,599616043023720534,-2
1710858617750,599616043031401733,7
1710858617758,599616043039082932,7
1710858617765,599616043046764131,-12
1710858617773,599616043054445330,-16
1710858617781,599616043062126529,-7
1710858617789,599616043069807728,7
1710858617796,599616043077488927,9
1710858617804,599616043085170126,0
1710858617812,599616043092851325,31
1710858617819,599616043100532524,173
1710858617827,599616043108213723,411
1710858617835,599616043115894922,634
1710858617841,599616043123576121,646
1710858617849,599616043131257320,317
1710858617857,599616043138938519,-48
1710858617865,599616043146619718,-62
1710858617873,599616043154300917,55
1710858617881,599616043161982116,28
1710858617888,599616043169663315,-2
1710858617896,599616043177344514,33
1710858617904,599616043185025745,52
1710858617911,599616043192706944,43
1710858617919,599616043200388143,36
1710858617927,599616043208069342,48
1710858617934,599616043215750541,57
1710858617942,599616043223431740,60
1710858617950,599616043231112939,64
1710858617958,599616043238794138,74
1710858617965,599616043246475337,96
1710858617973,599616043254156536,115
1710858617981,599616043261837735,113
1710858617988,599616043269518934,113
1710858617996,599616043277200133,125
1710858618004,599616043284881332,132
1710858618011,599616043292562531,137
1710858618019,599616043300243730,149
1710858618027,599616043307924929,173
1710858618033,599616043315606128,185
1710858618041,599616043323287327,175
1710858618049,599616043330968526,163
1710858618057,599616043338649725,156
1710858618065,599616043346330924,141
1710858618073,599616043354012123,117
1710858618080,599616043361693322,96
1710858618088,599616043369374521,72
1710858618096,599616043377055720,55
1710858618103,599616043384736919,45
1710858618111,599616043392418118,33
1710858618119,599616043400099317,14
1710858618126,599616043407780516,0
1710858618134,599616043415461715,0
1710858618142,599616043423142914,4
1710858618150,599616043430824113,16
1710858618157,599616043438505312,16
1710858618165,599616043446186511,-2
1710858618173,599616043453867710,-14
1710858618180,599616043461548909,4
1710858618188,599616043469230108,19
1710858618196,599616043476911307,12
1710858618203,599616043484592506,9
1710858618211,599616043492273705,26
1710858618219,599616043499954904,24
1710858618225,599616043507636103,4
1710858618233,599616043515317302,12
1710858618241,599616043522998501,43
1710858618249,599616043530679700,55
1710858618257,599616043538360899,48
1710858618265,599616043546042098,38
1710858618272,599616043553723297,48
1710858618280,599616043561404496,64
1710858618288,599616043569085695,67
1710858618295,599616043576766894,60
1710858618303,599616043584448093,55
1710858618311,599616043592129292,69
1710858618319,599616043599810491,96
1710858618326,599616043607491690,86
1710858618334,599616043615172889,50
1710858618342,599616043622854088,40
1710858618349,599616043630535287,64
1710858618357,599616043638216486,76
1710858618365,599616043645897685,60
1710858618372,599616043653578884,38
1710858618380,599616043661260083,50
1710858618388,599616043668941282,79
1710858618395,599616043676622481,81
1710858618403,599616043684303680,57
1710858618411,599616043691984879,48
1710858618417,599616043699666078,64
1710858618425,599616043707347277,69
1710858618433,599616043715028476,36
1710858618441,599616043722709675,4
1710858618449,599616043730390874,0
1710858618457,599616043738072073,-4
1710858618464,599616043745753304,2
1710858618472,599616043753434503,55
1710858618480,599616043761115702,72
1710858618488,599616043768796901,26
1710858618495,599616043776478100,16
1710858618503,599616043784159299,19
1710858618511,599616043791840498,4
1710858618518,599616043799521697,7
1710858618526,599616043807202896,16
1710858618534,599616043814884095,9
1710858618541,599616043822565294,4
1710858618549,599616043830246493,7
1710858618557,599616043837927692,12
1710858618564,599616043845608891,19
1710858618572,599616043853290090,33
1710858618580,599616043860971289,93
1710858618587,599616043868652488,262
1710858618595,599616043876333687,505
1710858618603,599616043884014886,615
1710858618609,599616043891696085,370
1710858618617,599616043899377284,-33
1710858618625,599616043907058483,-120
1710858618633,599616043914739682,12
1710858618641,599616043922420881,-7
1710858618649,599616043930102080,-50
1710858618656,599616043937783279,2
1710858618664,599616043945464478,24
1710858618672,599616043953145677,12
1710858618680,599616043960826876,24
1710858618687,599616043968508075,48
1710858618695,599616043976189274,55
1710858618703,599616043983870473,60
1710858618710,599616043991551672,64
1710858618718,599616043999232871,52
1710858618726,599616044006914070,60
1710858618733,599616044014595269,96
1710858618741,599616044022276468,110
1710858618749,599616044029957667,108
1710858618756,599616044037638866,129
1710858618764,599616044045320065,144
1710858618772,599616044053001264,144
1710858618779,599616044060682463,156
1710858618787,599616044068363662,161
1710858618795,599616044076044861,153
1710858618801,599616044083726060,149
1710858618809,599616044091407259,134
1710858618817,599616044099088458,103
1710858618825,599616044106769657,91
1710858618833,599616044114450856,84
1710858618841,599616044122132055,57
1710858618849,599616044129813254,28
1710858618856,599616044137494453,12
1710858618864,599616044145175652,-2
1710858618872,599616044152856851,-9
1710858618879,599616044160538050,-9
1710858618887,599616044168219249,-26
1710858618895,599616044175900448,-33
1710858618902,599616044183581647,-21
1710858618910,599616044191262846,-14
1710858618918,599616044198944045,14
1710858618925,599616044206625244,52
1710858618933,599616044214306443,40
1710858618941,599616044221987642,21
1710858618948,599616044229668841,38
1710858618956,599616044237350040,24
1710858618964,599616044245031239,-9
1710858618971,599616044252712438,40
1710858618979,599616044260393637,86
1710858618987,599616044268074836,36
1710858618993,599616044275756035,9
1710858619001,599616044283437234,57
1710858619009,599616044291118433,60
1710858619017,599616044298799632,2
1710858619025,599616044306510961,-55
1710858619033,599616044314191742,-74
1710858619041,599616044321872523,-45
1710858619048,599616044329553304,-43
1710858619056,599616044337234085,-69
1710858619064,599616044344914866,-84
1710858619071,599616044352595647,-175
1710858619079,599616044360276428,-233
1710858619087,599616044367957209,-117
1710858619094,599616044375637990,-62
1710858619102,599616044383318771,-168
1710858619110,599616044390999552,-199
1710858619117,599616044398680333,-137
1710858619125,599616044406361114,-125
1710858619133,599616044414041895,-137
1710858619140,599616044421722676,-129
1710858619148,599616044429403457,-120
1710858619156,599616044437084238,-108
1710858619163,599616044444765019,-108
1710858619171,599616044452445800,-129
1710858619179,599616044460126581,-129
1710858619187,599616044467807362,-101
1710858619193,599616044475488143,-98
1710858619201,599616044483168924,-117
1710858619209,599616044490849705,-110
1710858619217,599616044498530486,-91
1710858619225,599616044506211267,-91
1710858619233,599616044513892048,-98
1710858619240,599616044521572829,-88
1710858619248,599616044529253610,-67
1710858619256,599616044536934391,-48
1710858619263,599616044544615172,-43
1710858619271,599616044552295953,-55
1710858619279,599616044559976734,-69
1710858619286,599616044567657515,-81
1710858619294,599616044575338296,-76
1710858619302,599616044583019077,-57
1710858619309,599616044590699858,-64
1710858619317,599616044598380639,-81
1710858619325,599616044606061420,-69
1710858619332,599616044613742201,-50
1710858619340,599616044621422982,-48
1710858619348,599616044629103763,-60
1710858619355,599616044636784544,-67
1710858619363,599616044644465325,-24
1710858619371,599616044652146106,122
1710858619379,599616044659826887,367
1710858619385,599616044667507668,603
1710858619393,599616044675188449,567
1710858619401,599616044682869230,158
1710858619409,599616044690550011,-163
1710858619417,599616044698230792,-110
1710858619425,599616044705911573,-28
1710858619432,599616044713592354,-79
1710858619440,599616044721273135,-84
1710858619448,599616044728953916,-48
1710858619455,599616044736634697,-31
1710858619463,599616044744315478,-24
1710858619471,599616044751996259,-28
1710858619478,599616044759677040,-36
1710858619486,599616044767357821,-36
1710858619494,599616044775038602,-36
1710858619501,599616044782719383,-21
1710858619509,599616044790400164,-4
1710858619517,599616044798080945,0
1710858619524,599616044805761726,21
1710858619532,599616044813442507,67
1710858619540,599616044821123288,117
1710858619548,599616044828804069,151
1710858619555,599616044836484850,120
1710858619563,599616044844165631,55
1710858619571,599616044851846412,72
1710858619577,599616044859527193,105
1710858619585,599616044867192954,81
1710858619593,599616044874873944,69
1710858619601,599616044882554934,72
1710858619609,599616044890235924,50
1710858619617,599616044897916914,19
1710858619624,599616044905597904,-19
1710858619632,599616044913278894,-62
1710858619640,599616044920959884,-74
1710858619647,599616044928640874,-72
1710858619655,599616044936321864,-69
1710858619663,599616044944002854,-60
1710858619670,599616044951683844,-76
1710858619678,599616044959364834,-117
1710858619686,599616044967045824,-137
1710858619693,599616044974726814,-149
1710858619701,599616044982407804,-161
1710858619709,599616044990088794,-161
1710858619716,599616044997769784,-139
1710858619724,599616045005450774,-134
1710858619732,599616045013131764,-139
1710858619740,599616045020812754,-129
1710858619747,599616045028493744,-129
1710858619755,599616045036174734,-134
1710858619763,599616045043855724,-120
1710858619769,599616045051536714,-105
1710858619777,599616045059217704,-91
1710858619785,599616045066898694,-55
1710858619793,599616045074579684,-26
1710858619801,599616045082260674,-38
1710858619809,599616045089941664,-64
1710858619816,599616045097622654,-93
1710858619824,599616045105303644,-108
1710858619832,599616045112984634,-103
1710858619839,599616045120665624,-115
1710858619847,599616045128346614,-129
1710858619855,599616045136027604,-117
1710858619862,599616045143708594,-110
1710858619870,599616045151389584,-108
1710858619878,599616045159070574,-101
1710858619885,599616045166751564,-103
1710858619893,599616045174432554,-108
1710858619901,599616045182113544,-96
1710858619909,599616045189794534,-96
1710858619916,599616045197475524,-117
1710858619924,599616045205156514,-125
1710858619932,599616045212837504,-108
1710858619939,599616045220518494,-101
1710858619947,599616045228199484,-103
1710858619955,599616045235880474,-103
1710858619961,599616045243561464,-120
1710858619969,599616045251242454,-132
1710858619977,599616045258923444,-113
1710858619985,599616045266604434,-103
1710858619993,599616045274285424,-115
1710858620001,599616045281966414,-125
1710858620008,599616045289647404,-113
1710858620016,599616045297328394,-96
1710858620024,599616045305009384,-98
1710858620031,599616045312690374,-113
1710858620039,599616045320371364,-103
1710858620047,599616045328052354,-64
1710858620054,599616045335733344,-43
1710858620062,599616045343414334,-55
1710858620070,599616045351095324,-69
1710858620077,599616045358776314,-69
1710858620085,599616045366457304,-69
1710858620093,599616045374138294,-81
1710858620101,599616045381819284,-84
1710858620108,599616045389500274,-69
1710858620116,599616045397181264,-60
1710858620124,599616045404862254,-64
1710858620131,599616045412543244,-67
1710858620139,599616045420224234,-57
1710858620147,599616045427905253,-62
1710858620153,599616045435586243,-74
1710858620161,599616045443267233,-4
1710858620169,599616045450948223,206
1710858620177,599616045458629213,480
1710858620185,599616045466310203,625
1710858620193,599616045473991193,413
1710858620200,599616045481672183,-40
1710858620208,599616045489353173,-230
1710858620216,599616045497034163,-129
1710858620223,599616045504715153,-122
1710858620231,599616045512396143,-173
1710858620239,599616045520077133,-144
1710858620246,599616045527758123,-122
1710858620254,599616045535439113,-129
1710858620262,599616045543120103,-122
1710858620270,599616045550801093,-115
1710858620277,599616045558482083,-110
1710858620285,599616045566163073,-96
1710858620293,599616045573844063,-86
1710858620300,599616045581525053,-88
1710858620308,599616045589206043,-88
1710858620316,599616045596887033,-64
1710858620323,599616045604568023,-36
1710858620331,599616045612249013,-31
1710858620339,599616045619930003,-33
1710858620345,599616045627610993,-7
1710858620353,599616045635291983,26
1710858620361,599616045642972973,38
1710858620369,599616045650653963,45
1710858620377,599616045658334953,64
1710858620385,599616045666015943,62
1710858620392,599616045673696933,40
1710858620400,599616045681377923,19
1710858620408,599616045689058913,2
1710858620415,599616045696739903,-19
1710858620423,599616045704420893,-45
1710858620431,599616045712101883,-76
1710858620438,599616045719782873,-105
1710858620446,599616045727463863,-125
1710858620454,599616045735144853,-137
1710858620462,599616045742825843,-129
1710858620469,599616045750506833,-122
1710858620477,599616045758187823,-125
1710858620485,599616045765868813,-117
1710858620492,599616045773549803,-113
1710858620500,599616045781230793,-105
1710858620508,599616045788911783,-96
1710858620515,599616045796592773,-96
1710858620523,599616045804273763,-91
1710858620531,599616045811954753,-62
1710858620537,599616045819635743,-45
1710858620545,599616045827316733,-48
1710858620553,599616045834997723,-48
1710858620561,599616045842678713,-40
1710858620569,599616045850359703,-40
1710858620577,599616045858040693,-38
1710858620584,599616045865721683,-31
1710858620592,599616045873402673,-36
1710858620600,599616045881083663,-43
1710858620607,599616045888764653,-38
1710858620615,599616045896445643,-31
1710858620623,599616045904126633,-36
1710858620631,599616045911807623,-45
1710858620638,599616045919488613,-43
1710858620646,599616045927169603,-31
1710858620654,599616045934850593,-28
1710858620661,599616045942531583,-31
1710858620669,599616045950212573,-28
1710858620677,599616045957893563,-26
1710858620684,599616045965574553,-28
1710858620692,599616045973255543,-26
1710858620700,599616045980936533,-28
1710858620707,599616045988602506,-33
1710858620715,599616045996283705,-33
1710858620723,599616046003964904,-28
1710858620729,599616046011646103,-16
1710858620737,599616046019327302,0
1710858620745,599616046027008501,-2
1710858620753,599616046034689700,-19
1710858620761,599616046042370899,-31
1710858620769,599616046050052098,-31
1710858620776,599616046057733297,-38
1710858620784,599616046065414496,-43
1710858620792,599616046073095695,-40
1710858620799,599616046080776894,-40
1710858620807,599616046088458093,-52
1710858620815,599616046096139292,-40
1710858620823,599616046103820491,-9
1710858620830,599616046111501690,-4
1710858620838,599616046119182889,-26
1710858620846,599616046126864088,-33
1710858620853,599616046134545287,-24
1710858620861,599616046142226486,-26
1710858620869,599616046149907685,-40
1710858620876,599616046157588884,-50
1710858620884,599616046165270083,-48
1710858620892,599616046172951282,-40
1710858620899,599616046180632481,-38
1710858620907,599616046188313680,-33
1710858620915,599616046195994879,-12
1710858620921,599616046203676078,-2
1710858620929,599616046211357277,-21
1710858620937,599616046219038476,4
1710858620945,599616046226719675,158
1710858620953,599616046234400874,416
1710858620961,599616046242082073,646
1710858620968,599616046249763272,610
1710858620976,599616046257444471,209
1710858620984,599616046265125670,-139
1710858620992,599616046272806869,-101
1710858620999,599616046280488068,-4
1710858621007,599616046288169267,-74
1710858621015,599616046295850466,-88
1710858621022,599616046303531665,-31
1710858621030,599616046311212864,-31
1710858621038,599616046318894063,-40
1710858621045,599616046326575262,-19
1710858621053,599616046334256461,-19
1710858621061,599616046341937660,-21
1710858621068,599616046349618859,-4
1710858621076,599616046357300058,0
1710858621084,599616046364981257,0
1710858621091,599616046372662456,21
1710858621099,599616046380343655,45
1710858621107,599616046388024854,52
1710858621113,599616046395706053,57
1710858621121,599616046403387252,72
1710858621129,599616046411068451,103
1710858621137,599616046418749650,127
1710858621145,599616046426430849,122
1710858621153,599616046434112048,113
1710858621161,599616046441793247,101
1710858621168,599616046449474446,81
1710858621176,599616046457155645,74
1710858621184,599616046464836844,84
1710858621191,599616046472518043,72
1710858621199,599616046480199242,43
1710858621207,599616046487880441,21
1710858621214,599616046495561640,0
1710858621222,599616046503242839,-28
1710858621230,599616046510924038,-55
1710858621237,599616046518605237,-67
1710858621245,599616046526286436,-62
1710858621253,599616046533967635,-52
1710858621260,599616046541648834,-62
1710858621268,599616046549360161,-81
1710858621276,599616046557040942,-69
1710858621283,599616046564721723,-40
1710858621291,599616046572402504,-38
1710858621299,599616046580083285,-48
1710858621305,599616046587764066,-48
1710858621313,599616046595444847,-38
1710858621321,599616046603125628,-31
1710858621329,599616046610806409,-28
1710858621337,599616046618487190,-9
1710858621345,599616046626167971,4
1710858621353,599616046633848752,-2
1710858621360,599616046641529533,-2
1710858621368,599616046649210314,16
1710858621376,599616046656891095,24
1710858621383,599616046664571876,16
1710858621391,599616046672252657,7
1710858621399,599616046679933438,12
1710858621406,599616046687614219,28
1710858621414,599616046695295000,24
1710858621422,599616046702975781,4
1710858621429,599616046710656562,-2
1710858621437,599616046718337343,0
1710858621445,599616046726018124,4
1710858621452,599616046733698905,12
1710858621460,599616046741379686,9
1710858621468,599616046749060467,-4
1710858621475,599616046756741248,-12
1710858621483,599616046764422029,-4
1710858621491,599616046772102810,7
1710858621497,599616046779783591,14
1710858621505,599616046787464372,16
1710858621513,599616046795145153,12
1710858621521,599616046802825934,0
1710858621529,599616046810506715,-2
1710858621537,599616046818187496,4
1710858621545,599616046825868277,12
1710858621552,599616046833549058,9
1710858621560,599616046841229839,2
1710858621568,599616046848910620,7
1710858621575,599616046856591401,16
1710858621583,599616046864272182,12
1710858621591,599616046871952963,-7
1710858621598,599616046879633744,-14
1710858621606,599616046887314525,4
1710858621614,599616046894995306,26
1710858621621,599616046902676087,28
1710858621629,599616046910356868,43
1710858621637,599616046918037649,62
1710858621644,599616046925718430,45
1710858621652,599616046933399211,4
1710858621660,599616046941079992,4
1710858621667,599616046948760773,16
1710858621675,599616046956441554,12
1710858621683,599616046964122335,19
1710858621691,599616046971803116,33
1710858621697,599616046979483897,40
1710858621705,599616046987164678,48
1710858621713,599616046994845459,21
1710858621721,599616047002526240,0
1710858621729,599616047010207021,74
1710858621737,599616047017887802,247
1710858621744,599616047025568583,490
1710858621752,599616047033249364,709
1710858621760,599616047040930145,682
1710858621767,599616047048610926,286
1710858621775,599616047056291707,-81
1710858621783,599616047063972488,-31
1710858621790,599616047071653269,86
1710858621798,599616047079334050,14
1710858621806,599616047087014831,2
1710858621813,599616047094695612,57
1710858621821,599616047102376393,19
1710858621829,599616047110027106,-19
1710858621836,599616047117708305,16
1710858621844,599616047125389504,36
1710858621852,599616047133070703,19
1710858621859,599616047140751902,16
1710858621867,599616047148433101,33
1710858621875,599616047156114300,45
1710858621883,599616047163795499,50
1710858621889,599616047171476698,55
1710858621897,599616047179157897,72
1710858621905,599616047186839096,84
1710858621913,599616047194520295,86
1710858621921,599616047202201494,98
1710858621929,599616047209882693,127
1710858621936,599616047217563892,149
1710858621944,599616047225245091,163
1710858621952,599616047232926290,175
1710858621959,599616047240607489,173
1710858621967,599616047248288688,165
1710858621975,599616047255969887,175
1710858621982,599616047263651086,240
1710858621990,599616047271332285,257
1710858621998,599616047279013484,105
1710858622005,599616047286694683,0
1710858622013,599616047294375882,48
1710858622021,599616047302057081,45
1710858622028,599616047309738280,28
1710858622036,599616047317419479,52
1710858622044,599616047325100678,33
1710858622051,599616047332781877,105
1710858622059,599616047340463076,221
1710858622067,599616047348144275,194
1710858622075,599616047355825474,173
1710858622081,599616047363506673,221
1710858622089,599616047371187872,194
1710858622097,599616047378869071,115
1710858622105,599616047386550270,113
1710858622113,599616047394231469,139
1710858622121,599616047401912668,139
1710858622128,599616047409593867,182
1710858622136,599616047417275066,221
1710858622144,599616047424956265,194
1710858622151,599616047432637464,173
1710858622159,599616047440318663,170
1710858622167,599616047447999862,158
1710858622174,599616047455681061,149
1710858622182,599616047463362260,141
1710858622190,599616047471043459,122
1710858622197,599616047478724658,105
1710858622205,599616047486405857,105
1710858622213,599616047494087056,103
1710858622220,599616047501768255,88
1710858622228,599616047509449454,81
1710858622236,599616047517130653,91
1710858622244,599616047524811852,103
1710858622251,599616047532493051,103
1710858622259,599616047540174250,96
1710858622267,599616047547855449,88
1710858622273,599616047555536648,93
1710858622281,599616047563217847,98
1710858622289,599616047570899046,84
1710858622297,599616047578580245,64
1710858622305,599616047586261444,67
1710858622313,599616047593942643,74
1710858622320,599616047601623842,62
1710858622328,599616047609305041,31
1710858622336,599616047616986240,-7
1710858622343,599616047624667439,-19
1710858622351,599616047632348638,-9
1710858622359,599616047640029837,-4
1710858622366,599616047647711036,14
1710858622374,599616047655392235,31
1710858622382,599616047663073434,26
1710858622389,599616047670784763,12
1710858622397,599616047678465544,14
1710858622405,599616047686146325,21
1710858622413,599616047693827106,33
1710858622420,599616047701507887,43
1710858622428,599616047709188668,36
1710858622436,599616047716869449,12
1710858622443,599616047724550230,2
1710858622451,599616047732231011,7
1710858622459,599616047739911792,2
1710858622465,599616047747592573,-4
1710858622473,599616047755273354,0
1710858622481,599616047762954135,9
1710858622489,599616047770634916,24
1710858622497,599616047778315697,33
1710858622505,599616047785996478,0
1710858622512,599616047793677259,-69
1710858622520,599616047801358040,-62
1710858622528,599616047809038821,98
1710858622535,599616047816719602,353
1710858622543,599616047824400383,471
1710858622551,599616047832081164,240
1710858622558,599616047839761945,-129
1710858622566,599616047847442726,-199
1710858622574,599616047855123507,-38
1710858622582,599616047862804288,-69
1710858622589,599616047870485069,-192
1710858622597,599616047878165850,-163
1710858622605,599616047885846631,-139
1710858622612,599616047893527412,-180
1710858622620,599616047901208193,-153
1710858622628,599616047908888974,-93
1710858622635,599616047916569755,-101
1710858622643,599616047924250536,-105
1710858622651,599616047931931317,-67
1710858622657,599616047939612098,-45
1710858622665,599616047947292879,-16
1710858622673,599616047954973660,24
1710858622681,599616047962654441,12
1710858622689,599616047970335222,7
1710858622697,599616047978016003,43
1710858622704,599616047985696784,57
1710858622712,599616047993377565,60
1710858622720,599616048001058346,52
1710858622727,599616048008739127,28
1710858622735,599616048016419908,-12
1710858622743,599616048024100689,-26
1710858622750,599616048031781470,-2
1710858622758,599616048039462251,-4
1710858622766,599616048047143032,-24
1710858622774,599616048054823813,-36
1710858622781,599616048062504594,-64
1710858622789,599616048070185375,-93
1710858622797,599616048077866156,-98
1710858622804,599616048085546937,-105
1710858622812,599616048093227718,-127
1710858622820,599616048100908499,-146
1710858622827,599616048108589280,-146
1710858622835,599616048116270061,-122
1710858622843,599616048123950842,-120
1710858622849,599616048131631623,-151
1710858622857,599616048139312404,-153
1710858622865,599616048146993185,-127
1710858622873,599616048154673966,-115
1710858622881,599616048162354747,-108
1710858622889,599616048170035528,-98
1710858622896,599616048177716309,-98
1710858622904,599616048185397090,-91
1710858622912,599616048193077871,-79
1710858622919,599616048200758652,-88
1710858622927,599616048208439433,-91
1710858622935,599616048216120214,-72
1710858622943,599616048223800995,-64
1710858622950,599616048231451708,-72
1710858622958,599616048239132907,-76
1710858622966,599616048246814106,-79
1710858622973,599616048254495305,-76
1710858622981,599616048262176504,-72
1710858622989,599616048269857703,-72
1710858622996,599616048277538902,-76
1710858623004,599616048285220101,-81
1710858623012,599616048292901300,-79
1710858623019,599616048300582499,-69
1710858623027,599616048308263698,-52
1710858623035,599616048315944897,19
1710858623041,599616048323626096,91
1710858623049,599616048331307295,52
1710858623057,599616048338988494,-26
1710858623065,599616048346669693,-60
1710858623073,599616048354350892,-72
1710858623081,599616048362032091,-84
1710858623088,599616048369713290,-115
1710858623096,599616048377394489,-137
1710858623104,599616048385075688,-117
1710858623111,599616048392756887,-93
1710858623119,599616048400438086,-93
1710858623127,599616048408119285,-101
1710858623135,599616048415800484,-93
1710858623142,599616048423481683,-98
1710858623150,599616048431162882,-115
1710858623158,599616048438844081,-105
1710858623165,599616048446525280,-69
1710858623173,599616048454206479,-48
1710858623181,599616048461887678,-45
1710858623188,599616048469568877,-52
1710858623196,599616048477250076,-55
1710858623204,599616048484931275,-36
1710858623211,599616048492612474,-28
1710858623219,599616048500293673,-62
1710858623227,599616048507974872,-91
1710858623233,599616048515656071,-64
1710858623241,599616048523337270,-43
1710858623249,599616048531018469,-50
1710858623257,599616048538699668,-60
1710858623265,599616048546380867,-43
1710858623273,599616048554062066,26
1710858623280,599616048561743265,165
1710858623288,599616048569424464,360
1710858623296,599616048577105663,553
1710858623303,599616048584786862,495
1710858623311,599616048592468061,76
1710858623319,599616048600149260,-211
1710858623327,599616048607830459,-122
1710858623334,599616048615511658,-69
1710858623342,599616048623192857,-129
1710858623350,599616048630874056,-81
1710858623357,599616048638555255,-38
1710858623365,599616048646236454,-69
1710858623373,599616048653917653,-62
1710858623380,599616048661598852,-26
1710858623388,599616048669280051,-31
1710858623396,599616048676961250,-38
1710858623403,599616048684642449,-19
1710858623411,599616048692323648,-7
1710858623419,599616048700004847,0
1710858623425,599616048707686046,16
1710858623433,599616048715367245,28
1710858623441,599616048723048444,31
1710858623449,599616048730729643,38
1710858623457,599616048738410842,40
1710858623465,599616048746092041,38
1710858623472,599616048753773240,48
1710858623480,599616048761454439,57
1710858623488,599616048769135638,72
1710858623496,599616048776816837,81
1710858623503,599616048784498036,62
1710858623511,599616048792209363,38
1710858623519,599616048799890144,40
1710858623526,599616048807570925,45
1710858623534,599616048815251706,31
1710858623542,599616048822932487,0
1710858623549,599616048830613268,-33
1710858623557,599616048838294049,-50
1710858623565,599616048845974830,-52
1710858623572,599616048853655611,-67
1710858623580,599616048861336392,-72
1710858623588,599616048869017173,-55
1710858623595,599616048876697954,-57
1710858623603,599616048884378735,-84
1710858623611,599616048892059516,-79
1710858623617,599616048899740297,-50
1710858623625,599616048907421078,-43
1710858623633,599616048915101859,-60
1710858623641,599616048922782640,-62
1710858623649,599616048930463421,-38
1710858623657,599616048938144202,-40
1710858623665,599616048945824983,-55
1710858623672,599616048953505764,-40
1710858623680,599616048961186545,-26
1710858623688,599616048968867326,-31
1710858623695,599616048976548107,-28
1710858623703,599616048984228888,-24
1710858623711,599616048991909669,-19
1710858623718,599616048999590450,-4
1710858623726,599616049007271231,-7
1710858623734,599616049014952012,-24
1710858623741,599616049022632793,-26
1710858623749,599616049030313574,-40
1710858623757,599616049037994355,-62
1710858623764,599616049045675136,-52
1710858623772,599616049053355917,-45
1710858623780,599616049061036698,-50
1710858623787,599616049068717479,-33
1710858623795,599616049076398260,-36
1710858623803,599616049084079041,-60
1710858623809,599616049091759822,-55
1710858623817,599616049099440603,-40
1710858623825,599616049107121384,-48
1710858623833,599616049114802165,-50
1710858623841,599616049122482946,-38
1710858623849,599616049130163727,-36
1710858623857,599616049137844508,-33
1710858623864,599616049145525289,-19
1710858623872,599616049153206070,-4
1710858623880,599616049160886851,-4
1710858623887,599616049168567632,-2
1710858623895,599616049176248413,2
1710858623903,599616049183929194,-9
1710858623910,599616049191609975,-19
1710858623918,599616049199290756,-26
1710858623926,599616049206971537,-36
1710858623933,599616049214652318,-33
1710858623941,599616049222333099,-31
1710858623949,599616049230013880,-36
1710858623956,599616049237694661,-33
1710858623964,599616049245375442,-24
1710858623972,599616049253056223,-21
1710858623979,599616049260737004,-14
1710858623987,599616049268417785,40
1710858623995,599616049276098566,199
1710858624001,599616049283779347,428
1710858624009,599616049291460128,560
1710858624017,599616049299140909,331
1710858624025,599616049306821690,-105
1710858624033,599616049314502471,-189
1710858624041,599616049322183252,0
1710858624049,599616049329864033,-19
1710858624056,599616049337544814,-88
1710858624064,599616049345225595,-12
1710858624072,599616049352876308,14
1710858624079,599616049360557507,-21
1710858624087,599616049368238706,-14
1710858624095,599616049375919905,9
1710858624102,599616049383601104,16
1710858624110,599616049391282303,31
1710858624118,599616049398963502,43
1710858624125,599616049406644701,43
1710858624133,599616049414325900,52
1710858624141,599616049422007099,69
1710858624148,599616049429688298,69
1710858624156,599616049437369497,72
1710858624164,599616049445050696,84
1710858624171,599616049452731895,88
1710858624179,599616049460413094,91
1710858624187,599616049468094293,103
1710858624193,599616049475775492,134
1710858624201,599616049483456691,247
1710858624209,599616049491137890,370
1710858624217,599616049498819089,355
1710858624225,599616049506500288,286
1710858624233,599616049514181487,197
1710858624241,599616049521862686,52
1710858624248,599616049529543885,-14
1710858624256,599616049537225084,33
1710858624264,599616049544906283,50
1710858624271,599616049552587482,19
1710858624279,599616049560268681,38
1710858624287,599616049567949880,36
1710858624294,599616049575631079,-31
1710858624302,599616049583312278,7
1710858624310,599616049590993477,88
1710858624317,599616049598674676,55
1710858624325,599616049606355875,36
1710858624333,599616049614037074,28
1710858624340,599616049621718273,-43
1710858624348,599616049629399472,-64
1710858624356,599616049637080671,-50
1710858624363,599616049644761870,-62
1710858624371,599616049652443069,16
1710858624379,599616049660124268,139
1710858624387,599616049667805467,129
1710858624393,599616049675486666,52
1710858624401,599616049683167865,-28
1710858624409,599616049690849064,-81
1710858624417,599616049698530263,-43
1710858624425,599616049706211462,31
1710858624433,599616049713892661,105
1710858624440,599616049721573860,151
1710858624448,599616049729255059,134
1710858624456,599616049736936258,115
1710858624463,599616049744617457,67
1710858624471,599616049752298656,-31
1710858624479,599616049759979855,-48
1710858624486,599616049767661054,-12
1710858624494,599616049775342253,-24
1710858624502,599616049783023452,0
1710858624509,599616049790704651,96
1710858624517,599616049798385850,137
1710858624525,599616049806067049,38
1710858624532,599616049813748248,-88
1710858624540,599616049821429447,-88
1710858624548,599616049829110646,-24
1710858624556,599616049836791845,-31
1710858624563,599616049844473044,-69
1710858624571,599616049852154243,-57
1710858624579,599616049859835442,-28
1710858624585,599616049867516641,-19
1710858624593,599616049875197840,0
1710858624601,599616049882879039,33
1710858624609,599616049890560238,38
1710858624617,599616049898241437,16
1710858624625,599616049905922636,2
1710858624632,599616049913633963,-2
1710858624640,599616049921314744,7
1710858624648,599616049928995525,12
1710858624655,599616049936676306,2
1710858624663,599616049944357087,-9
1710858624671,599616049952037868,-12
1710858624678,599616049959718649,-16
1710858624686,599616049967399430,-31
1710858624694,599616049975080211,-7
1710858624701,599616049982760992,127
1710858624709,599616049990441773,379
1710858624717,599616049998122554,634
1710858624725,599616050005803335,661
1710858624732,599616050013484116,286
1710858624740,599616050021164897,-134
1710858624748,599616050028845678,-161
1710858624755,599616050036526459,-50
1710858624763,599616050044207240,-101
1710858624771,599616050051888021,-129
1710858624777,599616050059568802,-62
1710858624785,599616050067249583,-33
1710858624793,599616050074930364,-36
1710858624801,599616050082611145,-21
1710858624809,599616050090291926,-7
1710858624817,599616050097972707,-2
1710858624824,599616050105653488,14
1710858624832,599616050113334269,21
1710858624840,599616050121015050,24
1710858624847,599616050128695831,40
1710858624855,599616050136376612,52
1710858624863,599616050144057393,45
1710858624870,599616050151738174,43
1710858624878,599616050159418955,55
1710858624886,599616050167099736,67
1710858624893,599616050174780517,64
1710858624901,599616050182461298,64
1710858624909,599616050190142079,81
1710858624917,599616050197822860,88
1710858624924,599616050205503641,79
1710858624932,599616050213184422,60
1710858624940,599616050220865203,43
1710858624947,599616050228545984,28
1710858624955,599616050236226765,-2
1710858624963,599616050243907546,-19
1710858624969,599616050251588327,9
1710858624977,599616050259269108,0
1710858624985,599616050266949889,-69
1710858624993,599616050274630670,-84
1710858625001,599616050282311451,-28
1710858625009,599616050289992232,19
1710858625016,599616050297673013,-4
1710858625024,599616050305353794,-45
1710858625032,599616050313034575,-21
1710858625039,599616050320715356,-2
1710858625047,599616050328396137,-4
1710858625055,599616050336076918,9
1710858625062,599616050343757699,12
1710858625070,599616050351438480,28
1710858625078,599616050359119261,45
1710858625086,599616050366800042,48
1710858625093,599616050374480823,79
1710858625101,599616050382161604,79
1710858625109,599616050389842385,26
1710858625116,599616050397523166,24
1710858625124,599616050405203947,62
1710858625132,599616050412884728,60
1710858625139,599616050420565509,16
1710858625147,599616050428246290,-43
1710858625155,599616050435927071,-67
1710858625161,599616050443607852,-50
1710858625169,599616050451288633,-4
1710858625177,599616050458969414,74
1710858625185,599616050466650195,88
1710858625193,599616050474300908,24
1710858625201,599616050481982107,16
1710858625208,599616050489663306,52
1710858625216,599616050497344505,38
1710858625224,599616050505025704,28
1710858625231,599616050512706903,72
1710858625239,599616050520388102,108
1710858625247,599616050528069301,101
1710858625254,599616050535750500,69
1710858625262,599616050543431699,50
1710858625270,599616050551112898,52
1710858625278,599616050558794097,45
1710858625285,599616050566475296,7
1710858625293,599616050574156495,-31
1710858625301,599616050581837694,-62
1710858625308,599616050589518893,-76
1710858625316,599616050597200092,-74
1710858625324,599616050604881291,-72
1710858625331,599616050612562490,-74
1710858625339,599616050620243689,-76
1710858625347,599616050627924888,-60
1710858625353,599616050635606087,-7
1710858625361,599616050643287286,26
1710858625369,599616050650968485,-4
1710858625377,599616050658649684,-24
1710858625385,599616050666330883,9
1710858625393,599616050674012082,79
1710858625400,599616050681693281,192
1710858625408,599616050689374480,379
1710858625416,599616050697055679,557
1710858625423,599616050704736878,440
1710858625431,599616050712418077,24
1710858625439,599616050720099276,-180
1710858625446,599616050727780475,-67
1710858625454,599616050735461674,-50
1710858625462,599616050743142873,-108
1710858625470,599616050750824072,-72
1710858625477,599616050758505271,-55
1710858625485,599616050766186470,-81
1710858625493,599616050773867669,-64
1710858625500,599616050781548868,-40
1710858625508,599616050789230067,-48
1710858625516,599616050796911266,-50
1710858625523,599616050804592465,-26
1710858625531,599616050812273664,-7
1710858625539,599616050819954863,-9
1710858625545,599616050827636062,-19
1710858625553,599616050835317261,-4
1710858625561,599616050842998460,36
1710858625569,599616050850679659,69
1710858625577,599616050858360858,88
1710858625585,599616050866042057,91
1710858625592,599616050873723256,91
1710858625600,599616050881404455,96
1710858625608,599616050889085654,88
1710858625615,599616050896766853,79
1710858625623,599616050904448052,108
1710858625631,599616050912129251,141
1710858625639,599616050919810450,125
1710858625646,599616050927491649,91
1710858625654,599616050935172848,60
1710858625662,599616050942854047,26
1710858625669,599616050950535246,-2
1710858625677,599616050958216445,-26
1710858625685,599616050965897644,-43
1710858625692,599616050973578843,-57
1710858625700,599616050981260042,-60
1710858625708,599616050988941241,-45
1710858625715,599616050996622440,-43
1710858625723,599616051004303639,-55
1710858625731,599616051011984838,-52
1710858625737,599616051019666037,-33
1710858625745,599616051027347236,-21
1710858625753,599616051035048557,-33
1710858625761,599616051042729477,-45
1710858625769,599616051050410397,-26
1710858625777,599616051058091317,-12
1710858625784,599616051065772237,-26
1710858625792,599616051073453157,-43
1710858625800,599616051081134077,-38
1710858625808,599616051088814997,-26
1710858625815,599616051096495917,-24
1710858625823,599616051104176837,-26
1710858625831,599616051111857757,-21
1710858625838,599616051119538677,-19
1710858625846,599616051127219597,-16
1710858625854,599616051134900517,-12
1710858625861,599616051142581437,-16
1710858625869,599616051150262357,-19
1710858625877,599616051157943277,-9
1710858625884,599616051165624197,0
1710858625892,599616051173305117,4
1710858625900,599616051180986037,-7
1710858625907,599616051188666957,-21
1710858625915,599616051196347877,-12
1710858625923,599616051204028797,7
1710858625929,599616051211709717,2
1710858625937,599616051219390637,-24
1710858625945,599616051227071557,-19
1710858625953,599616051234752477,16
1710858625961,599616051242433397,33
1710858625969,599616051250114317,21
1710858625977,599616051257795237,14
1710858625984,599616051265476157,12
1710858625992,599616051273157077,14
1710858626000,599616051280837997,7
1710858626007,599616051288518917,0
1710858626015,599616051296199837,7
1710858626023,599616051303880757,21
1710858626030,599616051311561677,16
1710858626038,599616051319242597,19
1710858626046,599616051326923517,50
1710858626053,599616051334604437,50
1710858626061,599616051342285357,9
1710858626069,599616051349966277,38
1710858626076,599616051357647197,187
1710858626084,599616051365328117,391
1710858626092,599616051373009037,538
1710858626099,599616051380689957,396
1710858626107,599616051388370877,14
1710858626115,599616051396051797,-115
1710858626121,599616051403732717,48
1710858626129,599616051411413637,72
1710858626137,599616051419094557,-38
1710858626145,599616051426775477,-52
1710858626153,599616051434456397,-14
1710858626161,599616051442137317,-14
1710858626169,599616051449818237,-19
1710858626176,599616051457499157,-14
1710858626184,599616051465180077,-4
1710858626192,599616051472860997,7
1710858626199,599616051480541917,14
1710858626207,599616051488222837,21
1710858626215,599616051495903757,24
1710858626222,599616051503584677,33
1710858626230,599616051511265597,57
1710858626238,599616051518946517,69
1710858626245,599616051526627437,69
1710858626253,599616051534308357,88
1710858626261,599616051541989277,113
1710858626268,599616051549670197,110
1710858626276,599616051557351117,93
1710858626284,599616051565032037,93
1710858626291,599616051572712957,96
1710858626299,599616051580393877,81
1710858626307,599616051588074797,69
1710858626313,599616051595745690,74
1710858626321,599616051603426750,62
1710858626329,599616051611107810,33
1710858626337,599616051618788870,19
1710858626345,599616051626469930,4
1710858626353,599616051634150990,-26
1710858626361,599616051641832050,-48
1710858626368,599616051649513110,-50
1710858626376,599616051657194170,-57
1710858626384,599616051664875230,-64
1710858626391,599616051672556290,-69
1710858626399,599616051680237350,-69
1710858626407,599616051687918410,-69
1710858626414,599616051695599470,-69
1710858626422,599616051703280530,-57
1710858626430,599616051710961590,-38
1710858626437,599616051718642650,-31
1710858626445,599616051726323710,-33
1710858626453,599616051734004770,-33
1710858626460,599616051741685830,-28
1710858626468,599616051749366890,-9
1710858626476,599616051757047950,-4
1710858626483,599616051764729010,-19
1710858626491,599616051772410070,-24
1710858626499,599616051780091130,7
1710858626505,599616051787772190,31
1710858626513,599616051795453250,14
1710858626521,599616051803134310,-9
1710858626529,599616051810815370,0
1710858626537,599616051818496430,12
1710858626545,599616051826177490,4
1710858626553,599616051833858550,-7
1710858626560,599616051841539610,-9
1710858626568,599616051849220670,-4
1710858626576,599616051856901730,2
1710858626583,599616051864582790,2
1710858626591,599616051872263850,-4
1710858626599,599616051879944910,-4
1710858626606,599616051887625970,16
1710858626614,599616051895307030,33
1710858626622,599616051902988090,24
1710858626629,599616051910669150,14
1710858626637,599616051918350210,14
1710858626645,599616051926031270,0
1710858626652,599616051933712330,-33
1710858626660,599616051941393390,-45
1710858626668,599616051949074450,-21
1710858626675,599616051956755510,16
1710858626683,599616051964436570,16
1710858626691,599616051972117630,-28
1710858626699,599616051979798690,-52
1710858626705,599616051987479750,-31
1710858626713,599616051995160810,-26
1710858626721,599616052002841870,-36
1710858626729,599616052010522930,16
1710858626737,599616052018203990,173
1710858626745,599616052025885050,372
1710858626752,599616052033566110,488
1710858626760,599616052041247170,324
1710858626768,599616052048928230,-36
1710858626775,599616052056609290,-144
1710858626783,599616052064290350,-12
1710858626791,599616052071971410,-16
1710858626798,599616052079652470,-79
1710858626806,599616052087333530,-40
1710858626814,599616052095014590,-19
1710858626821,599616052102695650,-33
1710858626829,599616052110376710,-24
1710858626837,599616052118057770,-21
1710858626844,599616052125738830,-31
1710858626852,599616052133419890,-21
1710858626860,599616052141100950,-2
1710858626867,599616052148782010,4
1710858626875,599616052156483165,0
1710858626883,599616052164163946,0
1710858626891,599616052171844727,19
1710858626897,599616052179525508,38
1710858626905,599616052187206289,48
1710858626913,599616052194887070,60
1710858626921,599616052202567851,72
1710858626929,599616052210248632,79
1710858626937,599616052217929413,79
1710858626944,599616052225610194,64
1710858626952,599616052233290975,57
1710858626960,599616052240971756,62
1710858626967,599616052248652537,55
1710858626975,599616052256333318,28
1710858626983,599616052264014099,7
1710858626990,599616052271694880,-12
1710858626998,599616052279375661,-31
1710858627006,599616052287056442,-50
1710858627013,599616052294737223,-79
1710858627021,599616052302418004,-113
1710858627029,599616052310098785,-134
1710858627036,599616052317779566,-139
1710858627044,599616052325460347,-141
1710858627052,599616052333141128,-153
1710858627060,599616052340821909,-151
1710858627067,599616052348502690,-120
1710858627075,599616052356183471,-108
1710858627083,599616052363864252,-125
1710858627089,599616052371545033,-117
1710858627097,599616052379225814,-93
1710858627105,599616052386906595,-84
1710858627113,599616052394587376,-86
1710858627121,599616052402268157,-91
1710858627129,599616052409948938,-103
1710858627136,599616052417629719,-96
1710858627144,599616052425310500,-81
1710858627152,599616052432991281,-86
1710858627159,599616052440672062,-98
1710858627167,599616052448352843,-101
1710858627175,599616052456033624,-96
1710858627182,599616052463714405,-88
1710858627190,599616052471395186,-96
1710858627198,599616052479075967,-113
1710858627205,599616052486756748,-113
1710858627213,599616052494437529,-98
1710858627221,599616052502118310,-110
1710858627229,599616052509799091,-137
1710858627236,599616052517479872,-129
1710858627244,599616052525160653,-117
1710858627252,599616052532841434,-158
1710858627259,599616052540522215,-177
1710858627267,599616052548202996,-110
1710858627275,599616052555883777,-40
1710858627281,599616052563564558,-26
1710858627289,599616052571245339,-45
1710858627297,599616052578926120,-67
1710858627305,599616052586606901,-74
1710858627313,599616052594287682,-64
1710858627321,599616052601968463,-55
1710858627328,599616052609649244,-48
1710858627336,599616052617330025,-48
1710858627344,599616052625010806,-52
1710858627351,599616052632691587,-43
1710858627359,599616052640372368,-26
1710858627367,599616052648053149,-16
1710858627374,599616052655733930,-26
1710858627382,599616052663414711,-4
1710858627390,599616052671095492,113
1710858627397,599616052678776273,310
1710858627405,599616052686457054,483
1710858627413,599616052694137835,418
1710858627421,599616052701818616,62
1710858627428,599616052709499397,-168
1710858627436,599616052717150110,-72
1710858627444,599616052724831309,-14
1710858627451,599616052732512508,-86
1710858627459,599616052740193707,-67
1710858627467,599616052747874906,-28
1710858627473,599616052755556105,-43
1710858627481,599616052763237304,-43
1710858627489,599616052770918503,-16
1710858627497,599616052778599702,-12
1710858627505,599616052786280901,-14
1710858627513,599616052793962100,0
1710858627520,599616052801643299,12
1710858627528,599616052809324498,-2
1710858627536,599616052817005697,-9
1710858627543,599616052824686896,9
1710858627551,599616052832368095,28
1710858627559,599616052840049294,28
1710858627566,599616052847730493,28
1710858627574,599616052855411692,31
1710858627582,599616052863092891,36
1710858627589,599616052870774090,45
1710858627597,599616052878455289,50
1710858627605,599616052886136488,50
1710858627613,599616052893817687,52
1710858627620,599616052901498886,48
1710858627628,599616052909180085,38
1710858627636,599616052916861284,24
1710858627643,599616052924542483,-4
1710858627651,599616052932223682,-28
1710858627659,599616052939904881,-43
1710858627665,599616052947586080,-55
1710858627673,599616052955267279,-72
1710858627681,599616052962948478,-88
1710858627689,599616052970629677,-86
1710858627697,599616052978310876,-76
1710858627705,599616052985992075,-86
1710858627712,599616052993673274,-96
1710858627720,599616053001354473,-81
1710858627728,599616053009035672,-62
1710858627735,599616053016716871,-76
1710858627743,599616053024398070,-91
1710858627751,599616053032079269,-79
1710858627758,599616053039760468,-60
1710858627766,599616053047441667,-50
1710858627774,599616053055122866,-55
1710858627782,599616053062804065,-72
1710858627789,599616053070485264,-79
1710858627797,599616053078166463,-69
1710858627805,599616053085847662,-60
1710858627812,599616053093528861,-50
1710858627820,599616053101210060,-40
1710858627828,599616053108891259,-40
1710858627835,599616053116572458,-43
1710858627843,599616053124253657,-43
1710858627851,599616053131934856,-45
1710858627857,599616053139616055,-52
1710858627865,599616053147297254,-60
1710858627873,599616053154978453,-45
1710858627881,599616053162659652,-31
1710858627889,599616053170340851,-45
1710858627897,599616053178022050,-52
1710858627904,599616053185703249,-26
1710858627912,599616053193384448,-4
1710858627920,599616053201065647,0
1710858627927,599616053208746846,2
1710858627935,599616053216428045,4
1710858627943,599616053224109244,-2
1710858627950,599616053231790443,-12
1710858627958,599616053239471642,-19
1710858627966,599616053247152841,-31
1710858627974,599616053254834040,-28
1710858627981,599616053262515239,-9
1710858627989,599616053270196438,-9
1710858627997,599616053277877669,-26
1710858628004,599616053285558868,-19
1710858628012,599616053293240067,-14
1710858628020,599616053300921266,-31
1710858628027,599616053308602465,0
1710858628035,599616053316283664,132
1710858628043,599616053323964863,334
1710858628049,599616053331646062,519
1710858628057,599616053339327261,464
1710858628065,599616053347008460,79
1710858628073,599616053354689659,-187
1710858628081,599616053362370858,-84
1710858628089,599616053370052057,-19
1710858628096,599616053377733256,-103
1710858628104,599616053385414455,-93
1710858628112,599616053393095654,-43
1710858628119,599616053400776853,-55
1710858628127,599616053408458052,-60
1710858628135,599616053416139251,-43
1710858628143,599616053423820450,-24
1710858628150,599616053431501649,-4
1710858628158,599616053439182848,0
1710858628166,599616053446864047,-4
1710858628173,599616053454545246,2
1710858628181,599616053462226445,26
1710858628189,599616053469907644,48
1710858628196,599616053477588843,60
1710858628204,599616053485270042,74
1710858628212,599616053492951241,93
1710858628219,599616053500632440,108
1710858628227,599616053508313639,105
1710858628235,599616053515994838,110
1710858628241,599616053523676037,132
1710858628249,599616053531357236,129
1710858628257,599616053539038435,115
1710858628265,599616053546719634,115
1710858628273,599616053554400833,113
1710858628281,599616053562082032,96
1710858628288,599616053569763231,62
1710858628296,599616053577444430,24
1710858628304,599616053585125629,2
1710858628312,599616053592806828,-19
1710858628319,599616053600488027,-36
1710858628327,599616053608169226,-31
1710858628335,599616053615850425,-36
1710858628342,599616053623531624,-48
1710858628350,599616053631212823,-38
1710858628358,599616053638894022,-36
1710858628365,599616053646575221,-48
1710858628373,599616053654256420,-33
1710858628381,599616053661937619,-14
1710858628388,599616053669618818,-24
1710858628396,599616053677300017,-40
1710858628404,599616053684981216,-36
1710858628411,599616053692662415,-14
1710858628419,599616053700343614,-2
1710858628427,599616053708024813,-4
1710858628433,599616053715706012,-16
1710858628441,599616053723387211,-26
1710858628449,599616053731068410,-16
1710858628457,599616053738749609,-12
1710858628465,599616053746430808,-21
1710858628473,599616053754112007,-26
1710858628481,599616053761793206,-14
1710858628488,599616053769474405,7
1710858628496,599616053777155604,7
1710858628504,599616053784836803,-14
1710858628511,599616053792518002,-16
1710858628519,599616053800199201,-7
1710858628527,599616053807880400,4
1710858628534,599616053815561599,4
1710858628542,599616053823242798,-19
1710858628550,599616053830923997,-26
1710858628557,599616053838635322,-2
1710858628565,599616053846316103,12
1710858628573,599616053853996884,9
1710858628580,599616053861677665,4
1710858628588,599616053869358446,9
1710858628596,599616053877039227,7
1710858628603,599616053884720008,-9
1710858628611,599616053892400789,-14
1710858628619,599616053900081570,-4
1710858628625,599616053907762351,-4
1710858628633,599616053915443132,-4
1710858628641,599616053923123913,-7
1710858628649,599616053930804694,-16
1710858628657,599616053938485475,-7
1710858628665,599616053946166256,14
1710858628673,599616053953847037,16
1710858628680,599616053961527818,24
1710858628688,599616053969208599,108
1710858628696,599616053976889380,288
1710858628703,599616053984570161,500
1710858628711,599616053992250942,545
1710858628719,599616053999931723,259
1710858628726,599616054007612504,-79
1710858628734,599616054015293285,-81
1710858628742,599616054022974066,26
1710858628749,599616054030654847,-24
1710858628757,599616054038335628,-50
1710858628765,599616054046016409,0
1710858628772,599616054053697190,12
1710858628780,599616054061377971,4
1710858628788,599616054069058752,9
1710858628795,599616054076739533,24
1710858628803,599616054084420314,40
1710858628811,599616054092101095,50
1710858628817,599616054099781876,52
1710858628825,599616054107462657,52
1710858628833,599616054115143438,64
1710858628841,599616054122824219,81
1710858628849,599616054130505000,76
1710858628857,599616054138185781,64
1710858628865,599616054145866562,79
1710858628872,599616054153547343,108
1710858628880,599616054161228124,129
1710858628888,599616054168908905,132
1710858628895,599616054176589686,122
1710858628903,599616054184270467,120
1710858628911,599616054191951248,120
1710858628918,599616054199632029,105
1710858628926,599616054207312810,91
1710858628934,599616054214993591,81
1710858628941,599616054222674372,72
1710858628949,599616054230355153,60
1710858628957,599616054238035934,28
1710858628964,599616054245716715,-4
1710858628972,599616054253397496,-14
1710858628980,599616054261078277,-24
1710858628987,599616054268759058,-40
1710858628995,599616054276439839,-55
1710858629003,599616054284120620,-64
1710858629011,599616054291801401,-62
1710858629017,599616054299482182,-55
1710858629025,599616054307162963,-50
1710858629033,599616054314843744,-48
1710858629041,599616054322524525,-40
1710858629049,599616054330205306,-36
1710858629057,599616054337886087,-36
1710858629064,599616054345566868,-31
1710858629072,599616054353247649,-19
1710858629080,599616054360928430,-7
1710858629087,599616054368609211,-2
1710858629095,599616054376289992,4
1710858629103,599616054383970773,-4
1710858629110,599616054391651554,-14
1710858629118,599616054399322359,-4
1710858629126,599616054407003279,-2
1710858629133,599616054414684199,-4
1710858629141,599616054422365119,-9
1710858629149,599616054430046039,-24
1710858629156,599616054437726959,-26
1710858629164,599616054445407879,-16
1710858629172,599616054453088799,-19
1710858629179,599616054460769719,-43
1710858629187,599616054468450639,-60
1710858629195,599616054476131559,-43
1710858629203,599616054483812479,-38
1710858629209,599616054491493399,-52
1710858629217,599616054499174319,-43
1710858629225,599616054506855239,-19
1710858629233,599616054514536159,-16
1710858629241,599616054522217079,-14
1710858629249,599616054529897999,12
1710858629256,599616054537578919,40
1710858629264,599616054545259839,36
1710858629272,599616054552940759,14
1710858629279,599616054560621679,4
1710858629287,599616054568302599,2
1710858629295,599616054575983519,-4
1710858629302,599616054583664439,-9
1710858629310,599616054591345359,0
1710858629318,599616054599026279,16
1710858629325,599616054606707199,14
1710858629333,599616054614388119,14
1710858629341,599616054622069039,9
1710858629348,599616054629749959,-2
1710858629356,599616054637430879,-2
1710858629364,599616054645111799,14
1710858629372,599616054652792719,93
1710858629379,599616054660473639,274
1710858629387,599616054668154559,485
1710858629395,599616054675835479,497
1710858629401,599616054683516399,182
1710858629409,599616054691197319,-120
1710858629417,599616054698878239,-84
1710858629425,599616054706559159,12
1710858629433,599616054714240079,-50
1710858629441,599616054721920999,-64
1710858629448,599616054729601919,-2
1710858629456,599616054737282839,2
1710858629464,599616054744963759,-14
1710858629471,599616054752644679,2
1710858629479,599616054760325599,19
1710858629487,599616054768006519,26
1710858629494,599616054775687439,45
1710858629502,599616054783368359,45
1710858629510,599616054791049279,19
1710858629517,599616054798730199,26
1710858629525,599616054806411119,60
1710858629533,599616054814092039,76
1710858629540,599616054821772959,88
1710858629548,599616054829453879,98
1710858629556,599616054837134799,110
1710858629564,599616054844815719,122
1710858629571,599616054852496639,134
1710858629579,599616054860177559,134
1710858629587,599616054867858479,122
1710858629593,599616054875539399,117
1710858629601,599616054883220319,115
1710858629609,599616054890901239,103
1710858629617,599616054898582159,93
1710858629625,599616054906263079,81
1710858629633,599616054913943999,62
1710858629640,599616054921624919,38
1710858629648,599616054929305839,12
1710858629656,599616054936986759,-4
1710858629663,599616054944667679,-14
1710858629671,599616054952348599,-28
1710858629679,599616054960019492,-40
1710858629686,599616054967700552,-36
1710858629694,599616054975381612,-26
1710858629702,599616054983062672,-26
1710858629709,599616054990743732,-21
1710858629717,599616054998424792,-21
1710858629725,599616055006105852,-31
1710858629732,599616055013786912,-31
1710858629740,599616055021467972,-24
1710858629748,599616055029149032,-19
1710858629756,599616055036830092,-16
1710858629763,599616055044511152,7
1710858629771,599616055052192212,33
1710858629779,599616055059873272,48
1710858629785,599616055067554332,50
1710858629793,599616055075235392,26
1710858629801,599616055082916452,7
1710858629809,599616055090597512,9
1710858629817,599616055098278572,-7
1710858629825,599616055105959632,-31
1710858629832,599616055113640692,-26
1710858629840,599616055121321752,-28
1710858629848,599616055129002812,-31
1710858629855,599616055136683872,-24
1710858629863,599616055144364932,-19
1710858629871,599616055152045992,-19
1710858629878,599616055159727052,-24
1710858629886,599616055167408112,-26
1710858629894,599616055175089172,-21
1710858629901,599616055182770232,-24
1710858629909,599616055190451292,-36
1710858629917,599616055198132352,-38
1710858629925,599616055205813412,-31
1710858629932,599616055213494472,-33
1710858629940,599616055221175532,-31
1710858629948,599616055228856592,0
1710858629955,599616055236537652,19
1710858629963,599616055244218712,7
1710858629971,599616055251899772,-7
1710858629977,599616055259580832,-7
1710858629985,599616055267261892,-7
1710858629993,599616055274942952,-12
1710858630001,599616055282624012,-9
1710858630009,599616055290305072,-12
1710858630017,599616055297986132,-21
1710858630024,599616055305667192,-14
1710858630032,599616055313348252,0
1710858630040,599616055321029312,-9
1710858630047,599616055328710372,-9
1710858630055,599616055336391432,4
1710858630063,599616055344072492,7
1710858630070,599616055351753552,72
1710858630078,599616055359434612,252
1710858630086,599616055367115672,490
1710858630094,599616055374796732,615
1710858630101,599616055382477792,418
1710858630109,599616055390158852,26
1710858630117,599616055397839912,-108
1710858630124,599616055405520972,7
1710858630132,599616055413202032,14
1710858630140,599616055420883092,-40
1710858630147,599616055428564152,-9
1710858630155,599616055436245212,16
1710858630163,599616055443926272,12
1710858630169,599616055451607332,19
1710858630177,599616055459288392,33
1710858630185,599616055466969452,52
1710858630193,599616055474650512,69
1710858630201,599616055482331572,74
1710858630209,599616055490012632,74
1710858630216,599616055497693692,64
1710858630224,599616055505374752,67
1710858630232,599616055513055812,93
1710858630239,599616055520756967,117
1710858630247,599616055528437748,115
1710858630255,599616055536118529,108
1710858630263,599616055543799310,110
1710858630270,599616055551480091,117
1710858630278,599616055559160872,125
1710858630286,599616055566841653,134
1710858630293,599616055574522434,146
1710858630301,599616055582203215,134
1710858630309,599616055589883996,113
1710858630316,599616055597564777,86
1710858630324,599616055605245558,43
1710858630332,599616055612926339,19
1710858630339,599616055620607120,7
1710858630347,599616055628287901,-26
1710858630355,599616055635968682,-50
1710858630361,599616055643649463,-48
1710858630369,599616055651330244,-45
1710858630377,599616055659011025,-45
1710858630385,599616055666691806,-36
1710858630393,599616055674372587,-14
1710858630401,599616055682053368,-9
1710858630408,599616055689734149,-26
1710858630416,599616055697414930,-31
1710858630424,599616055705095711,-24
1710858630431,599616055712776492,-14
1710858630439,599616055720457273,-12
1710858630447,599616055728138054,-43
1710858630455,599616055735818835,-60
1710858630462,599616055743499616,-19
1710858630470,599616055751180397,4
1710858630478,599616055758861178,-26
1710858630485,599616055766541959,-55
1710858630493,599616055774222740,-52
1710858630501,599616055781903521,-40
1710858630508,599616055789584302,-26
1710858630516,599616055797265083,-31
1710858630524,599616055804945864,-57
1710858630531,599616055812626645,-57
1710858630539,599616055820307426,-28
1710858630547,599616055827988207,-26
1710858630553,599616055835668988,-26
1710858630561,599616055843349769,-12
1710858630569,599616055851030550,-28
1710858630577,599616055858711331,-52
1710858630585,599616055866392112,-45
1710858630593,599616055874072893,-45
1710858630600,599616055881753674,-50
1710858630608,599616055889434455,-45
1710858630616,599616055897115236,-52
1710858630624,599616055904796017,-69
1710858630631,599616055912476798,-52
1710858630639,599616055920157579,-7
1710858630647,599616055927838360,26
1710858630654,599616055935519141,36
1710858630662,599616055943199922,26
1710858630670,599616055950880703,14
1710858630677,599616055958561484,12
1710858630685,599616055966242265,9
1710858630693,599616055973923046,-9
1710858630700,599616055981603827,-31
1710858630708,599616055989284608,-14
1710858630716,599616055996965389,16
1710858630723,599616056004646170,24
1710858630731,599616056012326951,21
1710858630739,599616056020007732,26
1710858630745,599616056027688513,26
1710858630753,599616056035369294,33
1710858630761,599616056043050075,120
1710858630769,599616056050730856,315
1710858630777,599616056058411637,533
1710858630785,599616056066092418,584
1710858630792,599616056073773199,312
1710858630800,599616056081423912,-43
1710858630808,599616056089105111,-98
1710858630815,599616056096786310,16
1710858630823,599616056104467509,9
1710858630831,599616056112148708,-28
1710858630839,599616056119829907,-2
1710858630846,599616056127511106,24
1710858630854,599616056135192305,19
1710858630862,599616056142873504,9
1710858630869,599616056150554703,12
1710858630877,599616056158235902,19
1710858630885,599616056165917101,31
1710858630892,599616056173598300,45
1710858630900,599616056181279499,50
1710858630908,599616056188960698,57
1710858630915,599616056196641897,67
1710858630923,599616056204323096,84
1710858630931,599616056212004295,101
1710858630937,599616056219685494,98
1710858630945,599616056227366693,86
1710858630953,599616056235047892,88
1710858630961,599616056242729091,108
1710858630969,599616056250410290,120
1710858630977,599616056258091489,108
1710858630984,599616056265772688,81
1710858630992,599616056273453887,84
1710858631000,599616056281135086,103
1710858631008,599616056288816285,91
1710858631015,599616056296497484,52
1710858631023,599616056304178683,33
1710858631031,599616056311859882,28
1710858631038,599616056319541081,2
1710858631046,599616056327222280,-26
1710858631054,599616056334903479,-31
1710858631061,599616056342584678,-12
1710858631069,599616056350265877,4
1710858631077,599616056357947076,-7
1710858631084,599616056365628275,-33
1710858631092,599616056373309474,-19
1710858631100,599616056380990673,4
1710858631107,599616056388671872,-2
1710858631115,599616056396353071,7
1710858631123,599616056404034270,31
1710858631129,599616056411715469,19
1710858631137,599616056419396668,-16
1710858631145,599616056427077867,-33
1710858631153,599616056434759066,-16
1710858631161,599616056442440265,-2
1710858631169,599616056450121464,-2
1710858631177,599616056457802663,-9
1710858631184,599616056465483862,-16
1710858631192,599616056473165061,-9
1710858631200,599616056480846260,4
1710858631207,599616056488527459,0
1710858631215,599616056496208658,-12
1710858631223,599616056503889857,-7
1710858631230,599616056511571056,9
1710858631238,599616056519252255,7
1710858631246,599616056526933454,-7
1710858631253,599616056534614653,-9
1710858631261,599616056542295852,2
1710858631269,599616056549977051,2
1710858631276,599616056557658250,-2
1710858631284,599616056565339449,-12
1710858631292,599616056573020648,-14
1710858631299,599616056580701847,-2
1710858631307,599616056588383046,2
1710858631315,599616056596064245,-12
1710858631321,599616056603745444,-2
1710858631329,599616056611426643,19
1710858631337,599616056619107842,7
1710858631345,599616056626789041,-2
1710858631353,599616056634470240,28
1710858631361,599616056642181567,52
1710858631369,599616056649862348,43
1710858631376,599616056657543129,33
1710858631384,599616056665223910,40
1710858631392,599616056672904691,24
1710858631399,599616056680585472,-14
1710858631407,599616056688266253,-16
1710858631415,599616056695947034,7
1710858631422,599616056703627815,14
1710858631430,599616056711308596,2
1710858631438,599616056718989377,-4
1710858631445,599616056726670158,4
1710858631453,599616056734350939,12
1710858631461,599616056742031720,-4
1710858631468,599616056749712501,2
1710858631476,599616056757393282,105
1710858631484,599616056765074063,315
1710858631491,599616056772754844,543
1710858631499,599616056780435625,579
1710858631507,599616056788116406,288
1710858631515,599616056795797187,-45
1710858631521,599616056803477968,-64
1710858631529,599616056811158749,24
1710858631537,599616056818839530,-31
1710858631545,599616056826520311,-48
1710858631553,599616056834201092,9
1710858631561,599616056841881873,21
1710858631568,599616056849562654,12
1710858631576,599616056857243435,21
1710858631584,599616056864924216,36
1710858631591,599616056872604997,57
1710858631599,599616056880285778,64
1710858631607,599616056887966559,55
1710858631614,599616056895647340,57
1710858631622,599616056903328121,69
1710858631630,599616056911008902,81
1710858631637,599616056918689683,88
1710858631645,599616056926370464,108
1710858631653,599616056934051245,132
1710858631660,599616056941732026,132
1710858631668,599616056949412807,129
1710858631676,599616056957093588,127
1710858631683,599616056964774369,115
1710858631691,599616056972455150,125
1710858631699,599616056980135931,134
1710858631707,599616056987816712,105
1710858631713,599616056995497493,86
1710858631721,599616057003178274,84
1710858631729,599616057010859055,57
1710858631737,599616057018539836,24
1710858631745,599616057026220617,24
1710858631753,599616057033901398,24
1710858631760,599616057041582179,-4
1710858631768,599616057049262960,-33
1710858631776,599616057056943741,-26
1710858631783,599616057064624522,-12
1710858631791,599616057072305303,-14
1710858631799,599616057079986084,-12
1710858631806,599616057087666865,-4
1710858631814,599616057095347646,-14
1710858631822,599616057103028427,-7
1710858631829,599616057110709208,2
1710858631837,599616057118389989,-7
1710858631845,599616057126070770,2
1710858631852,599616057133751551,19
1710858631860,599616057141432332,14
1710858631868,599616057149113113,14
1710858631876,599616057156793894,2
1710858631883,599616057164474675,-2
1710858631891,599616057172155456,19
1710858631899,599616057179836237,16
1710858631905,599616057187517018,9
1710858631913,599616057195197799,28
1710858631921,599616057202878608,31
1710858631929,599616057210559389,16
1710858631937,599616057218240170,12
1710858631945,599616057225920951,12
1710858631952,599616057233601732,24
1710858631960,599616057241282513,45
1710858631968,599616057248963294,38
1710858631975,599616057256644075,33
1710858631983,599616057264324856,43
1710858631991,599616057272005637,43
1710858631998,599616057279686418,45
1710858632006,599616057287367199,50
1710858632014,599616057295047980,48
1710858632021,599616057302728761,64
1710858632029,599616057310409542,76
1710858632037,599616057318090323,64
1710858632044,599616057325771104,60
1710858632052,599616057333451885,79
1710858632060,599616057341132666,79
1710858632068,599616057348813447,45
1710858632075,599616057356494228,31
1710858632083,599616057364175009,67
1710858632091,599616057371855790,113
1710858632097,599616057379536571,110
1710858632105,599616057387217352,81
1710858632113,599616057394898133,67
1710858632121,599616057402578914,74
1710858632129,599616057410259695,62
1710858632137,599616057417940476,36
1710858632144,599616057425621257,28
1710858632152,599616057433302038,50
1710858632160,599616057440982819,64
1710858632167,599616057448663600,50
1710858632175,599616057456344381,28
1710858632183,599616057464025162,31
1710858632190,599616057471705943,43
1710858632198,599616057479386724,45
1710858632206,599616057487067505,55
1710858632213,599616057494748286,156
1710858632221,599616057502429067,375
1710858632229,599616057510109848,553
1710858632236,599616057517790629,471
1710858632244,599616057525471410,120
1710858632252,599616057533152191,-120
1710858632260,599616057540832972,-45
1710858632267,599616057548513753,-2
1710858632275,599616057556194534,-74
1710858632283,599616057563875315,-38
1710858632289,599616057571556096,24
1710858632297,599616057579236877,-9
1710858632305,599616057586917658,-19
1710858632313,599616057594598439,16
1710858632321,599616057602279220,28
1710858632329,599616057609960001,33
1710858632336,599616057617640782,57
1710858632344,599616057625321563,72
1710858632352,599616057633002344,69
1710858632359,599616057640683125,69
1710858632367,599616057648363906,79
1710858632375,599616057656044687,103
1710858632382,599616057663725468,129
1710858632390,599616057671406249,127
1710858632398,599616057679087030,110
1710858632405,599616057686767811,96
1710858632413,599616057694448592,103
1710858632421,599616057702129373,113
1710858632429,599616057709810154,101
1710858632436,599616057717490935,86
1710858632444,599616057725171716,81
1710858632452,599616057732852497,79
1710858632459,599616057740533278,76
1710858632467,599616057748214059,55
1710858632475,599616057755894840,16
1710858632481,599616057763545555,-4
1710858632489,599616057771226754,2
1710858632497,599616057778907953,-7
1710858632505,599616057786589152,-40
1710858632513,599616057794270351,-57
1710858632521,599616057801951550,-48
1710858632528,599616057809632749,-48
1710858632536,599616057817313948,-62
1710858632544,599616057824995147,-64
1710858632551,599616057832676346,-36
1710858632559,599616057840357545,-14
1710858632567,599616057848038744,-28
1710858632574,599616057855719943,-31
1710858632582,599616057863401142,-14
1710858632590,599616057871082341,-9
1710858632597,599616057878763540,-9
1710858632605,599616057886444739,-7
1710858632613,599616057894125938,0
1710858632621,599616057901807137,-2
1710858632628,599616057909488336,-2
1710858632636,599616057917169535,21
1710858632644,599616057924850734,31
1710858632651,599616057932531933,26
1710858632659,599616057940213132,31
1710858632667,599616057947894331,38
1710858632673,599616057955575530,26
1710858632681,599616057963256729,2
1710858632689,599616057970937928,14
1710858632697,599616057978619127,31
1710858632705,599616057986300326,7
1710858632713,599616057993981525,-9
1710858632720,599616058001662724,12
1710858632728,599616058009343923,19
1710858632736,599616058017025122,7
1710858632743,599616058024706321,4
1710858632751,599616058032387520,-2
1710858632759,599616058040068719,-9
1710858632766,599616058047749918,-4
1710858632774,599616058055431117,-9
1710858632782,599616058063112316,-16
1710858632790,599616058070793515,-9
1710858632797,599616058078474714,12
1710858632805,599616058086155913,31
1710858632813,599616058093837112,40
1710858632820,599616058101518311,36
1710858632828,599616058109199510,36
1710858632836,599616058116880709,36
1710858632843,599616058124561908,21
1710858632851,599616058132243107,0
1710858632859,599616058139924306,0
1710858632865,599616058147605505,16
1710858632873,599616058155286704,4
1710858632881,599616058162967903,-16
1710858632889,599616058170649102,-4
1710858632897,599616058178330301,19
1710858632905,599616058186011500,21
1710858632912,599616058193692699,12
1710858632920,599616058201373898,4
1710858632928,599616058209055097,62
1710858632935,599616058216736296,235
1710858632943,599616058224417495,437
1710858632951,599616058232098694,514
1710858632958,599616058239779893,290
1710858632966,599616058247461092,-67
1710858632974,599616058255142291,-115
1710858632982,599616058262823490,19
1710858632989,599616058270504689,-19
1710858632997,599616058278185888,-60
1710858633005,599616058285867087,7
1710858633012,599616058293548286,21
1710858633020,599616058301229485,4
1710858633028,599616058308910684,31
1710858633035,599616058316591883,60
1710858633043,599616058324303210,43
1710858633051,599616058331983991,9
1710858633057,599616058339664772,0
1710858633065,599616058347345553,14
1710858633073,599616058355026334,24
1710858633081,599616058362707115,26
1710858633089,599616058370387896,40
1710858633097,599616058378068677,52
1710858633104,599616058385749458,48
1710858633112,599616058393430239,45
1710858633120,599616058401111020,74
1710858633128,599616058408791801,141
1710858633135,599616058416472582,187
1710858633143,599616058424153363,156
1710858633151,599616058431834144,96
1710858633158,599616058439514925,79
1710858633166,599616058447195706,84
1710858633174,599616058454876487,62
1710858633181,599616058462557268,52
1710858633189,599616058470238049,69
1710858633197,599616058477918830,24
1710858633204,599616058485599611,-67
1710858633212,599616058493280392,-43
1710858633220,599616058500961173,24
1710858633227,599616058508641954,-19
1710858633235,599616058516322735,-57
1710858633243,599616058524003516,-14
1710858633249,599616058531684297,21
1710858633257,599616058539365078,7
1710858633265,599616058547045859,-7
1710858633273,599616058554726640,-38
1710858633281,599616058562407421,-98
1710858633289,599616058570088202,-79
1710858633296,599616058577768983,16
1710858633304,599616058585449764,26
1710858633312,599616058593130545,-57
1710858633320,599616058600811326,-74
1710858633327,599616058608492107,-52
1710858633335,599616058616172888,-86
1710858633343,599616058623853669,-105
1710858633350,599616058631534450,-64
1710858633358,599616058639215231,-21
1710858633366,599616058646896012,-38
1710858633373,599616058654576793,-86
1710858633381,599616058662257574,-98
1710858633389,599616058669938355,-84
1710858633396,599616058677619136,-81
1710858633404,599616058685299917,-93
1710858633412,599616058692980698,-76
1710858633419,599616058700661479,-45
1710858633427,599616058708342260,-67
1710858633435,599616058716023041,-98
1710858633441,599616058723703822,-84
1710858633449,599616058731384603,-67
1710858633457,599616058739065384,-60
1710858633465,599616058746746165,-62
1710858633473,599616058754426946,-88
1710858633481,599616058762107727,-72
1710858633488,599616058769788508,-33
1710858633496,599616058777469289,-67
1710858633504,599616058785150070,-101
1710858633512,599616058792830851,-81
1710858633519,599616058800511632,-81
1710858633527,599616058808192413,-81
1710858633535,599616058815873194,-57
1710858633542,599616058823553975,-24
1710858633550,599616058831234756,7
1710858633558,599616058838915537,-14
1710858633565,599616058846596318,-55
1710858633573,599616058854277099,-48
1710858633581,599616058861957880,-28
1710858633588,599616058869638661,-36
1710858633596,599616058877319442,-36
1710858633604,599616058885000251,-31
1710858633611,599616058892681032,-40
1710858633619,599616058900361813,-38
1710858633627,599616058908042594,-24
1710858633633,599616058915723375,-33
1710858633641,599616058923404156,-45
1710858633649,599616058931084937,12
1710858633657,599616058938765718,182
1710858633665,599616058946446499,425
1710858633673,599616058954127280,567
1710858633681,599616058961808061,353
1710858633688,599616058969488842,-67
1710858633696,599616058977169623,-182
1710858633704,599616058984850404,-64
1710858633711,599616058992531185,-105
1710858633719,599616059000211966,-158
1710858633727,599616059007892747,-93
1710858633734,599616059015573528,-76
1710858633742,599616059023254309,-93
1710858633750,599616059030935090,-55
1710858633757,599616059038615871,-31
1710858633765,599616059046296652,-28
1710858633773,599616059053977433,0
1710858633780,599616059061658214,7
1710858633788,599616059069338995,-12
1710858633796,599616059077019776,2
1710858633803,599616059084700557,26
1710858633811,599616059092381338,33
1710858633819,599616059100062119,33
1710858633825,599616059107742900,43
1710858633833,599616059115423681,55
1710858633841,599616059123104462,45
1710858633849,599616059130785243,38
1710858633857,599616059138466024,52
1710858633865,599616059146146805,60
1710858633873,599616059153827586,45
1710858633880,599616059161508367,38
1710858633888,599616059169189148,33
1710858633896,599616059176869929,19
1710858633903,599616059184550710,4
1710858633911,599616059192231491,-12
1710858633919,599616059199912272,-36
1710858633926,599616059207593053,-55
1710858633934,599616059215273834,-62
1710858633942,599616059222954615,-67
1710858633949,599616059230635396,-79
1710858633957,599616059238316177,-91
1710858633965,599616059245996958,-84
1710858633972,599616059253677739,-79
1710858633980,599616059261358520,-86
1710858633988,599616059269039301,-79
1710858633995,599616059276720082,-60
1710858634003,599616059284400863,-48
1710858634011,599616059292081644,-38
1710858634017,599616059299762425,-38
1710858634025,599616059307443206,-50
1710858634033,599616059315123987,-52
1710858634041,599616059322804768,-33
1710858634049,599616059330485549,-26
1710858634057,599616059338166330,-31
1710858634065,599616059345847111,-24
1710858634072,599616059353527892,-16
1710858634080,599616059361208673,-16
1710858634088,599616059368889454,-12
1710858634095,599616059376570235,-12
1710858634103,599616059384251016,-12
1710858634111,599616059391931797,-4
1710858634118,599616059399612578,9
1710858634126,599616059407293359,19
1710858634134,599616059414974140,9
1710858634141,599616059422654921,2
1710858634149,599616059430335702,12
1710858634157,599616059438016483,16
1710858634164,599616059445697292,12
1710858634172,599616059453378073,9
1710858634180,599616059461058854,14
1710858634187,599616059468739635,16
1710858634195,599616059476420416,4
1710858634203,599616059484101197,-14
1710858634209,599616059491781978,-16
1710858634217,599616059499462759,4
1710858634225,599616059507143540,9
1710858634233,599616059514824321,7
1710858634241,599616059522505102,7
1710858634249,599616059530185883,9
1710858634257,599616059537866664,16
1710858634264,599616059545547445,24
1710858634272,599616059553228226,12
1710858634280,599616059560909007,-12
1710858634287,599616059568589788,-9
1710858634295,599616059576270569,7
1710858634303,599616059583951350,-21
1710858634310,599616059591632131,-52
1710858634318,599616059599312912,-31
1710858634326,599616059606993693,-9
1710858634333,599616059614674474,-24
1710858634341,599616059622355255,-33
1710858634349,599616059630036036,-21
1710858634356,599616059637716817,-21
1710858634364,599616059645397598,4
1710858634372,599616059653078379,151
1710858634379,599616059660759160,382
1710858634387,599616059668439941,565
1710858634395,599616059676120722,485
1710858634403,599616059683801503,101
1710858634409,599616059691482284,-141
1710858634417,599616059699163065,-43
1710858634425,599616059706843846,4
1710858634433,599616059714524627,-67
1710858634441,599616059722205408,-33
1710858634449,599616059729886189,4
1710858634456,599616059737566970,-9
1710858634464,599616059745247751,14
1710858634472,599616059752928532,38
1710858634479,599616059760609313,24
1710858634487,599616059768290094,21
1710858634495,599616059775970875,38
1710858634502,599616059783651656,45
1710858634510,599616059791332437,50
1710858634518,599616059799013218,60
1710858634525,599616059806693999,67
1710858634533,599616059814374780,50
1710858634541,599616059822055561,38
1710858634548,599616059829736342,52
1710858634556,599616059837417123,67
1710858634564,599616059845097904,72
1710858634571,599616059852778685,67
1710858634579,599616059860459466,55
1710858634587,599616059868140247,57
1710858634595,599616059875821028,67
1710858634601,599616059883501809,64
1710858634609,599616059891182590,57
1710858634617,599616059898863371,43
1710858634625,599616059906544152,24
1710858634633,599616059914224933,0
1710858634641,599616059921905714,-33
1710858634648,599616059929586495,-45
1710858634656,599616059937267276,-36
1710858634664,599616059944948057,-43
1710858634671,599616059952628838,-67
1710858634679,599616059960309619,-76
1710858634687,599616059967990400,-62
1710858634694,599616059975671181,-45
1710858634702,599616059983351962,-48
1710858634710,599616059991032743,-48
1710858634717,599616059998713524,-38
1710858634725,599616060006394333,-28
1710858634733,599616060014075114,-28
1710858634740,599616060021755895,-38
1710858634748,599616060029436676,-24
1710858634756,599616060037117457,-2
1710858634764,599616060044798238,-14
1710858634771,599616060052479019,-33
1710858634779,599616060060159800,-33
1710858634787,599616060067840581,-36
1710858634793,599616060075521362,-38
1710858634801,599616060083202143,-26
1710858634809,599616060090882924,-21
1710858634817,599616060098563705,-24
1710858634825,599616060106244486,-19
1710858634833,599616060113925267,0
1710858634840,599616060121606048,19
1710858634848,599616060129286829,26
1710858634856,599616060136967610,12
1710858634863,599616060144648391,-2
1710858634871,599616060152329172,16
1710858634879,599616060160009953,43
1710858634886,599616060167690734,36
1710858634894,599616060175371515,12
1710858634902,599616060183052296,24
1710858634909,599616060190733077,55
1710858634917,599616060198413858,48
1710858634925,599616060206094639,28
1710858634932,599616060213775420,31
1710858634940,599616060221456201,36
1710858634948,599616060229136982,38
1710858634956,599616060236817763,45
1710858634963,599616060244498544,45
1710858634971,599616060252179325,45
1710858634979,599616060259860106,62
1710858634985,599616060267540887,81
1710858634993,599616060275221668,81
1710858635001,599616060282902449,72
1710858635009,599616060290583230,62
1710858635017,599616060298264011,67
1710858635025,599616060305944792,79
1710858635032,599616060313625573,60
1710858635040,599616060321306354,40
1710858635048,599616060328987135,50
1710858635055,599616060336667916,64
1710858635063,599616060344348697,74
1710858635071,599616060352029478,62
1710858635078,599616060359710259,43
1710858635086,599616060367391040,45
1710858635094,599616060375071821,55
1710858635101,599616060382752602,103
1710858635109,599616060390433383,259
1710858635117,599616060398114164,490
1710858635125,599616060405794945,601
1710858635132,599616060413475726,375
1710858635140,599616060421156507,-12
1710858635148,599616060428837288,-103
1710858635155,599616060436518069,21
1710858635163,599616060444198850,4
1710858635171,599616060451879631,-26
1710858635177,599616060459560412,24
1710858635185,599616060467241193,14
1710858635193,599616060474921974,-9
1710858635201,599616060482602755,9
1710858635209,599616060490283536,14
1710858635217,599616060497964317,31
1710858635224,599616060505645098,57
1710858635232,599616060513325879,45
1710858635240,599616060521006660,36
1710858635247,599616060528687441,50
1710858635255,599616060536368222,50
1710858635263,599616060544049003,57
1710858635270,599616060551729784,64
1710858635278,599616060559410565,48
1710858635286,599616060567091374,43
1710858635293,599616060574772155,72
1710858635301,599616060582452936,88
1710858635309,599616060590133717,74
1710858635317,599616060597814498,62
1710858635324,599616060605495279,64
1710858635332,599616060613176060,50
1710858635340,599616060620856841,26
1710858635347,599616060628537622,24
1710858635355,599616060636218403,31
1710858635363,599616060643899184,12
1710858635369,599616060651579965,-24
1710858635377,599616060659260746,-50
1710858635385,599616060666941527,-62
1710858635393,599616060674622308,-64
1710858635401,599616060682303089,-67
1710858635409,599616060689983870,-76
1710858635416,599616060697664651,-86
1710858635424,599616060705345432,-76
1710858635432,599616060713026213,-69
1710858635439,599616060720706994,-74
1710858635447,599616060728387775,-81
1710858635455,599616060736068556,-76
1710858635462,599616060743749337,-52
1710858635470,599616060751430118,-31
1710858635478,599616060759110899,-31
1710858635486,599616060766791680,-38
1710858635493,599616060774472461,-28
1710858635501,599616060782153242,7
1710858635509,599616060789834023,19
1710858635516,599616060797514804,-4
1710858635524,599616060805195585,-12
1710858635532,599616060812876366,9
1710858635539,599616060820557147,4
1710858635547,599616060828237928,-4
1710858635555,599616060835918709,4
1710858635561,599616060843599490,12
1710858635569,599616060851280271,2
1710858635577,599616060858961052,-2
1710858635585,599616060866641833,4
1710858635593,599616060874322614,16
1710858635601,599616060882003395,38
1710858635608,599616060889684176,38
1710858635616,599616060897364957,12
1710858635624,599616060905045738,21
1710858635631,599616060912726519,45
1710858635639,599616060920407300,16
1710858635647,599616060928088081,-24
1710858635654,599616060935768862,2
1710858635662,599616060943449643,26
1710858635670,599616060951130424,2
1710858635678,599616060958811205,-2
1710858635685,599616060966491986,12
1710858635693,599616060974172767,19
1710858635701,599616060981853548,19
1710858635708,599616060989534329,9
1710858635716,599616060997215110,12
1710858635724,599616061004895891,43
1710858635731,599616061012576672,52
1710858635739,599616061020257453,24
1710858635747,599616061027938234,4
1710858635753,599616061035619015,21
1710858635761,599616061043299796,26
1710858635769,599616061050980577,9
1710858635777,599616061058661358,4
1710858635785,599616061066342139,9
1710858635793,599616061074022920,14
1710858635800,599616061081703701,31
1710858635808,599616061089384482,28
1710858635816,599616061097065263,0
1710858635823,599616061104746044,4
1710858635831,599616061112426825,38
1710858635839,599616061120107606,76
1710858635846,599616061127778409,206
1710858635854,599616061135459329,456
1710858635862,599616061143140249,670
1710858635870,599616061150821169,550
1710858635877,599616061158502089,93
1710858635885,599616061166183009,-158
1710858635893,599616061173863929,-26
1710858635900,599616061181544849,0
1710858635908,599616061189225769,-93
1710858635916,599616061196906689,-26
1710858635923,599616061204587609,28
1710858635931,599616061212268529,-31
1710858635939,599616061219949449,-45
1710858635945,599616061227630369,4
1710858635953,599616061235311289,21
1710858635961,599616061242992209,2
1710858635969,599616061250673129,0
1710858635977,599616061258354049,14
1710858635985,599616061266034969,21
1710858635992,599616061273715889,21
1710858636000,599616061281396809,31
1710858636008,599616061289077729,55
1710858636015,599616061296758649,72
1710858636023,599616061304439569,74
1710858636031,599616061312120489,72
1710858636039,599616061319801409,67
1710858636046,599616061327482329,79
1710858636054,599616061335163249,101
1710858636062,599616061342844169,105
1710858636069,599616061350525089,86
1710858636077,599616061358206009,74
1710858636085,599616061365886929,79
1710858636092,599616061373567849,72
1710858636100,599616061381248769,50
1710858636108,599616061388929689,14
1710858636115,599616061396610609,-19
1710858636123,599616061404291529,-24
1710858636131,599616061411972449,-19
1710858636137,599616061419653369,-40
1710858636145,599616061427334289,-60
1710858636153,599616061435015209,-57
1710858636161,599616061442696129,-45
1710858636169,599616061450377049,-31
1710858636177,599616061458057969,-26
1710858636184,599616061465738889,-24
1710858636192,599616061473419809,-16
1710858636200,599616061481100729,-21
1710858636207,599616061488781649,-38
1710858636215,599616061496462569,-48
1710858636223,599616061504143489,-28
1710858636231,599616061511824409,0
1710858636238,599616061519505329,4
1710858636246,599616061527186249,-2
1710858636254,599616061534867169,4
1710858636261,599616061542548089,14
1710858636269,599616061550229009,9
1710858636277,599616061557909929,12
1710858636284,599616061565590849,24
1710858636292,599616061573271769,16
1710858636300,599616061580952689,-12
1710858636307,599616061588633609,-21
1710858636315,599616061596314529,2
1710858636323,599616061603995449,12
1710858636329,599616061611676369,-2
1710858636337,599616061619357289,-7
1710858636345,599616061627038209,0
1710858636353,599616061634719129,4
1710858636361,599616061642400049,19
1710858636369,599616061650080969,19
1710858636376,599616061657761889,9
1710858636384,599616061665442809,21
1710858636392,599616061673123729,26
1710858636400,599616061680804649,14
1710858636407,599616061688490590,26
1710858636415,599616061696171441,38
1710858636423,599616061703852292,28
1710858636430,599616061711533143,36
1710858636438,599616061719213994,64
1710858636446,599616061726894845,74
1710858636453,599616061734575696,62
1710858636461,599616061742256547,40
1710858636469,599616061749937398,33
1710858636476,599616061757618249,38
1710858636484,599616061765299100,24
1710858636492,599616061772979951,-12
1710858636499,599616061780660802,-33
1710858636507,599616061788341653,-21
1710858636515,599616061796022504,-19
1710858636521,599616061803703355,-38
1710858636529,599616061811384206,-38
1710858636537,599616061819065057,-21
1710858636545,599616061826745908,-21
1710858636553,599616061834426759,2
1710858636561,599616061842107610,127
1710858636568,599616061849788461,360
1710858636576,599616061857469312,584
1710858636584,599616061865150163,553
1710858636592,599616061872831014,177
1710858636599,599616061880511865,-137
1710858636607,599616061888192716,-88
1710858636615,599616061895873567,-4
1710858636622,599616061903554418,-60
1710858636630,599616061911235269,-60
1710858636638,599616061918916120,-36
1710858636645,599616061926596971,-52
1710858636653,599616061934277822,-33
1710858636661,599616061941958673,0
1710858636668,599616061949639524,-2
1710858636676,599616061957320375,-12
1710858636684,599616061965001226,-9
1710858636691,599616061972682077,-7
1710858636699,599616061980362928,-4
1710858636707,599616061988043779,4
1710858636713,599616061995724630,16
1710858636721,599616062003405481,26
1710858636729,599616062011086332,43
1710858636737,599616062018767183,69
1710858636745,599616062026448034,67
1710858636753,599616062034128885,48
1710858636761,599616062041809736,57
1710858636768,599616062049490587,81
1710858636776,599616062057171438,84
1710858636784,599616062064852289,64
1710858636791,599616062072533140,36
1710858636799,599616062080213991,24
1710858636807,599616062087894842,16
1710858636814,599616062095575693,-7
1710858636822,599616062103256544,-26
1710858636830,599616062110937395,-33
1710858636837,599616062118618246,-55
1710858636845,599616062126299097,-79
1710858636853,599616062133979948,-86
1710858636860,599616062141660799,-91
1710858636868,599616062149341650,-103
1710858636876,599616062157022501,-101
1710858636883,599616062164703352,-91
1710858636891,599616062172384203,-91
1710858636899,599616062180065054,-79
1710858636905,599616062187745905,-55
1710858636913,599616062195426756,-60
1710858636921,599616062203107607,-81
1710858636929,599616062210788458,-74
1710858636937,599616062218469309,-40
1710858636945,599616062226150160,-28
1710858636953,599616062233831011,-45
1710858636960,599616062241511862,-48
1710858636968,599616062249192717,-26
1710858636976,599616062256873568,-12
1710858636983,599616062264554419,-7
1710858636991,599616062272235270,-7
1710858636999,599616062279916121,-16
1710858637006,599616062287596972,0
1710858637014,599616062295277823,28
1710858637022,599616062302958674,21
1710858637029,599616062310639525,12
1710858637037,599616062318320376,33
1710858637045,599616062326001227,33
1710858637052,599616062333682078,14
1710858637060,599616062341362929,0
1710858637068,599616062349043780,-21
1710858637075,599616062356724631,-21
1710858637083,599616062364405482,-2
1710858637091,599616062372086333,-2
1710858637097,599616062379767184,-24
1710858637105,599616062387448035,-33
1710858637113,599616062395128886,-31
1710858637121,599616062402809737,-26
1710858637129,599616062410490588,-24
1710858637137,599616062418171439,-24
1710858637145,599616062425852290,-26
1710858637152,599616062433533141,-14
1710858637160,599616062441213992,0
1710858637168,599616062448894843,9
1710858637175,599616062456575694,7
1710858637183,599616062464256545,-4
1710858637191,599616062471937396,-12
1710858637198,599616062479618247,-16
1710858637206,599616062487299098,-19
1710858637214,599616062494979949,-14
1710858637221,599616062502660800,-21
1710858637229,599616062510341651,-33
1710858637237,599616062518022502,-24
1710858637244,599616062525703353,-14
1710858637252,599616062533384204,-21
1710858637260,599616062541065055,-14
1710858637267,599616062548745906,-4
1710858637275,599616062556426757,31
1710858637283,599616062564107608,175
1710858637289,599616062571788459,406
1710858637297,599616062579469310,569
1710858637305,599616062587150161,471
1710858637313,599616062594831012,91
1710858637321,599616062602511863,-144
1710858637329,599616062610192714,-52
1710858637337,599616062617873565,-21
1710858637344,599616062625554416,-117
1710858637352,599616062633235267,-101
1710858637360,599616062640916118,-52
1710858637367,599616062648596969,-72
1710858637375,599616062656277820,-76
1710858637383,599616062663958671,-52
1710858637390,599616062671639522,-43
1710858637398,599616062679320373,-45
