phoneTimestamp,sensorTimestamp,ecg
1712048686159,599616057746013386,19197
1712048686166,599616057753679744,19197
1712048686174,599616057761346102,19197
1712048686181,599616057769012460,19197
1712048686189,599616057776678818,19197
1712048686197,599616057784345176,19197
1712048686204,599616057792011534,19197
1712048686212,599616057799677892,19197
1712048686220,599616057807344250,19197
1712048686227,599616057815010608,19197
1712048686235,599616057822676966,19197
1712048686243,599616057830343324,19197
1712048686249,599616057838009682,19197
1712048686257,599616057845676040,19197
1712048686265,599616057853342398,19197
1712048686273,599616057861008756,19197
1712048686281,599616057868675114,19197
1712048686289,599616057876341472,19197
1712048686296,599616057884007830,19197
1712048686304,599616057891674188,19197
1712048686312,599616057899340546,19197
1712048686319,599616057907006904,19197
1712048686327,599616057914673262,19197
1712048686335,599616057922339620,19197
1712048686342,599616057930005978,19197
1712048686350,599616057937672336,19197
1712048686358,599616057945338694,19197
1712048686365,599616057953005052,19197
1712048686373,599616057960671410,19197
1712048686381,599616057968337768,19197
1712048686388,599616057976004126,19197
1712048686396,599616057983670484,19197
1712048686404,599616057991336842,19197
1712048686411,599616057999003200,19197
1712048686419,599616058006669558,19197
1712048686427,599616058014335916,19197
1712048686433,599616058022002274,19197
1712048686441,599616058029668632,19197
1712048686449,599616058037334990,19197
1712048686457,599616058045001348,19197
1712048686465,599616058052667706,19197
1712048686473,599616058060334064,19197
1712048686480,599616058068000422,19197
1712048686488,599616058075666780,19197
1712048686496,599616058083333138,19197
1712048686503,599616058090999496,19197
1712048686511,599616058098665854,19197
1712048686519,599616058106332212,19197
1712048686526,599616058113998570,19197
1712048686534,599616058121664928,19197
1712048686542,599616058129331286,19197
1712048686549,599616058136997644,19197
1712048686557,599616058144664002,19197
1712048686565,599616058152330360,19197
1712048686572,599616058159996718,19197
1712048686580,599616058167663076,19197
1712048686588,599616058175329434,19197
1712048686595,599616058182995792,19197
1712048686603,599616058190662150,19197
1712048686611,599616058198328508,19197
1712048686617,599616058205994866,19197
1712048686625,599616058213661224,19197
1712048686633,599616058221327582,19197
1712048686641,599616058228993940,19197
1712048686649,599616058236660298,19197
1712048686657,599616058244326656,19197
1712048686664,599616058251993014,19197
1712048686672,599616058259659372,19197
1712048686680,599616058267325730,19197
1712048686687,599616058274992088,19197
1712048686695,599616058282658446,19197
1712048686703,599616058290324804,19197
1712048686710,599616058297991162,19197
1712048686718,599616058305672604,19197
1712048686726,599616058313338753,19197
1712048686733,599616058321004902,19197
1712048686741,599616058328671051,19197
1712048686749,599616058336337200,19197
1712048686756,599616058344003349,19197
1712048686764,599616058351669498,19197
1712048686772,599616058359335647,19197
1712048686779,599616058367001796,19197
1712048686787,599616058374667945,19197
1712048686795,599616058382334094,19197
1712048686801,599616058390000243,19197
1712048686809,599616058397666392,19197
1712048686817,599616058405332541,19197
1712048686825,599616058412998690,19197
1712048686833,599616058420664839,19197
1712048686841,599616058428330988,19197
1712048686848,599616058435997137,19197
1712048686856,599616058443663286,19197
1712048686864,599616058451329435,19197
1712048686871,599616058458995584,19197
1712048686879,599616058466661733,19197
1712048686887,599616058474327882,19197
1712048686894,599616058481994031,19197
1712048686902,599616058489660180,19197
1712048686910,599616058497326329,19197
1712048686917,599616058504992478,19197
1712048686925,599616058512658627,19197
1712048686933,599616058520324776,19197
1712048686940,599616058527990925,19197
1712048686948,599616058535657074,19197
1712048686956,599616058543323223,19197
1712048686963,599616058550989372,19197
1712048686971,599616058558655521,19197
1712048686979,599616058566321670,19197
1712048686985,599616058573987819,19197
1712048686993,599616058581653968,19197
1712048687001,599616058589320117,19197
1712048687009,599616058596986266,19197
1712048687017,599616058604652415,19197
1712048687025,599616058612318564,19197
1712048687032,599616058619984713,19197
1712048687040,599616058627650862,19197
1712048687048,599616058635317011,19197
1712048687055,599616058642983160,19197
1712048687063,599616058650649309,19197
1712048687071,599616058658315458,19197
1712048687078,599616058665981607,19197
1712048687086,599616058673647756,19197
1712048687094,599616058681313905,19197
1712048687101,599616058688980054,19197
1712048687109,599616058696646203,19197
1712048687117,599616058704312352,19197
1712048687124,599616058711978501,19197
1712048687132,599616058719644650,19197
1712048687140,599616058727310799,19197
1712048687147,599616058734976948,19197
1712048687155,599616058742643097,19197
1712048687163,599616058750309246,19197
1712048687169,599616058757975395,19197
1712048687177,599616058765641544,19197
1712048687185,599616058773307693,19197
1712048687193,599616058780973842,19197
1712048687201,599616058788639991,19197
1712048687209,599616058796306140,19197
1712048687216,599616058803972289,19197
1712048687224,599616058811638438,19197
1712048687232,599616058819304587,19197
1712048687239,599616058826970736,19197
1712048687247,599616058834636885,19197
1712048687255,599616058842303034,19197
1712048687262,599616058849969183,19197
1712048687270,599616058857635332,19197
1712048687278,599616058865281426,19197
1712048687285,599616058872947854,19197
1712048687293,599616058880614282,19197
1712048687301,599616058888280710,19197
1712048687308,599616058895947138,19197
1712048687316,599616058903613566,19197
1712048687324,599616058911279994,19197
1712048687331,599616058918946422,19197
1712048687339,599616058926612850,19197
1712048687347,599616058934279278,19197
1712048687353,599616058941945706,19197
1712048687361,599616058949612134,19197
1712048687369,599616058957278562,19197
1712048687377,599616058964944990,19197
1712048687385,599616058972611418,19197
1712048687393,599616058980277846,19197
1712048687400,599616058987944274,19197
1712048687408,599616058995610702,19197
1712048687416,599616059003277130,19197
1712048687423,599616059010943558,19197
1712048687431,599616059018609986,19197
1712048687439,599616059026276414,19197
1712048687446,599616059033942842,19197
1712048687454,599616059041609270,19197
1712048687462,599616059049275698,19197
1712048687469,599616059056942126,19197
1712048687477,599616059064608554,19197
1712048687485,599616059072274982,19197
1712048687492,599616059079941410,19197
1712048687500,599616059087607838,19197
1712048687508,599616059095274266,19197
1712048687515,599616059102940694,19197
1712048687523,599616059110607122,19197
1712048687531,599616059118273550,19197
1712048687537,599616059125939978,19197
1712048687545,599616059133606406,19197
1712048687553,599616059141272834,19197
1712048687561,599616059148939262,19197
1712048687569,599616059156605690,19197
1712048687577,599616059164272118,19197
1712048687584,599616059171938546,19197
1712048687592,599616059179604974,19197
1712048687600,599616059187271402,19197
1712048687607,599616059194937830,19197
1712048687615,599616059202604258,19197
1712048687623,599616059210270686,19197
1712048687630,599616059217937114,19197
1712048687638,599616059225603542,19197
1712048687646,599616059233269970,19197
1712048687653,599616059240936398,19197
1712048687661,599616059248602826,19197
1712048687669,599616059256269254,19197
1712048687676,599616059263935682,19197
1712048687684,599616059271602110,19197
1712048687692,599616059279268538,19197
1712048687699,599616059286934966,19197
1712048687707,599616059294601394,19197
1712048687715,599616059302267822,19197
1712048687721,599616059309934250,19197
1712048687729,599616059317600678,19197
1712048687737,599616059325267106,19197
1712048687745,599616059332933534,19197
1712048687753,599616059340599962,19197
1712048687761,599616059348266390,19197
1712048687768,599616059355932818,19197
1712048687776,599616059363599246,19197
1712048687784,599616059371265674,19197
1712048687791,599616059378932102,18930
1712048687799,599616059386598530,17746
1712048687807,599616059394264958,15403
1712048687814,599616059401931386,12703
1712048687822,599616059409597814,12248
1712048687830,599616059417264242,13905
1712048687837,599616059424900586,14812
1712048687845,599616059432567432,14153
1712048687853,599616059440234278,13889
1712048687860,599616059447901124,14301
1712048687868,599616059455567970,14395
1712048687876,599616059463234816,14629
1712048687883,599616059470901662,15189
1712048687891,599616059478568508,15351
1712048687899,599616059486235354,15349
1712048687905,599616059493902200,15904
1712048687913,599616059501569046,17013
1712048687921,599616059509235892,18105
1712048687929,599616059516902738,18829
1712048687937,599616059524569584,19197
1712048687945,599616059532236430,19197
1712048687952,599616059539903276,19197
1712048687960,599616059547570122,19197
1712048687968,599616059555236968,19197
1712048687975,599616059562903814,19197
1712048687983,599616059570570660,19197
1712048687991,599616059578237506,19197
1712048687998,599616059585904352,19197
1712048688006,599616059593571198,19197
1712048688014,599616059601238044,19197
1712048688021,599616059608904890,19197
1712048688029,599616059616571736,19197
1712048688037,599616059624238582,19197
1712048688044,599616059631905428,19197
1712048688052,599616059639572274,19197
1712048688060,599616059647239120,19197
1712048688067,599616059654905966,19197
1712048688075,599616059662572812,19197
1712048688083,599616059670239658,19197
1712048688089,599616059677906504,19197
1712048688097,599616059685573350,19197
1712048688105,599616059693240196,19197
1712048688113,599616059700907042,19197
1712048688121,599616059708573888,19197
1712048688129,599616059716240734,19197
1712048688136,599616059723907580,19197
1712048688144,599616059731574426,19197
1712048688152,599616059739241272,19197
1712048688159,599616059746908118,19197
1712048688167,599616059754574964,19197
1712048688175,599616059762241810,19197
1712048688182,599616059769908656,19197
1712048688190,599616059777575502,19197
1712048688198,599616059785242348,19197
1712048688205,599616059792909194,19197
1712048688213,599616059800576040,19197
1712048688221,599616059808242886,19197
1712048688228,599616059815909732,19197
1712048688236,599616059823576578,19197
1712048688244,599616059831243424,19197
1712048688251,599616059838910270,19197
1712048688259,599616059846577116,19197
1712048688267,599616059854243962,19197
1712048688273,599616059861910808,19197
1712048688281,599616059869577654,19197
1712048688289,599616059877244500,19197
1712048688297,599616059884911346,19197
1712048688305,599616059892578192,19197
1712048688313,599616059900245038,19197
1712048688320,599616059907911884,19197
1712048688328,599616059915578730,19197
1712048688336,599616059923245576,19197
1712048688343,599616059930912422,19197
1712048688351,599616059938579268,19197
1712048688359,599616059946246114,19197
1712048688366,599616059953912960,19197
1712048688374,599616059961579806,19197
1712048688382,599616059969246652,19197
1712048688389,599616059976913498,19197
1712048688397,599616059984580360,19197
1712048688405,599616059992247206,19197
1712048688412,599616059999914052,19197
1712048688420,599616060007580898,19197
1712048688428,599616060015247744,19197
1712048688435,599616060022914590,19197
1712048688443,599616060030581436,19197
1712048688451,599616060038248282,19197
1712048688457,599616060045915128,19197
1712048688465,599616060053581974,19197
1712048688473,599616060061248820,19197
1712048688481,599616060068915666,19197
1712048688489,599616060076582512,19197
1712048688497,599616060084249358,19197
1712048688504,599616060091916204,19197
1712048688512,599616060099583050,19197
1712048688520,599616060107249896,19197
1712048688527,599616060114916742,19197
1712048688535,599616060122583588,19197
1712048688543,599616060130250434,19197
1712048688550,599616060137917280,19197
1712048688558,599616060145584126,19197
1712048688566,599616060153250972,19197
1712048688573,599616060160917818,19197
1712048688581,599616060168584664,19197
1712048688589,599616060176251510,19197
1712048688596,599616060183918356,19197
1712048688604,599616060191585202,19197
1712048688612,599616060199252048,19197
1712048688619,599616060206918894,19197
1712048688627,599616060214585740,19197
1712048688635,599616060222252586,19197
1712048688641,599616060229919432,19197
1712048688649,599616060237586278,19197
1712048688657,599616060245253124,19197
1712048688665,599616060252919970,19197
1712048688673,599616060260586816,19197
1712048688681,599616060268253662,19197
1712048688688,599616060275920508,19197
1712048688696,599616060283587354,19197
1712048688704,599616060291254200,19197
1712048688711,599616060298921046,19197
1712048688719,599616060306587892,19197
1712048688727,599616060314254738,19197
1712048688734,599616060321921584,19197
1712048688742,599616060329588430,19197
1712048688750,599616060337255276,19197
1712048688757,599616060344922122,19197
1712048688765,599616060352588968,19197
1712048688773,599616060360255814,19197
1712048688780,599616060367922660,19197
1712048688788,599616060375589506,19197
1712048688796,599616060383256352,19197
1712048688803,599616060390923198,19197
1712048688811,599616060398590044,19197
1712048688819,599616060406256890,19197
1712048688825,599616060413923736,19197
1712048688833,599616060421590582,19197
1712048688841,599616060429257428,19197
1712048688849,599616060436924274,19197
1712048688857,599616060444591120,19197
1712048688865,599616060452257966,19197
1712048688872,599616060459924812,19197
1712048688880,599616060467591658,19197
1712048688888,599616060475258504,19197
1712048688895,599616060482925350,19197
1712048688903,599616060490592196,19197
1712048688911,599616060498259042,19197
1712048688918,599616060505925888,19197
1712048688926,599616060513592734,19197
1712048688934,599616060521259580,19197
1712048688941,599616060528926426,19197
1712048688949,599616060536593272,19197
1712048688957,599616060544265176,19197
1712048688964,599616060551931952,19197
1712048688972,599616060559598728,19197
1712048688980,599616060567265504,19197
1712048688987,599616060574932280,19197
1712048688995,599616060582599056,19197
1712048689003,599616060590265832,19197
1712048689009,599616060597932608,19197
1712048689017,599616060605599384,19197
1712048689025,599616060613266160,19197
1712048689033,599616060620932936,19197
1712048689041,599616060628599712,19197
1712048689049,599616060636266488,19197
1712048689056,599616060643933264,19197
1712048689064,599616060651600040,19197
1712048689072,599616060659266816,19197
1712048689079,599616060666933592,19197
1712048689087,599616060674600368,19197
1712048689095,599616060682267144,19197
1712048689102,599616060689933920,19197
1712048689110,599616060697600696,19197
1712048689118,599616060705267472,19197
1712048689125,599616060712934248,19197
1712048689133,599616060720601024,19197
1712048689141,599616060728267800,19197
1712048689148,599616060735934576,19197
1712048689156,599616060743601352,19197
1712048689164,599616060751268128,19197
1712048689171,599616060758934904,19197
1712048689179,599616060766601680,19197
1712048689187,599616060774268456,19197
1712048689193,599616060781935232,19197
1712048689201,599616060789602008,19197
1712048689209,599616060797268784,19197
1712048689217,599616060804935560,19197
1712048689225,599616060812602336,19197
1712048689233,599616060820269112,19197
1712048689240,599616060827935888,19197
1712048689248,599616060835602664,19197
1712048689256,599616060843269440,19197
1712048689263,599616060850936216,19197
1712048689271,599616060858602992,19197
1712048689279,599616060866269768,19197
1712048689286,599616060873936544,19197
1712048689294,599616060881603320,19197
1712048689302,599616060889270096,19197
1712048689309,599616060896936872,19197
1712048689317,599616060904603648,19197
1712048689325,599616060912270424,19197
1712048689332,599616060919937200,19197
1712048689340,599616060927603976,19197
1712048689348,599616060935270752,19197
1712048689355,599616060942937528,19197
1712048689363,599616060950604304,19197
1712048689371,599616060958271080,19197
1712048689377,599616060965937856,19197
1712048689385,599616060973604632,19197
1712048689393,599616060981271408,19197
1712048689401,599616060988938184,19197
1712048689409,599616060996604960,19197
1712048689417,599616061004271736,19197
1712048689424,599616061011938512,19197
1712048689432,599616061019605288,19197
1712048689440,599616061027272064,19197
1712048689447,599616061034938840,19197
1712048689455,599616061042605616,19197
1712048689463,599616061050272392,19197
1712048689470,599616061057939168,19197
1712048689478,599616061065605944,19197
1712048689486,599616061073272720,19197
1712048689493,599616061080939496,19197
1712048689501,599616061088606272,19197
1712048689509,599616061096273048,19197
1712048689516,599616061103939866,19197
1712048689524,599616061111606642,19197
1712048689532,599616061119273418,19197
1712048689539,599616061126940194,19197
1712048689547,599616061134606970,19197
1712048689555,599616061142273746,19197
1712048689561,599616061149940522,19197
1712048689569,599616061157607298,19197
1712048689577,599616061165274074,19197
1712048689585,599616061172940850,19197
1712048689593,599616061180607626,19197
1712048689601,599616061188274402,19197
1712048689608,599616061195941178,19197
1712048689616,599616061203607954,19197
1712048689624,599616061211274730,19197
1712048689631,599616061218941506,19197
1712048689639,599616061226608282,19197
1712048689647,599616061234275058,19197
1712048689654,599616061241941834,19197
1712048689662,599616061249608610,19197
1712048689670,599616061257275386,19197
1712048689677,599616061264942162,19197
1712048689685,599616061272608938,19197
1712048689693,599616061280275714,19197
1712048689700,599616061287942490,19197
1712048689708,599616061295609266,19197
1712048689716,599616061303276042,19197
1712048689723,599616061310942818,19197
1712048689731,599616061318609594,19197
1712048689739,599616061326276370,19197
1712048689745,599616061333943146,19197
1712048689753,599616061341609922,19197
1712048689761,599616061349276698,19197
1712048689769,599616061356943474,19197
1712048689777,599616061364610250,19197
1712048689785,599616061372277026,19197
1712048689792,599616061379943802,19197
1712048689800,599616061387610578,19197
1712048689808,599616061395277354,19197
1712048689815,599616061402944130,19197
1712048689823,599616061410610906,19197
1712048689831,599616061418277682,19197
1712048689838,599616061425944458,19197
1712048689846,599616061433611234,19197
1712048689854,599616061441278010,19197
1712048689861,599616061448944786,19197
1712048689869,599616061456611562,19197
1712048689877,599616061464278338,19197
1712048689884,599616061471945114,19197
1712048689892,599616061479611890,19197
1712048689900,599616061487278666,19197
1712048689907,599616061494945442,19197
1712048689915,599616061502612218,19197
1712048689923,599616061510278994,19197
1712048689929,599616061517945770,19197
1712048689937,599616061525612546,19197
1712048689945,599616061533279322,19197
1712048689953,599616061540946098,19197
1712048689961,599616061548612874,19197
1712048689969,599616061556279650,19197
1712048689976,599616061563946426,19197
1712048689984,599616061571613202,19197
1712048689992,599616061579279978,19197
1712048689999,599616061586946754,19197
1712048690007,599616061594613530,19197
1712048690015,599616061602280306,19197
1712048690022,599616061609947082,19197
1712048690030,599616061617613858,19197
1712048690038,599616061625280634,19197
1712048690045,599616061632947410,19197
1712048690053,599616061640614186,19197
1712048690061,599616061648280962,19197
1712048690068,599616061655947738,19197
1712048690076,599616061663614554,19197
1712048690084,599616061671281330,19197
1712048690091,599616061678948106,19197
1712048690099,599616061686614882,19197
1712048690107,599616061694281658,19197
1712048690113,599616061701948434,19197
1712048690121,599616061709615210,19197
1712048690129,599616061717281986,19197
1712048690137,599616061724948762,19197
1712048690145,599616061732615538,19197
1712048690153,599616061740282314,19197
1712048690160,599616061747949090,19197
1712048690168,599616061755615866,19197
1712048690176,599616061763282642,19197
1712048690183,599616061770949418,19197
1712048690191,599616061778616194,19197
1712048690199,599616061786282970,19197
1712048690206,599616061793949746,19197
1712048690214,599616061801616522,19197
1712048690222,599616061809283298,19197
1712048690229,599616061816950074,19197
1712048690237,599616061824616850,19197
1712048690245,599616061832283626,19197
1712048690252,599616061839950402,19197
1712048690260,599616061847617178,19197
1712048690268,599616061855283954,19197
1712048690275,599616061862950730,19197
1712048690283,599616061870617506,19197
1712048690291,599616061878284282,19197
1712048690297,599616061885951058,19197
1712048690305,599616061893617834,19197
1712048690313,599616061901284610,19197
1712048690321,599616061908951386,19197
1712048690329,599616061916618162,19197
1712048690337,599616061924284938,19197
1712048690344,599616061931951714,19197
1712048690352,599616061939618490,19197
1712048690360,599616061947285266,19197
1712048690367,599616061954952042,19197
1712048690375,599616061962618818,19197
1712048690383,599616061970285594,19197
1712048690390,599616061977952370,19197
1712048690398,599616061985619146,19197
1712048690406,599616061993285922,19197
1712048690413,599616062000952698,19197
1712048690421,599616062008619474,19197
1712048690429,599616062016286250,19197
1712048690436,599616062023953026,19197
1712048690444,599616062031619802,19197
1712048690452,599616062039286578,19197
1712048690459,599616062046953354,19197
1712048690467,599616062054620130,19197
1712048690475,599616062062286906,19197
1712048690481,599616062069953682,19197
1712048690489,599616062077620458,19197
1712048690497,599616062085287234,19197
1712048690505,599616062092954010,19197
1712048690513,599616062100620786,19197
1712048690521,599616062108287562,19197
1712048690528,599616062115954338,19197
1712048690536,599616062123621114,19197
1712048690544,599616062131287890,19197
1712048690551,599616062138954666,19197
1712048690559,599616062146621442,19197
1712048690567,599616062154288218,19197
1712048690574,599616062161954994,19197
1712048690582,599616062169621770,19197
1712048690590,599616062177288546,19197
1712048690597,599616062184955322,19197
1712048690605,599616062192622098,19197
1712048690613,599616062200288874,19197
1712048690620,599616062207955650,19197
1712048690628,599616062215622426,19197
1712048690636,599616062223289242,19197
1712048690643,599616062230956018,19197
1712048690651,599616062238622794,19197
1712048690659,599616062246289570,19197
1712048690665,599616062253956346,19197
1712048690673,599616062261623122,19197
1712048690681,599616062269289898,19197
1712048690689,599616062276956674,19197
1712048690697,599616062284623450,19197
1712048690705,599616062292290226,19197
1712048690712,599616062299957002,19197
1712048690720,599616062307623778,19197
1712048690728,599616062315290554,19197
1712048690735,599616062322957330,19197
1712048690743,599616062330624106,19197
1712048690751,599616062338290882,19197
1712048690758,599616062345957658,19197
1712048690766,599616062353624434,19197
1712048690774,599616062361291210,19197
1712048690781,599616062368957986,19197
1712048690789,599616062376624762,19197
1712048690797,599616062384291538,19197
1712048690804,599616062391958314,19197
1712048690812,599616062399625090,19197
1712048690820,599616062407291866,19197
1712048690827,599616062414958642,19197
1712048690835,599616062422625418,19197
1712048690843,599616062430292194,19197
1712048690849,599616062437958970,19197
1712048690857,599616062445625746,19197
1712048690865,599616062453292522,19197
1712048690873,599616062460959298,19197
1712048690881,599616062468626074,19197
1712048690889,599616062476292850,19197
1712048690896,599616062483959626,19197
1712048690904,599616062491626402,19197
1712048690912,599616062499293178,19197
1712048690919,599616062506959954,19197
1712048690927,599616062514626730,19197
1712048690935,599616062522293506,19197
1712048690942,599616062529960282,19197
1712048690950,599616062537627058,19197
1712048690958,599616062545293834,19197
1712048690965,599616062552960610,19197
1712048690973,599616062560627386,19197
1712048690981,599616062568294162,19197
1712048690988,599616062575960938,19197
1712048690996,599616062583627714,19197
1712048691004,599616062591294490,19197
1712048691011,599616062598961266,19197
1712048691019,599616062606628042,19197
1712048691027,599616062614294818,19197
1712048691033,599616062621961594,19197
1712048691041,599616062629628370,19197
1712048691049,599616062637295146,19197
1712048691057,599616062644961922,19197
1712048691065,599616062652628698,19197
1712048691073,599616062660295474,19197
1712048691080,599616062667962250,19197
1712048691088,599616062675629026,19197
1712048691096,599616062683295802,19197
1712048691103,599616062690962578,19197
1712048691111,599616062698629354,19197
1712048691119,599616062706296130,19197
1712048691126,599616062713962906,19197
1712048691134,599616062721629682,19197
1712048691142,599616062729296458,19197
1712048691149,599616062736963234,19197
1712048691157,599616062744630010,19197
1712048691165,599616062752296786,19197
1712048691172,599616062759963562,19197
1712048691180,599616062767630338,19197
1712048691188,599616062775297114,19197
1712048691195,599616062782938874,19197
1712048691203,599616062790605998,19197
1712048691211,599616062798273122,19197
1712048691217,599616062805940246,19197
1712048691225,599616062813607370,19197
1712048691233,599616062821274494,19197
1712048691241,599616062828941618,19197
1712048691249,599616062836608742,19197
1712048691257,599616062844275866,19197
1712048691264,599616062851942990,19197
1712048691272,599616062859610114,19197
1712048691280,599616062867277238,19197
1712048691287,599616062874944362,19197
1712048691295,599616062882611486,19197
1712048691303,599616062890278610,19197
1712048691310,599616062897945734,19197
1712048691318,599616062905612858,19197
1712048691326,599616062913279982,19197
1712048691333,599616062920947106,19197
1712048691341,599616062928614230,19197
1712048691349,599616062936281354,19197
1712048691356,599616062943948478,19197
1712048691364,599616062951615602,19197
1712048691372,599616062959282726,19197
1712048691379,599616062966949850,19197
1712048691387,599616062974616974,19197
1712048691395,599616062982284098,19197
1712048691401,599616062989951222,19197
1712048691409,599616062997618346,19197
1712048691417,599616063005285470,19197
1712048691425,599616063012952594,19197
1712048691433,599616063020619718,19197
1712048691441,599616063028286842,19197
1712048691448,599616063035953966,19197
1712048691456,599616063043621090,19197
1712048691464,599616063051288214,19197
1712048691471,599616063058955338,19197
1712048691479,599616063066622462,19197
1712048691487,599616063074289586,19197
1712048691494,599616063081956710,19197
1712048691502,599616063089623834,19197
1712048691510,599616063097290958,19197
1712048691517,599616063104958082,19197
1712048691525,599616063112625206,19197
1712048691533,599616063120292330,19197
1712048691540,599616063127959454,19197
1712048691548,599616063135626578,19197
1712048691556,599616063143293702,19197
1712048691563,599616063150960826,19197
1712048691571,599616063158627950,19197
1712048691579,599616063166295074,19197
1712048691585,599616063173962198,19197
1712048691593,599616063181629322,19197
1712048691601,599616063189296446,19197
1712048691609,599616063196963570,19197
1712048691617,599616063204630694,19197
1712048691625,599616063212297818,19197
1712048691632,599616063219964942,19197
1712048691640,599616063227632066,19197
1712048691648,599616063235299190,19197
1712048691655,599616063242966314,19197
1712048691663,599616063250633438,19197
1712048691671,599616063258300562,19197
1712048691678,599616063265967686,19197
1712048691686,599616063273634810,19197
1712048691694,599616063281301934,19197
1712048691701,599616063288969058,19197
1712048691709,599616063296636182,19197
1712048691717,599616063304303306,19197
1712048691724,599616063311970430,19197
1712048691732,599616063319637554,19197
1712048691740,599616063327304678,19197
1712048691747,599616063334971802,19197
1712048691755,599616063342659008,19197
1712048691763,599616063350325854,19197
1712048691769,599616063357992700,19197
1712048691777,599616063365659546,19197
1712048691785,599616063373326392,19197
1712048691793,599616063380993238,19197
1712048691801,599616063388660084,19197
1712048691809,599616063396326930,19197
1712048691816,599616063403993776,19197
1712048691824,599616063411660622,19197
1712048691832,599616063419327468,19197
1712048691839,599616063426994314,19197
1712048691847,599616063434661160,19197
1712048691855,599616063442328006,19197
1712048691862,599616063449994852,19197
1712048691870,599616063457661698,19197
1712048691878,599616063465328544,19197
1712048691885,599616063472995390,19197
1712048691893,599616063480662236,19197
1712048691901,599616063488329082,19197
1712048691908,599616063495995928,19197
1712048691916,599616063503662774,19197
1712048691924,599616063511329620,19197
1712048691931,599616063518996466,19197
1712048691939,599616063526663312,19197
1712048691947,599616063534330158,19197
1712048691953,599616063541997004,19197
1712048691961,599616063549663850,19197
1712048691969,599616063557330696,19197
1712048691977,599616063564997542,19197
1712048691985,599616063572664388,19197
1712048691993,599616063580331234,19197
1712048692000,599616063587998080,19197
1712048692008,599616063595664926,19197
1712048692016,599616063603331772,19197
1712048692023,599616063610998618,19197
1712048692031,599616063618665464,19197
1712048692039,599616063626332310,19197
1712048692046,599616063633999156,19197
1712048692054,599616063641666002,19197
1712048692062,599616063649332848,19197
1712048692069,599616063656999694,19197
1712048692077,599616063664666540,19197
1712048692085,599616063672333386,19197
1712048692092,599616063680000232,19197
1712048692100,599616063687667078,19197
1712048692108,599616063695333924,19197
1712048692115,599616063703000770,19197
1712048692123,599616063710667616,19197
1712048692131,599616063718334462,19197
1712048692137,599616063726001308,19197
1712048692145,599616063733668154,19197
1712048692153,599616063741335000,19197
1712048692161,599616063749001846,19197
1712048692169,599616063756668692,19197
1712048692177,599616063764335538,19197
1712048692184,599616063772002384,19197
1712048692192,599616063779669230,19197
1712048692200,599616063787336076,19197
1712048692207,599616063795002922,19197
1712048692215,599616063802669768,19197
1712048692223,599616063810336614,19197
1712048692230,599616063818003460,19197
1712048692238,599616063825670306,19197
1712048692246,599616063833337152,19197
1712048692253,599616063841003998,19197
1712048692261,599616063848670844,19197
1712048692269,599616063856337690,19197
1712048692276,599616063864004536,19197
1712048692284,599616063871671382,19197
1712048692292,599616063879338228,19197
1712048692299,599616063887005074,19197
1712048692307,599616063894671920,19197
1712048692315,599616063902313728,19197
1712048692321,599616063909980922,19197
1712048692329,599616063917648116,19197
1712048692337,599616063925315310,19197
1712048692345,599616063932982504,19197
1712048692353,599616063940649698,19197
1712048692361,599616063948316892,19197
1712048692368,599616063955984086,19197
1712048692376,599616063963651280,19197
1712048692384,599616063971318474,19197
1712048692391,599616063978985668,19197
1712048692399,599616063986652862,19197
1712048692407,599616063994320056,19197
1712048692414,599616064001987250,19197
1712048692422,599616064009654444,19197
1712048692430,599616064017321638,19197
1712048692437,599616064024988832,19197
1712048692445,599616064032656026,19197
1712048692453,599616064040323220,19197
1712048692460,599616064047990414,19197
1712048692468,599616064055657608,19197
1712048692476,599616064063324802,19197
1712048692483,599616064070991996,19197
1712048692491,599616064078659190,19197
1712048692499,599616064086326384,19197
1712048692505,599616064093993578,19197
1712048692513,599616064101660772,19197
1712048692521,599616064109327966,19197
1712048692529,599616064116995160,19197
1712048692537,599616064124662354,19197
1712048692545,599616064132329548,19197
1712048692552,599616064139996742,19197
1712048692560,599616064147663936,19197
1712048692568,599616064155331130,19197
1712048692575,599616064162998324,19197
1712048692583,599616064170665518,19197
1712048692591,599616064178332712,19197
1712048692598,599616064185999906,19197
1712048692606,599616064193667100,19197
1712048692614,599616064201334294,19197
1712048692621,599616064209001488,19197
1712048692629,599616064216668682,19197
1712048692637,599616064224335876,19197
1712048692644,599616064232003070,19197
1712048692652,599616064239670264,19197
1712048692660,599616064247337458,19197
1712048692667,599616064255004652,19197
1712048692675,599616064262671846,19197
1712048692683,599616064270339040,19197
1712048692689,599616064278006234,19197
1712048692697,599616064285673428,19197
1712048692705,599616064293340622,19197
1712048692713,599616064301007816,19197
1712048692721,599616064308675010,19197
1712048692729,599616064316342204,19197
1712048692736,599616064324009398,19197
1712048692744,599616064331676592,19197
1712048692752,599616064339343786,19197
1712048692759,599616064347010980,19197
1712048692767,599616064354678174,19197
1712048692775,599616064362345368,19197
1712048692782,599616064370012562,19197
1712048692790,599616064377679756,19197
1712048692798,599616064385346950,19197
1712048692806,599616064393014144,19197
1712048692813,599616064400681338,19197
1712048692821,599616064408348532,19197
1712048692829,599616064416015726,19197
1712048692836,599616064423682920,19197
1712048692844,599616064431350114,19197
1712048692852,599616064439017308,19197
1712048692859,599616064446684502,19197
1712048692867,599616064454351696,19197
1712048692875,599616064462049032,19197
1712048692881,599616064469715808,19197
1712048692889,599616064477382584,19197
1712048692897,599616064485049360,19197
1712048692905,599616064492716136,19197
1712048692913,599616064500382912,19197
1712048692921,599616064508049688,19197
1712048692928,599616064515716464,19197
1712048692936,599616064523383240,19197
1712048692944,599616064531050016,19197
1712048692951,599616064538716792,19197
1712048692959,599616064546383568,19197
1712048692967,599616064554050344,19197
1712048692974,599616064561717120,19197
1712048692982,599616064569383896,19197
1712048692990,599616064577050672,19197
1712048692997,599616064584717448,19197
1712048693005,599616064592384224,19197
1712048693013,599616064600051000,19197
1712048693020,599616064607717776,19197
1712048693028,599616064615384552,19197
1712048693036,599616064623051328,19197
1712048693043,599616064630718104,19197
1712048693051,599616064638384880,19197
1712048693059,599616064646051656,19197
1712048693065,599616064653718432,19197
1712048693073,599616064661385208,19197
1712048693081,599616064669051984,19197
1712048693089,599616064676718760,19197
1712048693097,599616064684385536,19197
1712048693105,599616064692052312,19197
1712048693112,599616064699719088,19197
1712048693120,599616064707385864,19197
1712048693128,599616064715052640,19197
1712048693135,599616064722719416,19197
1712048693143,599616064730386192,19197
1712048693151,599616064738052968,19197
1712048693158,599616064745719744,19197
1712048693166,599616064753386520,19197
1712048693174,599616064761053296,19197
1712048693181,599616064768720072,19197
1712048693189,599616064776386848,19197
1712048693197,599616064784053624,19197
1712048693204,599616064791720400,19197
1712048693212,599616064799387176,19197
1712048693220,599616064807053952,19197
1712048693227,599616064814720728,19197
1712048693235,599616064822387504,19197
1712048693243,599616064830054280,18745
1712048693249,599616064837721056,17927
1712048693257,599616064845387832,16190
1712048693265,599616064853054608,14957
1712048693273,599616064860721384,15175
1712048693281,599616064868388160,15501
1712048693289,599616064876054936,15532
1712048693296,599616064883721712,15967
1712048693304,599616064891388488,16539
1712048693312,599616064899055264,16879
1712048693319,599616064906722040,17128
1712048693327,599616064914388816,17423
1712048693335,599616064922055592,17742
1712048693342,599616064929722368,17767
1712048693350,599616064937389144,17418
1712048693358,599616064945055920,17273
1712048693365,599616064952722696,17723
1712048693373,599616064960389472,18363
1712048693381,599616064968056248,18438
1712048693388,599616064975723024,18278
1712048693396,599616064983389800,18710
1712048693404,599616064991056576,19188
1712048693411,599616064998723352,19197
1712048693419,599616065006390128,19197
1712048693427,599616065014056904,19197
1712048693433,599616065021723720,19197
1712048693441,599616065029390496,19197
1712048693449,599616065037057272,19197
1712048693457,599616065044724048,19197
1712048693465,599616065052390824,19197
1712048693473,599616065060057600,19197
1712048693480,599616065067724376,19197
1712048693488,599616065075391152,19197
1712048693496,599616065083057928,19197
1712048693503,599616065090724704,19197
1712048693511,599616065098391480,19197
1712048693519,599616065106058256,19197
1712048693526,599616065113725032,19197
1712048693534,599616065121391808,19197
1712048693542,599616065129058584,19197
1712048693549,599616065136725360,19197
1712048693557,599616065144392136,19197
1712048693565,599616065152058912,19197
1712048693572,599616065159725688,19197
1712048693580,599616065167392464,19197
1712048693588,599616065175059240,19197
1712048693595,599616065182726016,19148
1712048693603,599616065190392792,18888
1712048693611,599616065198059568,19042
1712048693617,599616065205726344,19012
1712048693625,599616065213393120,18848
1712048693633,599616065221059896,18860
1712048693641,599616065228726672,18787
1712048693649,599616065236393448,18698
1712048693657,599616065244060224,18834
1712048693664,599616065251727000,18918
1712048693672,599616065259393776,18796
1712048693680,599616065267060552,18712
1712048693687,599616065274727328,18717
1712048693695,599616065282394104,18792
1712048693703,599616065290060880,19071
1712048693710,599616065297727656,19197
1712048693718,599616065305394432,19197
1712048693726,599616065313061208,19042
1712048693733,599616065320727984,19007
1712048693741,599616065328394760,19162
1712048693749,599616065336061536,19153
1712048693756,599616065343728312,19197
1712048693764,599616065351395088,19197
1712048693772,599616065359061864,19197
1712048693779,599616065366728640,19139
1712048693787,599616065374395416,19171
1712048693795,599616065382062192,19197
1712048693801,599616065389728968,19197
1712048693809,599616065397395744,19197
1712048693817,599616065405062520,19197
1712048693825,599616065412729296,19197
1712048693833,599616065420396072,19197
1712048693841,599616065428062848,19197
1712048693848,599616065435729624,19197
1712048693856,599616065443396400,19197
1712048693864,599616065451063176,19197
1712048693871,599616065458729952,19197
1712048693879,599616065466396728,19197
1712048693887,599616065474063504,19197
1712048693894,599616065481730280,19197
1712048693902,599616065489397056,19197
1712048693910,599616065497063832,19197
1712048693917,599616065504730608,19197
1712048693925,599616065512397384,19197
1712048693933,599616065520064160,19197
1712048693940,599616065527730936,19197
1712048693948,599616065535397712,19197
1712048693956,599616065543064488,19197
1712048693963,599616065550731264,19197
1712048693971,599616065558398040,19160
1712048693979,599616065566064816,19035
1712048693985,599616065573731592,19028
1712048693993,599616065581408416,19197
1712048694001,599616065589075053,19197
1712048694009,599616065596741690,19197
1712048694017,599616065604408327,19197
1712048694025,599616065612074964,19197
1712048694032,599616065619741601,19197
1712048694040,599616065627408238,19197
1712048694048,599616065635074875,19197
1712048694055,599616065642741512,19197
1712048694063,599616065650408149,19197
1712048694071,599616065658074786,19132
1712048694078,599616065665741423,19197
1712048694086,599616065673408060,19078
1712048694094,599616065681074697,19017
1712048694101,599616065688741334,19197
1712048694109,599616065696407971,19197
1712048694117,599616065704074608,19197
1712048694124,599616065711741245,19197
1712048694132,599616065719407882,19197
1712048694140,599616065727074519,19197
1712048694147,599616065734741156,19197
1712048694155,599616065742407793,19197
1712048694163,599616065750074430,19197
1712048694169,599616065757741067,19197
1712048694177,599616065765407704,19197
1712048694185,599616065773074341,19197
1712048694193,599616065780740978,19197
1712048694201,599616065788407615,19197
1712048694209,599616065796074252,19197
1712048694216,599616065803740889,19197
1712048694224,599616065811407526,19197
1712048694232,599616065819074163,19197
1712048694239,599616065826740800,19197
1712048694247,599616065834407437,19197
1712048694255,599616065842074074,19197
1712048694262,599616065849740711,19197
1712048694270,599616065857407348,19197
1712048694278,599616065865073985,19197
1712048694285,599616065872740622,19197
1712048694293,599616065880407259,19197
1712048694301,599616065888073896,19197
1712048694308,599616065895740533,19197
1712048694316,599616065903407170,19197
1712048694324,599616065911073807,19197
1712048694331,599616065918740444,19197
1712048694339,599616065926407081,19197
1712048694347,599616065934073718,19197
1712048694353,599616065941740355,19197
1712048694361,599616065949406992,19197
1712048694369,599616065957073629,19197
1712048694377,599616065964740266,19197
1712048694385,599616065972406903,19197
1712048694393,599616065980073540,19197
1712048694400,599616065987740177,19197
1712048694408,599616065995406814,19197
1712048694416,599616066003073451,19197
1712048694423,599616066010740088,19197
1712048694431,599616066018406725,19197
1712048694439,599616066026073362,19197
1712048694446,599616066033739999,19197
1712048694454,599616066041406636,19197
1712048694462,599616066049073273,19197
1712048694469,599616066056739910,19197
1712048694477,599616066064406547,19197
1712048694485,599616066072073184,19197
1712048694492,599616066079739821,19197
1712048694500,599616066087406458,19197
1712048694508,599616066095073095,19197
1712048694515,599616066102739732,19197
1712048694523,599616066110406369,19197
1712048694531,599616066118073006,19197
1712048694537,599616066125739643,19197
1712048694545,599616066133406280,19197
1712048694553,599616066141083010,19197
1712048694561,599616066148749507,19197
1712048694569,599616066156416004,19197
1712048694577,599616066164082501,19197
1712048694584,599616066171748998,19197
1712048694592,599616066179415495,19197
1712048694600,599616066187081992,19197
1712048694607,599616066194748489,19197
1712048694615,599616066202414986,19197
1712048694623,599616066210081483,19197
1712048694630,599616066217747980,19197
1712048694638,599616066225414477,19197
1712048694646,599616066233080974,19197
1712048694653,599616066240747471,19197
1712048694661,599616066248413968,19197
1712048694669,599616066256080465,19197
1712048694676,599616066263746962,19197
1712048694684,599616066271413459,19197
1712048694692,599616066279079956,19197
1712048694699,599616066286746453,19197
1712048694707,599616066294412950,19197
1712048694715,599616066302079447,19197
1712048694721,599616066309745944,19197
1712048694729,599616066317412441,19197
1712048694737,599616066325078938,19197
1712048694745,599616066332745435,19197
1712048694753,599616066340411932,19197
1712048694761,599616066348078429,19197
1712048694768,599616066355744926,19197
1712048694776,599616066363411423,19197
1712048694784,599616066371077920,19197
1712048694791,599616066378744417,19197
1712048694799,599616066386410914,19197
1712048694807,599616066394077411,19197
1712048694814,599616066401743908,19197
1712048694822,599616066409410405,19197
1712048694830,599616066417076902,19197
1712048694837,599616066424743399,19197
1712048694845,599616066432409896,19197
1712048694853,599616066440076393,19197
1712048694860,599616066447742890,19197
1712048694868,599616066455409387,19197
1712048694876,599616066463075884,19197
1712048694883,599616066470742381,19197
1712048694891,599616066478408878,19197
1712048694899,599616066486075375,19197
1712048694905,599616066493741872,19197
1712048694913,599616066501408369,19197
1712048694921,599616066509074866,19197
1712048694929,599616066516741363,19197
1712048694937,599616066524407860,19197
1712048694945,599616066532074357,19197
1712048694952,599616066539740854,19197
1712048694960,599616066547407351,19197
1712048694968,599616066555073848,19197
1712048694975,599616066562740345,19197
1712048694983,599616066570406842,19197
1712048694991,599616066578073339,19197
1712048694998,599616066585739836,19197
1712048695006,599616066593406333,19197
1712048695014,599616066601072830,19197
1712048695021,599616066608739327,19197
1712048695029,599616066616405824,19197
1712048695037,599616066624072321,19197
1712048695044,599616066631738818,19197
1712048695052,599616066639405315,19197
1712048695060,599616066647071812,19197
1712048695067,599616066654738309,19197
1712048695075,599616066662404806,19197
1712048695083,599616066670071303,19197
1712048695089,599616066677737800,19197
1712048695097,599616066685404297,19197
1712048695105,599616066693070794,19197
1712048695113,599616066700717266,19197
1712048695121,599616066708384042,19197
1712048695129,599616066716050818,19197
1712048695136,599616066723717594,19197
1712048695144,599616066731384370,19197
1712048695152,599616066739051146,19197
1712048695159,599616066746717922,19197
1712048695167,599616066754384698,19197
1712048695175,599616066762051474,19197
1712048695182,599616066769718250,19197
1712048695190,599616066777385026,19197
1712048695198,599616066785051802,19197
1712048695205,599616066792718578,19197
1712048695213,599616066800385354,19197
1712048695221,599616066808052130,19197
1712048695228,599616066815718906,19197
1712048695236,599616066823385682,19197
1712048695244,599616066831052458,19197
1712048695251,599616066838719234,19197
1712048695259,599616066846386010,19197
1712048695267,599616066854052786,19197
1712048695273,599616066861719562,19197
1712048695281,599616066869386338,19197
1712048695289,599616066877053114,19197
1712048695297,599616066884719890,19197
1712048695305,599616066892386666,19197
1712048695313,599616066900053442,19197
1712048695320,599616066907720218,19197
1712048695328,599616066915386994,19197
1712048695336,599616066923053770,19197
1712048695343,599616066930720546,19197
1712048695351,599616066938387322,19197
1712048695359,599616066946054098,19197
1712048695366,599616066953720874,19197
1712048695374,599616066961387650,19197
1712048695382,599616066969054426,19197
1712048695389,599616066976721202,19197
1712048695397,599616066984387978,19197
1712048695405,599616066992054754,19197
1712048695412,599616066999721530,19197
1712048695420,599616067007388306,19197
1712048695428,599616067015055082,19197
1712048695435,599616067022721858,19197
1712048695443,599616067030388634,19197
1712048695451,599616067038055410,19197
1712048695457,599616067045722186,19197
1712048695465,599616067053388962,19197
1712048695473,599616067061055738,19197
1712048695481,599616067068722514,19197
1712048695489,599616067076389290,19197
1712048695497,599616067084056066,19197
1712048695504,599616067091722842,19197
1712048695512,599616067099389618,19197
1712048695520,599616067107056394,19197
1712048695527,599616067114723170,19197
1712048695535,599616067122389946,19197
1712048695543,599616067130056722,19197
1712048695550,599616067137723498,19197
1712048695558,599616067145390274,19197
1712048695566,599616067153057050,19197
1712048695573,599616067160723826,19197
1712048695581,599616067168390602,19197
1712048695589,599616067176057378,19197
1712048695596,599616067183724154,19197
1712048695604,599616067191390930,19197
1712048695612,599616067199057706,19197
1712048695619,599616067206724482,19197
1712048695627,599616067214391258,19197
1712048695635,599616067222058034,19197
1712048695641,599616067229724810,19197
1712048695649,599616067237391586,19197
1712048695657,599616067245058362,19197
1712048695665,599616067252725138,19197
1712048695673,599616067260417010,19197
1712048695681,599616067268083438,19197
1712048695688,599616067275749866,19197
1712048695696,599616067283416294,19197
1712048695704,599616067291082722,19197
1712048695711,599616067298749150,19197
1712048695719,599616067306415578,19197
1712048695727,599616067314082006,19052
1712048695734,599616067321748434,19197
1712048695742,599616067329414862,19197
1712048695750,599616067337081290,19197
1712048695757,599616067344747718,19197
1712048695765,599616067352414146,19197
1712048695773,599616067360080574,19181
1712048695780,599616067367747002,19162
1712048695788,599616067375413430,19197
1712048695796,599616067383079858,19197
1712048695803,599616067390746286,19197
1712048695811,599616067398412714,19197
1712048695819,599616067406079142,19005
1712048695825,599616067413745570,19047
1712048695833,599616067421411998,19162
1712048695841,599616067429078426,19141
1712048695849,599616067436744854,19136
1712048695857,599616067444411282,19197
1712048695865,599616067452077710,19028
1712048695872,599616067459744138,18618
1712048695880,599616067467410566,18878
1712048695888,599616067475076994,19197
1712048695895,599616067482743422,19192
1712048695903,599616067490409850,18693
1712048695911,599616067498076278,18614
1712048695918,599616067505742706,18679
1712048695926,599616067513409134,18691
1712048695934,599616067521075562,18766
1712048695941,599616067528741990,18665
1712048695949,599616067536408418,18496
1712048695957,599616067544074846,18389
1712048695964,599616067551741274,18311
1712048695972,599616067559407702,18461
1712048695980,599616067567074130,18639
1712048695987,599616067574740558,18574
1712048695995,599616067582406986,18621
1712048696003,599616067590073414,18787
1712048696009,599616067597739842,18745
1712048696017,599616067605406270,18696
1712048696025,599616067613072698,18637
1712048696033,599616067620739126,18405
1712048696041,599616067628405554,18335
1712048696049,599616067636071982,17343
1712048696056,599616067643738410,14939
1712048696064,599616067651404838,14097
1712048696072,599616067659071266,15100
1712048696079,599616067666737694,15185
1712048696087,599616067674404122,14852
1712048696095,599616067682070550,15262
1712048696102,599616067689736978,15480
1712048696110,599616067697403406,15281
1712048696118,599616067705069834,15264
1712048696125,599616067712736262,15283
1712048696133,599616067720402690,15253
1712048696141,599616067728069118,15412
1712048696148,599616067735735546,15623
1712048696156,599616067743401974,15705
1712048696164,599616067751068402,15696
1712048696171,599616067758734830,15667
1712048696179,599616067766401258,15689
1712048696187,599616067774067686,15862
1712048696193,599616067781734114,16204
1712048696201,599616067789400542,16256
1712048696209,599616067797066970,15825
1712048696217,599616067804733398,15642
1712048696225,599616067812399826,15792
1712048696233,599616067820046252,15785
1712048696240,599616067827712958,15836
1712048696248,599616067835379664,16071
1712048696256,599616067843046370,16000
1712048696263,599616067850713076,15721
1712048696271,599616067858379782,15696
1712048696279,599616067866046488,15761
1712048696286,599616067873713194,16017
1712048696294,599616067881379900,16387
1712048696302,599616067889046606,16026
1712048696309,599616067896713312,15459
1712048696317,599616067904380018,15609
1712048696325,599616067912046724,15761
1712048696332,599616067919713430,15607
1712048696340,599616067927380136,15738
1712048696348,599616067935046842,15829
1712048696355,599616067942713548,15520
1712048696363,599616067950380254,15447
1712048696371,599616067958046960,15618
1712048696377,599616067965713666,15510
1712048696385,599616067973380372,15536
1712048696393,599616067981047078,15900
1712048696401,599616067988713784,15754
1712048696409,599616067996380490,15241
1712048696417,599616068004047196,15290
1712048696424,599616068011713902,15499
1712048696432,599616068019380608,15592
1712048696440,599616068027047314,15832
1712048696447,599616068034714020,15576
1712048696455,599616068042380726,15002
1712048696463,599616068050047432,15042
1712048696470,599616068057714138,15208
1712048696478,599616068065380844,15133
1712048696486,599616068073047550,15208
1712048696493,599616068080714256,15154
1712048696501,599616068088380962,14899
1712048696509,599616068096047668,14842
1712048696516,599616068103714374,14873
1712048696524,599616068111381080,14857
1712048696532,599616068119047786,14932
1712048696539,599616068126714492,14906
1712048696547,599616068134381198,14643
1712048696555,599616068142047904,14439
1712048696561,599616068149714610,14376
1712048696569,599616068157381316,14367
1712048696577,599616068165048022,14428
1712048696585,599616068172714728,14538
1712048696593,599616068180381434,14402
1712048696601,599616068188048140,13938
1712048696608,599616068195714846,13619
1712048696616,599616068203381552,13575
1712048696624,599616068211048258,13596
1712048696631,599616068218714964,13664
1712048696639,599616068226381670,13689
1712048696647,599616068234048376,13584
1712048696654,599616068241715082,13551
1712048696662,599616068249381788,13678
1712048696670,599616068257048494,13689
1712048696677,599616068264715200,13603
1712048696685,599616068272381906,13582
1712048696693,599616068280048612,13401
1712048696700,599616068287715318,13183
1712048696708,599616068295382024,13251
1712048696716,599616068303048730,13303
1712048696723,599616068310715436,13275
1712048696731,599616068318382142,13537
1712048696739,599616068326048848,13596
1712048696745,599616068333715554,13244
1712048696753,599616068341382260,13314
1712048696761,599616068349048966,13549
1712048696769,599616068356715672,13375
1712048696777,599616068364382378,13425
1712048696785,599616068372049084,13717
1712048696792,599616068379710814,13598
1712048696800,599616068387377590,13495
1712048696808,599616068395044366,13699
1712048696815,599616068402711142,13706
1712048696823,599616068410377918,13710
1712048696831,599616068418044694,13933
1712048696838,599616068425711470,13945
1712048696846,599616068433378246,13875
1712048696854,599616068441045022,13971
1712048696861,599616068448711798,13921
1712048696869,599616068456378574,13889
1712048696877,599616068464045350,14200
1712048696884,599616068471712126,14299
1712048696892,599616068479378902,14165
1712048696900,599616068487045678,14355
1712048696907,599616068494712454,14219
1712048696915,599616068502379230,13870
1712048696923,599616068510046006,14280
1712048696929,599616068517712782,14678
1712048696937,599616068525379558,14280
1712048696945,599616068533046334,14015
1712048696953,599616068540713110,14198
1712048696961,599616068548379886,14217
1712048696969,599616068556046662,14219
1712048696976,599616068563713438,14411
1712048696984,599616068571380214,14475
1712048696992,599616068579046990,14350
1712048696999,599616068586713766,14275
1712048697007,599616068594380542,14289
1712048697015,599616068602047318,14310
1712048697022,599616068609714094,14493
1712048697030,599616068617380870,14789
1712048697038,599616068625047646,14683
1712048697045,599616068632714422,14364
1712048697053,599616068640381198,14439
1712048697061,599616068648047974,14603
1712048697068,599616068655714750,14646
1712048697076,599616068663381526,14828
1712048697084,599616068671048302,14859
1712048697091,599616068678715078,14608
1712048697099,599616068686381854,14650
1712048697107,599616068694048630,14903
1712048697113,599616068701715406,14910
1712048697121,599616068709382182,15011
1712048697129,599616068717048958,15032
1712048697137,599616068724715734,14648
1712048697145,599616068732382510,14599
1712048697153,599616068740049286,14840
1712048697160,599616068747716062,14835
1712048697168,599616068755382838,14939
1712048697176,599616068763049614,15067
1712048697183,599616068770716390,14859
1712048697191,599616068778383166,14786
1712048697199,599616068786049942,14932
1712048697206,599616068793716718,14934
1712048697214,599616068801383494,15107
1712048697222,599616068809050270,15367
1712048697229,599616068816717046,15142
1712048697237,599616068824383822,14992
1712048697245,599616068832050598,15131
1712048697252,599616068839717374,14857
1712048697260,599616068847384150,14622
1712048697268,599616068855050926,14887
1712048697275,599616068862717702,15077
1712048697283,599616068870384478,14925
1712048697291,599616068878051254,14786
1712048697297,599616068885718030,14913
1712048697305,599616068893384806,15128
1712048697313,599616068901051582,15398
1712048697321,599616068908718358,15442
1712048697329,599616068916385134,14983
1712048697337,599616068924051910,14746
1712048697344,599616068931718686,14932
1712048697352,599616068939385502,14997
1712048697360,599616068947052278,14992
1712048697367,599616068954719054,15016
1712048697375,599616068962385830,14939
1712048697383,599616068970052606,14864
1712048697390,599616068977719382,14920
1712048697398,599616068985386158,15166
1712048697406,599616068993052934,15553
1712048697413,599616069000719710,15604
1712048697421,599616069008386486,15171
1712048697429,599616069016053262,14983
1712048697436,599616069023720038,15318
1712048697444,599616069031386814,15487
1712048697452,599616069039053590,15307
1712048697459,599616069046720366,15473
1712048697467,599616069054387142,15728
1712048697475,599616069062053918,15248
1712048697481,599616069069720694,14885
1712048697489,599616069077387470,15206
1712048697497,599616069085054246,15255
1712048697505,599616069092721022,14955
1712048697513,599616069100387798,15018
1712048697521,599616069108054574,15283
1712048697528,599616069115721350,15147
1712048697536,599616069123388126,14896
1712048697544,599616069131054902,14962
1712048697551,599616069138721678,15011
1712048697559,599616069146388454,15049
1712048697567,599616069154055230,15145
1712048697574,599616069161722006,15042
1712048697582,599616069169388782,15037
1712048697590,599616069177055558,15140
1712048697597,599616069184722334,15023
1712048697605,599616069192389110,15046
1712048697613,599616069200055886,15269
1712048697620,599616069207722662,15182
1712048697628,599616069215389438,15046
1712048697636,599616069223056214,15161
1712048697643,599616069230722990,15161
1712048697651,599616069238389766,15208
1712048697659,599616069246056542,15536
1712048697665,599616069253723318,15494
1712048697673,599616069261390094,15173
1712048697681,599616069269056870,15257
1712048697689,599616069276723646,15302
1712048697697,599616069284390422,15154
1712048697705,599616069292057198,15337
1712048697712,599616069299723974,15534
1712048697720,599616069307390750,15541
1712048697728,599616069315057526,15735
1712048697735,599616069322724302,15832
1712048697743,599616069330391078,15759
1712048697751,599616069338057854,16045
1712048697758,599616069345724630,16514
1712048697766,599616069353391406,16842
1712048697774,599616069361058182,17027
1712048697781,599616069368724958,17076
1712048697789,599616069376391734,17266
1712048697797,599616069384058510,17467
1712048697804,599616069391725286,17254
1712048697812,599616069399392062,16612
1712048697820,599616069407058838,15951
1712048697827,599616069414725614,15825
1712048697835,599616069422392390,16047
1712048697843,599616069430059166,16139
1712048697849,599616069437725942,16096
1712048697857,599616069445392718,16103
1712048697865,599616069453059494,16094
1712048697873,599616069460726270,15956
1712048697881,599616069468393046,15878
1712048697889,599616069476059822,15897
1712048697896,599616069483726598,16282
1712048697904,599616069491393374,17109
1712048697912,599616069499090286,17578
1712048697919,599616069506756644,17357
1712048697927,599616069514423002,17123
1712048697935,599616069522089360,17362
1712048697942,599616069529755718,17601
1712048697950,599616069537422076,17639
1712048697958,599616069545088434,17559
1712048697965,599616069552754792,17317
1712048697973,599616069560421150,17257
1712048697981,599616069568087508,17242
1712048697988,599616069575753866,17128
1712048697996,599616069583420224,17620
1712048698004,599616069591086582,18093
1712048698011,599616069598752940,17573
1712048698019,599616069606419298,17268
1712048698027,599616069614085656,17489
1712048698033,599616069621752014,17437
1712048698041,599616069629418372,17531
1712048698049,599616069637084730,17807
1712048698057,599616069644751088,17676
1712048698065,599616069652417446,17498
1712048698073,599616069660083804,17610
1712048698080,599616069667750162,17625
1712048698088,599616069675416520,17610
1712048698096,599616069683082878,17707
1712048698103,599616069690749236,17552
1712048698111,599616069698415594,17287
1712048698119,599616069706081952,17299
1712048698126,599616069713748310,17376
1712048698134,599616069721414668,17407
1712048698142,599616069729081026,17545
1712048698149,599616069736747384,17559
1712048698157,599616069744413742,17296
1712048698165,599616069752080100,17097
1712048698172,599616069759746458,17146
1712048698180,599616069767412816,17252
1712048698188,599616069775079174,17435
1712048698195,599616069782745532,17671
1712048698203,599616069790411890,17503
1712048698211,599616069798078248,17069
1712048698217,599616069805744606,17069
1712048698225,599616069813410964,17322
1712048698233,599616069821077322,17353
1712048698241,599616069828743680,17327
1712048698249,599616069836410038,17362
1712048698257,599616069844076396,17402
1712048698264,599616069851742754,17435
1712048698272,599616069859409112,17334
1712048698280,599616069867075470,17264
1712048698287,599616069874741828,17334
1712048698295,599616069882408186,17367
1712048698303,599616069890074544,17252
1712048698310,599616069897740902,17170
1712048698318,599616069905407260,17285
1712048698326,599616069913073618,17353
1712048698333,599616069920739976,17334
1712048698341,599616069928406334,17512
1712048698349,599616069936072692,17414
1712048698356,599616069943739050,16924
1712048698364,599616069951405408,16973
1712048698372,599616069959071766,17219
1712048698379,599616069966738124,17015
1712048698387,599616069974404482,17003
1712048698395,599616069982070840,17160
1712048698401,599616069989737198,16999
1712048698409,599616069997403556,17048
1712048698417,599616070005069914,17517
1712048698425,599616070012736272,17470
1712048698433,599616070020402630,16947
1712048698441,599616070028068988,16950
1712048698448,599616070035735346,17071
1712048698456,599616070043401704,16928
1712048698464,599616070051068062,16952
1712048698471,599616070058704360,16957
1712048698479,599616070066371136,16928
1712048698487,599616070074037912,17092
1712048698494,599616070081704688,17163
1712048698502,599616070089371464,17313
1712048698510,599616070097038240,17507
1712048698517,599616070104705016,17057
1712048698525,599616070112371792,16628
1712048698533,599616070120038568,17212
1712048698540,599616070127705344,17648
1712048698548,599616070135372120,16999
1712048698556,599616070143038896,16736
1712048698563,599616070150705672,17163
1712048698571,599616070158372448,17165
1712048698579,599616070166039224,17076
1712048698585,599616070173706000,17254
1712048698593,599616070181372776,17268
1712048698601,599616070189039552,17104
1712048698609,599616070196706328,16945
1712048698617,599616070204373104,16823
1712048698625,599616070212039880,16830
1712048698632,599616070219706656,16971
1712048698640,599616070227373432,17088
1712048698648,599616070235040208,17076
1712048698655,599616070242706984,17050
1712048698663,599616070250373760,17095
1712048698671,599616070258040536,17107
1712048698678,599616070265707312,17200
1712048698686,599616070273374088,17409
1712048698694,599616070281040864,17282
1712048698701,599616070288707640,16945
1712048698709,599616070296374416,16896
1712048698717,599616070304041192,16905
1712048698724,599616070311707968,16982
1712048698732,599616070319374744,17310
1712048698740,599616070327041520,17165
1712048698747,599616070334708296,16774
1712048698755,599616070342375072,16938
1712048698763,599616070350041848,16858
1712048698769,599616070357708624,16476
1712048698777,599616070365375400,16657
1712048698785,599616070373042176,16746
1712048698793,599616070380708952,16317
1712048698801,599616070388375728,16223
1712048698809,599616070396042504,16415
1712048698816,599616070403709280,16396
1712048698824,599616070411376056,16532
1712048698832,599616070419042832,16699
1712048698839,599616070426709608,16401
1712048698847,599616070434376384,16171
1712048698855,599616070442043160,16378
1712048698862,599616070449709936,16556
1712048698870,599616070457376712,16642
1712048698878,599616070465043488,16701
1712048698885,599616070472710264,16314
1712048698893,599616070480377040,15827
1712048698901,599616070488043816,15900
1712048698908,599616070495710592,16059
1712048698916,599616070503377368,16050
1712048698924,599616070511044144,16350
1712048698931,599616070518710920,16551
1712048698939,599616070526377696,16117
1712048698947,599616070534044472,15850
1712048698953,599616070541711248,16080
1712048698961,599616070549378024,16164
1712048698969,599616070557044800,16101
1712048698977,599616070564711576,16045
1712048698985,599616070572378352,15864
1712048698993,599616070580045128,15846
1712048699000,599616070587711904,16042
1712048699008,599616070595378680,15956
1712048699016,599616070603045456,15731
1712048699023,599616070610712232,15745
1712048699031,599616070618409144,15721
1712048699039,599616070626075502,15609
1712048699046,599616070633741860,15616
1712048699054,599616070641408218,15635
1712048699062,599616070649074576,15621
1712048699069,599616070656740934,15878
1712048699077,599616070664407292,15977
1712048699085,599616070672073650,15325
1712048699092,599616070679740008,14969
1712048699100,599616070687406366,15246
1712048699108,599616070695072724,15173
1712048699115,599616070702739082,14934
1712048699123,599616070710405440,14503
1712048699131,599616070718071798,12438
1712048699137,599616070725738156,10080
1712048699145,599616070733404514,10045
1712048699153,599616070741070872,10542
1712048699161,599616070748737230,10120
1712048699169,599616070756403588,10200
1712048699177,599616070764069946,10563
1712048699184,599616070771736304,10492
1712048699192,599616070779402662,10605
1712048699200,599616070787069020,10872
1712048699207,599616070794735378,10858
1712048699215,599616070802401736,11090
1712048699223,599616070810068094,11313
1712048699230,599616070817734452,10856
1712048699238,599616070825400810,10715
1712048699246,599616070833067168,11088
1712048699253,599616070840733526,10891
1712048699261,599616070848399884,10596
1712048699269,599616070856066242,10802
1712048699276,599616070863732600,10851
1712048699284,599616070871398958,10755
1712048699292,599616070879065316,10870
1712048699299,599616070886731674,10896
1712048699307,599616070894398032,10903
1712048699315,599616070902064390,11102
1712048699321,599616070909730748,11205
1712048699329,599616070917397106,11191
1712048699337,599616070925063464,11247
1712048699345,599616070932729822,11245
1712048699353,599616070940396180,11250
1712048699361,599616070948062538,11409
1712048699368,599616070955728896,11514
1712048699376,599616070963395254,11470
1712048699384,599616070971061612,11425
1712048699391,599616070978727970,11371
1712048699399,599616070986394328,11285
1712048699407,599616070994060686,11289
1712048699414,599616071001727044,11383
1712048699422,599616071009393402,11245
1712048699430,599616071017059760,11071
1712048699437,599616071024726118,11210
1712048699445,599616071032392476,11055
1712048699453,599616071040058834,10734
1712048699460,599616071047725192,10935
1712048699468,599616071055391550,11111
1712048699476,599616071063057908,10856
1712048699483,599616071070724266,10792
1712048699491,599616071078390624,11003
1712048699499,599616071086056982,10898
1712048699505,599616071093723340,10708
1712048699513,599616071101389698,10860
1712048699521,599616071109056056,10844
1712048699529,599616071116722414,10584
1712048699537,599616071124388772,10560
1712048699545,599616071132055130,10600
1712048699552,599616071139721488,10567
1712048699560,599616071147387846,10635
1712048699568,599616071155054204,10582
1712048699575,599616071162720562,10333
1712048699583,599616071170386920,10209
1712048699591,599616071178043308,10174
1712048699598,599616071185709805,10164
1712048699606,599616071193376302,10425
1712048699614,599616071201042799,10387
1712048699621,599616071208709296,9768
1712048699629,599616071216375793,9714
1712048699637,599616071224042290,10040
1712048699644,599616071231708787,9897
1712048699652,599616071239375284,9881
1712048699660,599616071247041781,10054
1712048699667,599616071254708278,9874
1712048699675,599616071262374775,9724
1712048699683,599616071270041272,9839
1712048699689,599616071277707769,9808
1712048699697,599616071285374266,9731
1712048699705,599616071293040763,9728
1712048699713,599616071300707260,9532
1712048699721,599616071308373757,9297
1712048699729,599616071316040254,9344
1712048699736,599616071323706751,9508
1712048699744,599616071331373248,9499
1712048699752,599616071339039745,9403
1712048699759,599616071346706242,9142
1712048699767,599616071354372739,8617
1712048699775,599616071362039236,8507
1712048699782,599616071369705733,8817
1712048699790,599616071377372230,8868
1712048699798,599616071385038727,8777
1712048699805,599616071392705224,8765
1712048699813,599616071400371721,8714
1712048699821,599616071408038218,8653
1712048699828,599616071415704715,8674
1712048699836,599616071423371212,8714
1712048699844,599616071431037709,8613
1712048699851,599616071438704206,8367
1712048699859,599616071446370703,8172
1712048699867,599616071454037200,8039
1712048699873,599616071461703697,7959
1712048699881,599616071469370194,8006
1712048699889,599616071477036691,8043
1712048699897,599616071484703188,7982
1712048699905,599616071492369685,7942
1712048699913,599616071500036182,7903
1712048699920,599616071507702679,7907
1712048699928,599616071515369176,8062
1712048699936,599616071523035673,8165
1712048699943,599616071530702170,7964
1712048699951,599616071538368667,7692
1712048699959,599616071546035164,7572
1712048699966,599616071553701661,7530
1712048699974,599616071561368158,7614
1712048699982,599616071569034655,7701
1712048699989,599616071576701152,7539
1712048699997,599616071584367649,7335
1712048700005,599616071592034146,7265
1712048700012,599616071599700643,7115
1712048700020,599616071607367140,7005
1712048700028,599616071615033637,7003
1712048700035,599616071622700134,6874
1712048700043,599616071630366631,6768
1712048700051,599616071638033128,6742
1712048700057,599616071645699625,6585
1712048700065,599616071653366122,6496
1712048700073,599616071661032619,6464
1712048700081,599616071668699116,6236
1712048700089,599616071676365613,6098
1712048700097,599616071684032110,6126
1712048700104,599616071691698607,5988
1712048700112,599616071699365104,5796
1712048700120,599616071707031601,5683
1712048700127,599616071714698098,5540
1712048700135,599616071722364595,5491
1712048700143,599616071730031092,5564
1712048700150,599616071737687570,5364
1712048700158,599616071745354207,4973
1712048700166,599616071753020844,4924
1712048700173,599616071760687481,4971
1712048700181,599616071768354118,4821
1712048700189,599616071776020755,4776
1712048700196,599616071783687392,4767
1712048700204,599616071791354029,4593
1712048700212,599616071799020666,4413
1712048700219,599616071806687303,4335
1712048700227,599616071814353940,4340
1712048700235,599616071822020577,4286
1712048700241,599616071829687214,4096
1712048700249,599616071837353851,3902
1712048700257,599616071845020488,3768
1712048700265,599616071852687125,3742
1712048700273,599616071860353762,3750
1712048700281,599616071868020399,3724
1712048700288,599616071875687036,3785
1712048700296,599616071883353673,3700
1712048700304,599616071891020310,3407
1712048700311,599616071898686947,3396
1712048700319,599616071906353584,3555
1712048700327,599616071914020221,3527
1712048700334,599616071921686858,3473
1712048700342,599616071929353495,3433
1712048700350,599616071937020132,3318
1712048700357,599616071944686769,3239
1712048700365,599616071952353406,3145
1712048700373,599616071960020043,2887
1712048700380,599616071967686680,2824
1712048700388,599616071975353317,3164
1712048700396,599616071983019954,3342
1712048700403,599616071990686591,3220
1712048700411,599616071998353228,3307
1712048700419,599616072006019865,3517
1712048700425,599616072013686502,3618
1712048700433,599616072021353139,3796
1712048700441,599616072029019776,3869
1712048700449,599616072036686413,3496
1712048700457,599616072044353050,3217
1712048700465,599616072052019687,3431
1712048700472,599616072059686324,3658
1712048700480,599616072067352961,3747
1712048700488,599616072075019598,3764
1712048700495,599616072082686235,3700
1712048700503,599616072090352872,3909
1712048700511,599616072098019509,4312
1712048700518,599616072105686146,4507
1712048700526,599616072113352783,4645
1712048700534,599616072121019420,4825
1712048700541,599616072128686057,4802
1712048700549,599616072136352694,4750
1712048700557,599616072144019331,4919
1712048700564,599616072151685968,5081
1712048700572,599616072159352605,5170
1712048700580,599616072167019242,5303
1712048700587,599616072174685879,5348
1712048700595,599616072182352516,5310
1712048700603,599616072190019153,5378
1712048700609,599616072197685790,5472
1712048700617,599616072205352427,5505
1712048700625,599616072213019064,5538
1712048700633,599616072220685701,5580
1712048700641,599616072228352338,5622
1712048700649,599616072236018975,5657
1712048700656,599616072243685612,5711
1712048700664,599616072251352249,5857
1712048700672,599616072259018886,6051
1712048700679,599616072266685523,6142
1712048700687,599616072274352160,5946
1712048700695,599616072282018797,5721
1712048700702,599616072289685434,5878
1712048700710,599616072297342078,6072
1712048700717,599616072305008854,6072
1712048700725,599616072312675630,6110
1712048700733,599616072320342406,6091
1712048700740,599616072328009182,6049
1712048700748,599616072335675958,6173
1712048700756,599616072343342734,6290
1712048700763,599616072351009510,6241
1712048700771,599616072358676286,6217
1712048700779,599616072366343062,6314
1712048700785,599616072374009838,6379
1712048700793,599616072381676614,6353
1712048700801,599616072389343390,6328
1712048700809,599616072397010166,6372
1712048700817,599616072404676942,6410
1712048700825,599616072412343718,6424
1712048700832,599616072420010494,6276
1712048700840,599616072427677270,6084
1712048700848,599616072435344046,6318
1712048700855,599616072443010822,6496
1712048700863,599616072450677598,6311
1712048700871,599616072458344374,6421
1712048700878,599616072466011150,6592
1712048700886,599616072473677926,6325
1712048700894,599616072481344702,6283
1712048700901,599616072489011478,6571
1712048700909,599616072496678254,6567
1712048700917,599616072504345030,6534
1712048700924,599616072512011806,6710
1712048700932,599616072519678582,6750
1712048700940,599616072527345358,6834
1712048700947,599616072535012134,7021
1712048700955,599616072542678910,6841
1712048700963,599616072550345686,6672
1712048700969,599616072558012462,6764
1712048700977,599616072565679238,6682
1712048700985,599616072573346014,6721
1712048700993,599616072581012790,6977
1712048701001,599616072588679566,6921
1712048701009,599616072596346342,6766
1712048701016,599616072604013118,6982
1712048701024,599616072611679894,7218
1712048701032,599616072619346670,7094
1712048701040,599616072627013446,6972
1712048701047,599616072634680222,7010
1712048701055,599616072642346998,6991
1712048701063,599616072650013774,7061
1712048701070,599616072657680550,7160
1712048701078,599616072665347326,7073
1712048701086,599616072673014102,7066
1712048701093,599616072680680878,7216
1712048701101,599616072688347654,7286
1712048701109,599616072696014430,7314
1712048701116,599616072703681206,7425
1712048701124,599616072711347982,7502
1712048701132,599616072719014758,7427
1712048701139,599616072726681534,7371
1712048701147,599616072734348310,7453
1712048701155,599616072742015086,7504
1712048701161,599616072749681862,7558
1712048701169,599616072757348638,7764
1712048701177,599616072765015414,7910
1712048701185,599616072772682190,7795
1712048701193,599616072780348966,7743
1712048701201,599616072788015742,7905
1712048701208,599616072795682518,7966
1712048701216,599616072803349294,7910
1712048701224,599616072811016070,7835
1712048701231,599616072818682846,7755
1712048701239,599616072826349622,7809
1712048701247,599616072834016398,7867
1712048701254,599616072841683174,7858
1712048701262,599616072849349950,8013
1712048701270,599616072857016766,8055
1712048701277,599616072864683542,7800
1712048701285,599616072872350318,7844
1712048701293,599616072880017094,8128
1712048701300,599616072887683870,8191
1712048701308,599616072895350646,8317
1712048701316,599616072903017422,8428
1712048701323,599616072910684198,8130
1712048701331,599616072918350974,7985
1712048701339,599616072926017750,8245
1712048701345,599616072933684526,8315
1712048701353,599616072941351302,8334
1712048701361,599616072949018078,8514
1712048701369,599616072956684854,8402
1712048701377,599616072964351630,8186
1712048701385,599616072972018406,8367
1712048701392,599616072979685182,8559
1712048701400,599616072987351958,8592
1712048701408,599616072995018734,8775
1712048701415,599616073002685510,8821
1712048701423,599616073010352286,8615
1712048701431,599616073018019062,8653
1712048701438,599616073025685838,8917
1712048701446,599616073033352614,8971
1712048701454,599616073041019390,8744
1712048701461,599616073048686166,8636
1712048701469,599616073056352942,8728
1712048701477,599616073064019718,8664
1712048701484,599616073071686494,8678
1712048701492,599616073079353270,8922
1712048701500,599616073087020046,9046
1712048701507,599616073094686822,9079
1712048701515,599616073102353598,9185
1712048701523,599616073110020374,9309
1712048701529,599616073117687150,9459
1712048701537,599616073125353926,9564
1712048701545,599616073133020702,9506
1712048701553,599616073140687478,9309
1712048701561,599616073148354254,9107
1712048701569,599616073156021030,9072
1712048701576,599616073163687806,9260
1712048701584,599616073171354582,9407
1712048701592,599616073179021358,9288
1712048701599,599616073186688134,9180
1712048701607,599616073194354910,9283
1712048701615,599616073202021686,9328
1712048701622,599616073209688462,9267
1712048701630,599616073217355238,9335
1712048701638,599616073225022014,9342
1712048701645,599616073232688790,9203
1712048701653,599616073240355566,9290
1712048701661,599616073248022342,9485
1712048701668,599616073255689118,9471
1712048701676,599616073263355894,9506
1712048701684,599616073271022670,9639
1712048701691,599616073278689446,9672
1712048701699,599616073286356222,9810
1712048701707,599616073294022998,10085
1712048701713,599616073301689774,10054
1712048701721,599616073309356550,9789
1712048701729,599616073317023326,9764
1712048701737,599616073324690102,9757
1712048701745,599616073332356878,9658
1712048701753,599616073340023654,9656
1712048701760,599616073347690430,9433
1712048701768,599616073355357206,9234
1712048701776,599616073363023982,9445
1712048701783,599616073370690758,9555
1712048701791,599616073378357534,9517
1712048701799,599616073386024310,9689
1712048701806,599616073393691086,9771
1712048701814,599616073401357862,9635
1712048701822,599616073409024638,9557
1712048701829,599616073416691454,9487
1712048701837,599616073424358230,9414
1712048701845,599616073432025006,9499
1712048701852,599616073439691782,9597
1712048701860,599616073447358558,9595
1712048701868,599616073455025334,9541
1712048701875,599616073462692110,9396
1712048701883,599616073470358886,9405
1712048701891,599616073478025662,9618
1712048701897,599616073485692438,9442
1712048701905,599616073493359214,8910
1712048701913,599616073501025990,8955
1712048701921,599616073508692766,9527
1712048701929,599616073516359542,9733
1712048701937,599616073524026318,9803
1712048701944,599616073531693094,10132
1712048701952,599616073539359870,10064
1712048701960,599616073547026646,9576
1712048701967,599616073554693422,9604
1712048701975,599616073562360198,9944
1712048701983,599616073570026974,9902
1712048701990,599616073577693750,9848
1712048701998,599616073585360526,9977
1712048702006,599616073593027302,9862
1712048702013,599616073600694078,9670
1712048702021,599616073608360854,9768
1712048702029,599616073616027630,9895
1712048702036,599616073623694406,9970
1712048702044,599616073631361182,10232
1712048702052,599616073639027958,10392
1712048702059,599616073646694734,10352
1712048702067,599616073654361510,10586
1712048702075,599616073662028286,10910
1712048702081,599616073669695062,11100
1712048702089,599616073677361838,11400
1712048702097,599616073685028614,11289
1712048702105,599616073692695390,10879
1712048702113,599616073700362166,11137
1712048702121,599616073708028942,11442
1712048702128,599616073715695718,11226
1712048702136,599616073723362494,11137
1712048702144,599616073731029270,11046
1712048702151,599616073738696046,10680
1712048702159,599616073746362822,10654
1712048702167,599616073754029598,10931
1712048702174,599616073761696374,10954
1712048702182,599616073769363150,10987
1712048702190,599616073777029926,11203
1712048702197,599616073784696702,11416
1712048702205,599616073792363478,11521
1712048702213,599616073800030254,11395
1712048702220,599616073807697030,11385
1712048702228,599616073815363806,11402
1712048702236,599616073823030582,11116
1712048702243,599616073830697358,11015
1712048702251,599616073838364134,11125
1712048702259,599616073846030910,11135
1712048702265,599616073853697686,11322
1712048702273,599616073861364462,11711
1712048702281,599616073869031238,12018
1712048702289,599616073876698014,12128
1712048702297,599616073884364790,12014
1712048702305,599616073892031566,11927
1712048702312,599616073899698342,12096
1712048702320,599616073907365118,12196
1712048702328,599616073915031894,12075
1712048702335,599616073922698670,12016
1712048702343,599616073930365446,12039
1712048702351,599616073938032222,11988
1712048702358,599616073945698998,11978
1712048702366,599616073953365774,12025
1712048702374,599616073961032550,11948
1712048702381,599616073968699326,11922
1712048702389,599616073976396236,12171
1712048702397,599616073984062594,12503
1712048702404,599616073991728952,12888
1712048702412,599616073999395310,13354
1712048702420,599616074007061668,13511
1712048702427,599616074014728026,13202
1712048702435,599616074022394384,12110
1712048702443,599616074030060742,9757
1712048702449,599616074037727100,8104
1712048702457,599616074045393458,9853
1712048702465,599616074053059816,12585
1712048702473,599616074060726174,12525
1712048702481,599616074068392532,11599
1712048702489,599616074076058890,11739
1712048702496,599616074083725248,11425
1712048702504,599616074091391606,10818
1712048702512,599616074099057964,10835
1712048702519,599616074106724322,10999
1712048702527,599616074114390680,11275
1712048702535,599616074122057038,11746
1712048702542,599616074129723396,11988
1712048702550,599616074137389754,12283
1712048702558,599616074145056112,12850
1712048702565,599616074152722470,13171
1712048702573,599616074160388828,13185
1712048702581,599616074168055186,13033
1712048702588,599616074175721544,12489
1712048702596,599616074183387902,11575
1712048702604,599616074191054260,10380
1712048702611,599616074198720618,8988
1712048702619,599616074206386976,7907
1712048702627,599616074214053334,7239
1712048702633,599616074221719692,6478
1712048702641,599616074229386050,5903
1712048702649,599616074237052408,6079
1712048702657,599616074244718766,6358
1712048702665,599616074252385124,6412
1712048702673,599616074260051482,6583
1712048702680,599616074267717840,5901
1712048702688,599616074275384198,4010
1712048702696,599616074283050556,3018
1712048702703,599616074290716914,3433
1712048702711,599616074298383272,3344
1712048702719,599616074306049630,2625
1712048702726,599616074313715988,2172
1712048702734,599616074321382346,1511
1712048702742,599616074329048704,993
1712048702749,599616074336715062,1689
1712048702757,599616074344381420,2421
1712048702765,599616074352047778,2034
1712048702772,599616074359714136,1380
1712048702780,599616074367380494,637
1712048702788,599616074375046852,-307
1712048702795,599616074382713210,-522
1712048702803,599616074390379568,-161
1712048702811,599616074398045926,-135
1712048702817,599616074405712284,-199
1712048702825,599616074413378642,-225
1712048702833,599616074421045000,-360
1712048702841,599616074428711358,-11
1712048702849,599616074436377716,682
1712048702857,599616074444044074,1003
1712048702864,599616074451710432,1275
1712048702872,599616074459376790,1605
1712048702880,599616074467043148,1483
1712048702887,599616074474709506,1211
1712048702895,599616074482375864,1275
1712048702903,599616074490042222,1321
1712048702910,599616074497708580,1230
1712048702918,599616074505374938,1354
1712048702926,599616074513041296,1528
1712048702933,599616074520707654,1640
1712048702941,599616074528374012,1919
1712048702949,599616074536040410,2177
1712048702956,599616074543706768,2149
1712048702964,599616074551373126,2198
1712048702972,599616074559039484,1917
1712048702979,599616074566705842,1296
1712048702987,599616074574372200,2238
1712048702995,599616074582038558,3682
1712048703001,599616074589704916,3585
1712048703009,599616074597371274,3506
1712048703017,599616074605037632,4080
1712048703025,599616074612703990,4183
1712048703033,599616074620370348,4110
1712048703041,599616074628036706,4340
1712048703048,599616074635703064,4422
1712048703056,599616074643369422,4291
1712048703064,599616074651035780,4204
1712048703071,599616074658702138,4071
1712048703079,599616074666368496,3932
1712048703087,599616074674034854,3979
1712048703094,599616074681701212,4054
1712048703102,599616074689367570,3967
1712048703110,599616074697033928,3827
1712048703117,599616074704700286,3757
1712048703125,599616074712366644,3759
1712048703133,599616074720033002,3846
1712048703140,599616074727699360,3993
1712048703148,599616074735365718,4089
1712048703156,599616074743032076,4108
1712048703163,599616074750698434,4094
1712048703171,599616074758364792,3904
1712048703179,599616074766031150,3846
1712048703185,599616074773697508,4232
1712048703193,599616074781363866,4396
1712048703201,599616074789030224,4371
1712048703209,599616074796696582,4692
1712048703217,599616074804362940,4910
1712048703225,599616074812029298,4764
1712048703232,599616074819695656,4725
1712048703240,599616074827362014,4807
1712048703248,599616074835028372,4612
1712048703255,599616074842694730,4296
1712048703263,599616074850361088,4038
1712048703271,599616074858027446,3515
1712048703278,599616074865693804,2908
1712048703286,599616074873360162,2660
1712048703294,599616074881026520,2521
1712048703301,599616074888692878,2257
1712048703309,599616074896359236,2074
1712048703317,599616074904025594,2132
1712048703324,599616074911691952,2435
1712048703332,599616074919358310,2850
1712048703340,599616074927024668,2985
1712048703347,599616074934691026,2943
1712048703355,599616074942357384,3128
1712048703363,599616074950023742,2873
1712048703369,599616074957690100,2137
1712048703377,599616074965356458,2088
1712048703385,599616074973022816,2271
1712048703393,599616074980689174,2008
1712048703401,599616074988355532,2008
1712048703409,599616074996021890,2102
1712048703416,599616075003688248,1928
1712048703424,599616075011354606,2383
1712048703432,599616075019020964,3314
1712048703439,599616075026687322,3738
1712048703447,599616075034353680,4148
1712048703455,599616075042020038,4715
1712048703462,599616075049686396,4492
1712048703470,599616075057352754,3679
1712048703478,599616075065019112,3253
1712048703485,599616075072685470,2967
1712048703493,599616075080351828,2198
1712048703501,599616075088018186,1413
1712048703508,599616075095654484,707
1712048703516,599616075103321260,-140
1712048703523,599616075110988036,-285
1712048703531,599616075118654812,-21
1712048703539,599616075126321588,-506
1712048703545,599616075133988364,-1497
1712048703553,599616075141655140,-2711
1712048703561,599616075149321916,-3986
1712048703569,599616075156988692,-4439
1712048703577,599616075164655468,-4347
1712048703585,599616075172322244,-4811
1712048703592,599616075179989020,-5458
1712048703600,599616075187655796,-5777
1712048703608,599616075195322572,-6239
1712048703615,599616075202989348,-6517
1712048703623,599616075210656124,-5917
1712048703631,599616075218322900,-5193
1712048703638,599616075225989676,-5015
1712048703646,599616075233656452,-4910
1712048703654,599616075241323228,-4821
1712048703661,599616075248990004,-4935
1712048703669,599616075256656780,-4893
1712048703677,599616075264323556,-4743
1712048703684,599616075271990332,-4828
1712048703692,599616075279657108,-4914
1712048703700,599616075287323884,-4872
1712048703707,599616075294990660,-4987
1712048703715,599616075302657436,-4992
1712048703723,599616075310324212,-4736
1712048703729,599616075317990988,-4757
1712048703737,599616075325657764,-4910
1712048703745,599616075333324540,-4856
1712048703753,599616075340991316,-4973
1712048703761,599616075348658092,-4978
1712048703769,599616075356324868,-4340
1712048703776,599616075363991644,-3754
1712048703784,599616075371658420,-3527
1712048703792,599616075379325196,-3159
1712048703799,599616075386991972,-2772
1712048703807,599616075394658748,-2533
1712048703815,599616075402325524,-2177
1712048703822,599616075409992300,-1781
1712048703830,599616075417659076,-1535
1712048703838,599616075425325852,-1317
1712048703845,599616075432992628,-1202
1712048703853,599616075440659404,-1420
1712048703861,599616075448326180,-1593
1712048703868,599616075455992956,-1563
1712048703876,599616075463659732,-1968
1712048703884,599616075471326508,-2421
1712048703891,599616075478993284,-2189
1712048703899,599616075486660060,-1914
1712048703907,599616075494326836,-2069
1712048703913,599616075501993612,-2257
1712048703921,599616075509660388,-2446
1712048703929,599616075517327164,-2882
1712048703937,599616075524993940,-3300
1712048703945,599616075532660716,-3421
1712048703953,599616075540327492,-3583
1712048703960,599616075547994268,-3890
1712048703968,599616075555661044,-4132
1712048703976,599616075563327820,-4441
1712048703983,599616075570994596,-4626
1712048703991,599616075578661372,-4453
1712048703999,599616075586328148,-4279
1712048704006,599616075593994924,-4164
1712048704014,599616075601661700,-3850
1712048704022,599616075609328476,-3487
1712048704029,599616075616995252,-3278
1712048704037,599616075624662028,-3070
1712048704045,599616075632328804,-2814
1712048704052,599616075639995580,-2615
1712048704060,599616075647662356,-2259
1712048704068,599616075655359268,-1743
1712048704076,599616075663025626,-1446
1712048704083,599616075670691984,-1275
1712048704091,599616075678358342,-1035
1712048704099,599616075686024700,-958
1712048704105,599616075693691058,-1019
1712048704113,599616075701357416,-916
1712048704121,599616075709023774,-782
1712048704129,599616075716690132,-778
1712048704137,599616075724356490,-740
1712048704145,599616075732022848,-813
1712048704152,599616075739689206,-909
1712048704160,599616075747355564,-595
1712048704168,599616075755021922,-316
1712048704175,599616075762688280,-550
1712048704183,599616075770354638,-757
1712048704191,599616075778020996,-778
1712048704198,599616075785687354,-970
1712048704206,599616075793353712,-1054
1712048704214,599616075801020070,-836
1712048704221,599616075808686428,-649
1712048704229,599616075816352786,-546
1712048704237,599616075824019144,-471
1712048704244,599616075831685502,-569
1712048704252,599616075839351860,-632
1712048704260,599616075847018218,-412
1712048704267,599616075854684576,-255
1712048704275,599616075862350934,-292
1712048704283,599616075870017292,-281
1712048704289,599616075877683650,-276
1712048704297,599616075885350008,-330
1712048704305,599616075893016366,-365
1712048704313,599616075900682724,-346
1712048704321,599616075908349082,-246
1712048704329,599616075916015440,-208
1712048704336,599616075923681798,-222
1712048704344,599616075931348156,-110
1712048704352,599616075939014514,14
1712048704359,599616075946680872,100
1712048704367,599616075954347230,206
1712048704375,599616075962013588,246
1712048704382,599616075969679946,175
1712048704390,599616075977346304,-114
1712048704397,599616075985012662,-302
1712048704405,599616075992679020,46
1712048704413,599616076000345378,382
1712048704420,599616076008011736,344
1712048704428,599616076015678094,367
1712048704436,599616076023344452,382
1712048704443,599616076031010810,103
1712048704451,599616076038677168,157
1712048704459,599616076046343526,771
1712048704465,599616076054009884,1082
1712048704473,599616076061676242,829
1712048704481,599616076069342600,724
1712048704489,599616076077008958,1014
1712048704497,599616076084675316,1216
1712048704505,599616076092341674,1192
1712048704512,599616076100008032,1129
1712048704520,599616076107674390,1094
1712048704528,599616076115340748,1117
1712048704535,599616076123007106,1028
1712048704543,599616076130673464,883
1712048704551,599616076138339822,1021
1712048704558,599616076146006180,1279
1712048704566,599616076153672538,1359
1712048704574,599616076161338896,1434
1712048704581,599616076169005254,1504
1712048704589,599616076176671612,1492
1712048704597,599616076184337970,1790
1712048704604,599616076192004328,2289
1712048704612,599616076199670686,2507
1712048704620,599616076207337044,2657
1712048704627,599616076214978382,2896
1712048704635,599616076222645088,2995
1712048704643,599616076230311794,3023
1712048704649,599616076237978500,3100
1712048704657,599616076245645206,3079
1712048704665,599616076253311912,2866
1712048704673,599616076260978618,2526
1712048704681,599616076268645324,2135
1712048704689,599616076276312030,1910
1712048704696,599616076283978736,2100
1712048704704,599616076291645442,2353
1712048704712,599616076299312148,2364
1712048704719,599616076306978854,2294
1712048704727,599616076314645560,2139
1712048704735,599616076322312266,1907
1712048704742,599616076329978972,1729
1712048704750,599616076337645678,1610
1712048704758,599616076345312384,1490
1712048704765,599616076352979090,1321
1712048704773,599616076360645796,1167
1712048704781,599616076368312502,1050
1712048704788,599616076375979208,1059
1712048704796,599616076383645914,1324
1712048704804,599616076391312620,1542
1712048704811,599616076398979326,1535
1712048704819,599616076406646032,1603
1712048704827,599616076414312738,1769
1712048704833,599616076421979444,1816
1712048704841,599616076429646150,1830
1712048704849,599616076437312856,1926
1712048704857,599616076444979562,1940
1712048704865,599616076452646268,1896
1712048704873,599616076460312974,1938
1712048704880,599616076467979680,1950
1712048704888,599616076475646386,1905
1712048704896,599616076483313092,1884
1712048704903,599616076490979798,1706
1712048704911,599616076498646504,1314
1712048704919,599616076506313210,892
1712048704926,599616076513979916,503
1712048704934,599616076521646622,393
1712048704942,599616076529313328,567
1712048704949,599616076536980034,421
1712048704957,599616076544646740,182
1712048704965,599616076552313446,574
1712048704972,599616076559980152,1235
1712048704980,599616076567646858,1612
1712048704988,599616076575313564,2034
1712048704995,599616076582980270,2653
1712048705003,599616076590646976,2955
1712048705011,599616076598313682,2842
1712048705017,599616076605980388,2498
1712048705025,599616076613647094,2088
1712048705033,599616076621313800,2107
1712048705041,599616076628980506,2514
1712048705049,599616076636647212,2704
1712048705057,599616076644313918,2711
1712048705064,599616076651980624,2812
1712048705072,599616076659647330,2833
1712048705080,599616076667314036,2714
1712048705087,599616076674980742,2617
1712048705095,599616076682647448,2540
1712048705103,599616076690314154,2467
1712048705110,599616076697980860,2484
1712048705118,599616076705647566,2486
1712048705126,599616076713314272,2390
1712048705133,599616076720980978,2475
1712048705141,599616076728647684,2735
1712048705149,599616076736314390,2899
1712048705156,599616076743981096,2948
1712048705164,599616076751647802,2906
1712048705172,599616076759314508,2864
1712048705179,599616076766981214,2871
1712048705187,599616076774667998,2845
1712048705195,599616076782334426,2847
1712048705201,599616076790000854,2922
1712048705209,599616076797667282,3014
1712048705217,599616076805333710,3058
1712048705225,599616076813000138,2995
1712048705233,599616076820666566,2971
1712048705241,599616076828332994,3086
1712048705248,599616076835999422,3161
1712048705256,599616076843665850,3187
1712048705264,599616076851332278,3100
1712048705271,599616076858998706,2831
1712048705279,599616076866665134,2901
1712048705287,599616076874331562,3335
1712048705294,599616076881997990,3513
1712048705302,599616076889664418,3475
1712048705310,599616076897330846,3426
1712048705317,599616076904997274,3250
1712048705325,599616076912663702,3264
1712048705333,599616076920330130,3639
1712048705340,599616076927996558,3796
1712048705348,599616076935662986,3712
1712048705356,599616076943329414,3794
1712048705363,599616076950995842,3834
1712048705371,599616076958662270,3726
1712048705379,599616076966328698,3794
1712048705385,599616076973995126,3916
1712048705393,599616076981661554,3890
1712048705401,599616076989327982,3860
1712048705409,599616076996994410,3733
1712048705417,599616077004660838,3562
1712048705425,599616077012327266,3731
1712048705432,599616077019993694,4014
1712048705440,599616077027660122,3946
1712048705448,599616077035326550,3848
1712048705455,599616077042992978,3787
1712048705463,599616077050659406,3391
1712048705471,599616077058325834,3370
1712048705478,599616077065992262,3984
1712048705486,599616077073658690,3967
1712048705494,599616077081325118,3621
1712048705501,599616077088991546,4003
1712048705509,599616077096657974,4291
1712048705517,599616077104324402,4092
1712048705524,599616077111990830,4143
1712048705532,599616077119657258,4335
1712048705540,599616077127323686,4305
1712048705547,599616077134990114,4251
1712048705555,599616077142656542,4258
1712048705563,599616077150322970,4216
1712048705569,599616077157989398,4164
1712048705577,599616077165655826,4204
1712048705585,599616077173322254,4289
1712048705593,599616077180988682,4340
1712048705601,599616077188655110,4331
1712048705609,599616077196321538,4108
1712048705616,599616077203987966,3728
1712048705624,599616077211654394,3761
1712048705632,599616077219320822,4153
1712048705639,599616077226987250,4232
1712048705647,599616077234653678,4089
1712048705655,599616077242320106,3874
1712048705662,599616077249986534,3717
1712048705670,599616077257652962,4075
1712048705678,599616077265319390,4396
1712048705685,599616077272985818,4230
1712048705693,599616077280652246,4178
1712048705701,599616077288318674,4342
1712048705708,599616077295985102,4317
1712048705716,599616077303651530,4265
1712048705724,599616077311317958,4427
1712048705731,599616077318984386,4521
1712048705739,599616077326650814,4502
1712048705747,599616077334322294,4640
1712048705753,599616077341988652,4757
1712048705761,599616077349655010,4710
1712048705769,599616077357321368,4755
1712048705777,599616077364987726,4823
1712048705785,599616077372654084,4795
1712048705793,599616077380320442,4898
1712048705800,599616077387986800,4935
1712048705808,599616077395653158,4699
1712048705816,599616077403319516,4753
1712048705823,599616077410985874,5083
1712048705831,599616077418652232,5121
1712048705839,599616077426318590,5111
1712048705846,599616077433984948,5205
1712048705854,599616077441651306,5025
1712048705862,599616077449317664,4889
1712048705869,599616077456984022,5132
1712048705877,599616077464650380,5233
1712048705885,599616077472316738,5146
1712048705892,599616077479983096,5217
1712048705900,599616077487649454,5221
1712048705908,599616077495315812,5118
1712048705915,599616077502982170,5172
1712048705923,599616077510648528,5264
1712048705931,599616077518314886,5301
1712048705937,599616077525981244,5392
1712048705945,599616077533647602,5453
1712048705953,599616077541313960,5418
1712048705961,599616077548980318,5383
1712048705969,599616077556646676,5430
1712048705977,599616077564313034,5540
1712048705984,599616077571979392,5400
1712048705992,599616077579645750,4931
1712048706000,599616077587312108,4762
1712048706007,599616077594978466,5170
1712048706015,599616077602644824,5594
1712048706023,599616077610311182,5657
1712048706030,599616077617977540,5662
1712048706038,599616077625643898,5821
1712048706046,599616077633310256,5885
1712048706053,599616077640976614,5791
1712048706061,599616077648642972,5821
1712048706069,599616077656309330,5995
1712048706076,599616077663975688,6063
1712048706084,599616077671642046,6091
1712048706092,599616077679308404,6168
1712048706099,599616077686974762,6093
1712048706107,599616077694641120,6009
1712048706115,599616077702307478,6159
1712048706121,599616077709973836,6262
1712048706129,599616077717640194,6241
1712048706137,599616077725306552,6276
1712048706145,599616077732972910,6164
1712048706153,599616077740639268,6035
1712048706161,599616077748305626,6262
1712048706168,599616077755971984,6417
1712048706176,599616077763638342,6342
1712048706184,599616077771304700,6428
1712048706191,599616077778971058,6239
1712048706199,599616077786637416,5899
1712048706207,599616077794303774,6363
1712048706214,599616077801970132,6944
1712048706222,599616077809636490,6867
1712048706230,599616077817302848,6677
1712048706237,599616077824969206,6459
1712048706245,599616077832635564,6255
1712048706253,599616077840301922,6489
1712048706260,599616077847968280,6778
1712048706268,599616077855634638,6747
1712048706276,599616077863300996,6794
1712048706283,599616077870967354,6946
1712048706291,599616077878633712,6897
1712048706299,599616077886300070,6771
1712048706305,599616077893936372,6721
1712048706313,599616077901603148,6649
1712048706321,599616077909269924,6548
1712048706329,599616077916936700,6457
1712048706337,599616077924603476,6145
1712048706345,599616077932270252,5810
1712048706352,599616077939937028,6075
1712048706360,599616077947603804,6541
1712048706368,599616077955270580,6600
1712048706375,599616077962937356,6602
1712048706383,599616077970604132,6757
1712048706391,599616077978270908,6735
1712048706398,599616077985937684,6611
1712048706406,599616077993604460,6799
1712048706414,599616078001271236,7042
1712048706421,599616078008938012,7007
1712048706429,599616078016604788,6712
1712048706437,599616078024271564,6021
1712048706444,599616078031938340,5838
1712048706452,599616078039605116,6693
1712048706460,599616078047271892,7012
1712048706467,599616078054938668,6567
1712048706475,599616078062605444,6553
1712048706483,599616078070272220,6602
1712048706489,599616078077938996,6093
1712048706497,599616078085605772,5941
1712048706505,599616078093272548,6501
1712048706513,599616078100939324,6644
1712048706521,599616078108606100,6400
1712048706529,599616078116272876,6300
1712048706536,599616078123939652,6021
1712048706544,599616078131606428,6065
1712048706552,599616078139273204,6611
1712048706559,599616078146939980,6721
1712048706567,599616078154606756,6480
1712048706575,599616078162273532,6520
1712048706582,599616078169940308,6658
1712048706590,599616078177607084,6639
1712048706598,599616078185273860,6651
1712048706605,599616078192940636,6630
1712048706613,599616078200607412,6515
1712048706621,599616078208274188,6555
1712048706628,599616078215940964,6632
1712048706636,599616078223607740,6461
1712048706644,599616078231274516,6288
1712048706651,599616078238941292,6445
1712048706659,599616078246608068,6623
1712048706667,599616078254274844,6653
1712048706673,599616078261941620,6691
1712048706681,599616078269608396,6660
1712048706689,599616078277275172,6583
1712048706697,599616078284941948,6546
1712048706705,599616078292608724,6508
1712048706713,599616078300275500,6571
1712048706720,599616078307942276,6611
1712048706728,599616078315609052,6173
1712048706736,599616078323275828,5791
1712048706743,599616078330942604,6229
1712048706751,599616078338609380,6628
1712048706759,599616078346276156,6508
1712048706766,599616078353942932,6550
1712048706774,599616078361609708,6679
1712048706782,599616078369276484,6555
1712048706789,599616078376943260,6438
1712048706797,599616078384610036,6548
1712048706805,599616078392276812,6667
1712048706812,599616078399943588,6670
1712048706820,599616078407610364,6679
1712048706828,599616078415277140,6642
1712048706835,599616078422943916,6513
1712048706843,599616078430610692,6532
1712048706851,599616078438277468,6670
1712048706857,599616078445944244,6667
1712048706865,599616078453626108,6630
1712048706873,599616078461292675,6604
1712048706881,599616078468959242,6302
1712048706889,599616078476625809,6121
1712048706897,599616078484292376,6464
1712048706904,599616078491958943,6447
1712048706912,599616078499625510,6075
1712048706920,599616078507292077,5962
1712048706927,599616078514958644,5812
1712048706935,599616078522625211,6067
1712048706943,599616078530291778,6794
1712048706950,599616078537958345,6991
1712048706958,599616078545624912,6869
1712048706966,599616078553291479,6658
1712048706973,599616078560958046,5821
1712048706981,599616078568624613,5505
1712048706989,599616078576291180,5992
1712048706996,599616078583957747,5730
1712048707004,599616078591624314,5735
1712048707012,599616078599290881,6543
1712048707019,599616078606957448,6525
1712048707027,599616078614624015,6180
1712048707035,599616078622290582,6571
1712048707041,599616078629957149,6923
1712048707049,599616078637623716,6867
1712048707057,599616078645290283,6862
1712048707065,599616078652956850,6569
1712048707073,599616078660623417,6044
1712048707081,599616078668289984,6349
1712048707088,599616078675956551,7028
1712048707096,599616078683623118,6977
1712048707104,599616078691289685,6766
1712048707111,599616078698956252,6832
1712048707119,599616078706622819,6799
1712048707127,599616078714289386,6604
1712048707134,599616078721955953,6421
1712048707142,599616078729622520,6529
1712048707150,599616078737289087,6735
1712048707157,599616078744955654,6649
1712048707165,599616078752622221,6492
1712048707173,599616078760288788,6492
1712048707180,599616078767955355,6562
1712048707188,599616078775621922,6618
1712048707196,599616078783288489,6618
1712048707203,599616078790955056,6560
1712048707211,599616078798621623,6515
1712048707219,599616078806288190,6503
1712048707225,599616078813954757,6508
1712048707233,599616078821621324,6534
1712048707241,599616078829287891,6501
1712048707249,599616078836954458,6431
1712048707257,599616078844621025,6314
1712048707265,599616078852287592,5786
1712048707272,599616078859954159,5456
1712048707280,599616078867620726,6131
1712048707288,599616078875287293,6382
1712048707295,599616078882953860,5824
1712048707303,599616078890620427,6021
1712048707311,599616078898286994,6480
1712048707318,599616078905953561,6260
1712048707326,599616078913620128,6208
1712048707334,599616078921286695,6499
1712048707341,599616078928953262,6433
1712048707349,599616078936619829,6316
1712048707357,599616078944286396,6466
1712048707364,599616078951952963,6435
1712048707372,599616078959619530,6098
1712048707380,599616078967286097,5871
1712048707387,599616078974952664,6023
1712048707395,599616078982619231,6285
1712048707403,599616078990285798,6161
1712048707409,599616078997952365,5723
1712048707417,599616079005618932,5578
1712048707425,599616079013315632,5667
1712048707433,599616079020981781,5660
1712048707441,599616079028647930,5831
1712048707449,599616079036314079,6023
1712048707456,599616079043980228,5348
1712048707464,599616079051646377,4525
1712048707472,599616079059312526,5261
1712048707479,599616079066978675,6210
1712048707487,599616079074644824,5760
1712048707495,599616079082310973,4889
1712048707502,599616079089977122,4436
1712048707510,599616079097643271,4387
1712048707518,599616079105309420,4935
1712048707525,599616079112975569,5866
1712048707533,599616079120641718,6112
1712048707541,599616079128307867,5943
1712048707548,599616079135974016,6084
1712048707556,599616079143640165,6035
1712048707564,599616079151306314,5753
1712048707571,599616079158972463,5714
1712048707579,599616079166638612,5831
1712048707587,599616079174304761,5819
1712048707593,599616079181970910,5704
1712048707601,599616079189637059,5317
1712048707609,599616079197303208,4739
1712048707617,599616079204969357,4635
1712048707625,599616079212635506,4849
1712048707633,599616079220301655,4982
1712048707640,599616079227967804,5289
1712048707648,599616079235633953,5634
1712048707656,599616079243300102,5561
1712048707663,599616079250966251,5360
1712048707671,599616079258632400,5575
1712048707679,599616079266298549,5859
1712048707686,599616079273964698,5791
1712048707694,599616079281630847,5695
1712048707702,599616079289296996,5585
1712048707709,599616079296963145,5289
1712048707717,599616079304629294,5240
1712048707725,599616079312295443,5484
1712048707732,599616079319961592,5533
1712048707740,599616079327627741,5472
1712048707748,599616079335293890,5460
1712048707755,599616079342960039,5357
1712048707763,599616079350626188,5409
1712048707771,599616079358292337,5669
1712048707777,599616079365958486,5756
1712048707785,599616079373624635,5739
1712048707793,599616079381290784,5411
1712048707801,599616079388956933,4319
1712048707809,599616079396623082,4125
1712048707817,599616079404289231,5554
1712048707824,599616079411955380,6028
1712048707832,599616079419621529,5463
1712048707840,599616079427287678,5554
1712048707847,599616079434953827,5557
1712048707855,599616079442619976,5158
1712048707863,599616079450286125,5107
1712048707870,599616079457952274,5029
1712048707878,599616079465618423,4961
1712048707886,599616079473284572,5259
1712048707893,599616079480950721,5257
1712048707901,599616079488616870,4992
1712048707909,599616079496283019,5139
1712048707916,599616079503949168,5404
1712048707924,599616079511615317,5383
1712048707932,599616079519281466,5325
1712048707939,599616079526947615,5029
1712048707947,599616079534613764,4075
1712048707955,599616079542279913,3864
1712048707961,599616079549946062,5095
1712048707969,599616079557612211,5566
1712048707977,599616079565278360,5062
1712048707985,599616079572899400,5069
1712048707993,599616079580566176,4975
1712048708001,599616079588232952,4050
1712048708008,599616079595899728,3813
1712048708016,599616079603566504,4952
1712048708024,599616079611233280,5383
1712048708031,599616079618900056,4875
1712048708039,599616079626566832,4612
1712048708047,599616079634233608,4202
1712048708054,599616079641900384,4258
1712048708062,599616079649567160,5205
1712048708070,599616079657233936,5453
1712048708077,599616079664900712,5034
1712048708085,599616079672567488,5125
1712048708093,599616079680234264,5266
1712048708100,599616079687901040,5081
1712048708108,599616079695567816,5010
1712048708116,599616079703234592,4753
1712048708123,599616079710901368,4408
1712048708131,599616079718568144,4725
1712048708139,599616079726234920,4722
1712048708145,599616079733901696,4042
1712048708153,599616079741568472,4467
1712048708161,599616079749235248,5402
1712048708169,599616079756902024,5224
1712048708177,599616079764568800,5006
1712048708185,599616079772235576,5350
1712048708192,599616079779902352,5303
1712048708200,599616079787569128,5109
1712048708208,599616079795235904,5310
1712048708215,599616079802902680,5371
1712048708223,599616079810569456,5261
1712048708231,599616079818236232,5400
1712048708238,599616079825903008,5416
1712048708246,599616079833569784,5242
1712048708254,599616079841236560,5296
1712048708261,599616079848903336,5374
1712048708269,599616079856570112,5336
1712048708277,599616079864236888,5453
1712048708284,599616079871903664,5512
1712048708292,599616079879570440,5355
1712048708300,599616079887237216,5217
1712048708307,599616079894903992,5149
1712048708315,599616079902570768,5245
1712048708323,599616079910237544,5467
1712048708329,599616079917904320,5294
1712048708337,599616079925571096,4560
1712048708345,599616079933237872,4396
1712048708353,599616079940904648,4905
1712048708361,599616079948571424,4567
1712048708369,599616079956238200,4298
1712048708376,599616079963904976,5245
1712048708384,599616079971571752,5643
1712048708392,599616079979238528,5163
1712048708399,599616079986905304,5226
1712048708407,599616079994572080,5615
1712048708415,599616080002238856,5641
1712048708422,599616080009905632,5568
1712048708430,599616080017572408,5552
1712048708438,599616080025239184,5280
1712048708445,599616080032905960,4940
1712048708453,599616080040572736,5092
1712048708461,599616080048239512,5444
1712048708468,599616080055906288,5453
1712048708476,599616080063573064,4945
1712048708484,599616080071239840,3529
1712048708491,599616080078906616,3018
1712048708499,599616080086573392,4092
1712048708507,599616080094240168,4303
1712048708513,599616080101906944,4720
1712048708521,599616080109573720,5889
1712048708529,599616080117240496,5655
1712048708537,599616080124907272,5003
1712048708545,599616080132604184,5439
1712048708553,599616080140270542,5917
1712048708560,599616080147936900,5775
1712048708568,599616080155603258,5704
1712048708576,599616080163269616,5135
1712048708583,599616080170935974,3892
1712048708591,599616080178602332,4263
1712048708599,599616080186268690,5678
1712048708606,599616080193935048,5296
1712048708614,599616080201601406,4642
1712048708622,599616080209267764,5320
1712048708629,599616080216934122,5350
1712048708637,599616080224600480,4896
1712048708645,599616080232266838,5432
1712048708652,599616080239933196,5812
1712048708660,599616080247599554,5470
1712048708668,599616080255265912,5362
1712048708675,599616080262932270,5278
1712048708683,599616080270598628,5041
1712048708691,599616080278264986,5329
1712048708697,599616080285931344,5728
1712048708705,599616080293597702,5648
1712048708713,599616080301264060,5514
1712048708721,599616080308930418,5064
1712048708729,599616080316596776,4164
1712048708737,599616080324263134,4342
1712048708744,599616080331929492,5463
1712048708752,599616080339595850,5622
1712048708760,599616080347262208,5240
1712048708767,599616080354928566,5289
1712048708775,599616080362594924,5242
1712048708783,599616080370261282,5144
1712048708790,599616080377927640,5407
1712048708798,599616080385593998,5610
1712048708806,599616080393260356,5496
1712048708813,599616080400926714,5369
1712048708821,599616080408593072,5317
1712048708829,599616080416259430,5247
1712048708836,599616080423925788,5214
1712048708844,599616080431592146,5186
1712048708852,599616080439258504,4680
1712048708859,599616080446924862,4188
1712048708867,599616080454591220,4429
1712048708875,599616080462257578,4146
1712048708881,599616080469923936,3951
1712048708889,599616080477590294,5137
1712048708897,599616080485256652,5620
1712048708905,599616080492923010,5032
1712048708913,599616080500589368,5121
1712048708921,599616080508255726,5364
1712048708928,599616080515922084,5121
1712048708936,599616080523588442,5196
1712048708944,599616080531254800,5435
1712048708951,599616080538921158,5254
1712048708959,599616080546587516,5182
1712048708967,599616080554253874,5327
1712048708974,599616080561920232,5210
1712048708982,599616080569586590,5160
1712048708990,599616080577252948,5325
1712048708997,599616080584919306,5125
1712048709005,599616080592585664,4026
1712048709013,599616080600252022,2467
1712048709020,599616080607918380,1966
1712048709028,599616080615584738,3396
1712048709036,599616080623251096,5240
1712048709043,599616080630917454,5339
1712048709051,599616080638583812,4919
1712048709059,599616080646250170,5364
1712048709065,599616080653916528,5383
1712048709073,599616080661582886,4961
1712048709081,599616080669249244,5074
1712048709089,599616080676915602,5144
1712048709097,599616080684581960,4621
1712048709105,599616080692218258,4429
1712048709112,599616080699885034,4875
1712048709120,599616080707551810,4830
1712048709128,599616080715218586,4504
1712048709135,599616080722885362,4807
1712048709143,599616080730552138,5205
1712048709151,599616080738218914,5301
1712048709158,599616080745885690,5067
1712048709166,599616080753552466,3975
1712048709174,599616080761219242,3419
1712048709181,599616080768886018,4668
1712048709189,599616080776552794,5341
1712048709197,599616080784219570,4821
1712048709204,599616080791886346,4788
1712048709212,599616080799553122,4033
1712048709220,599616080807219898,2709
1712048709227,599616080814886674,3663
1712048709235,599616080822553450,5322
1712048709243,599616080830220226,5252
1712048709249,599616080837887002,5095
1712048709257,599616080845553778,5456
1712048709265,599616080853220554,5200
1712048709273,599616080860887330,4884
1712048709281,599616080868554106,5289
1712048709289,599616080876220882,5632
1712048709296,599616080883887658,5519
1712048709304,599616080891554434,5470
1712048709312,599616080899221210,5271
1712048709319,599616080906887986,4879
1712048709327,599616080914554762,5081
1712048709335,599616080922221538,5475
1712048709342,599616080929888314,4994
1712048709350,599616080937555090,4403
1712048709358,599616080945221866,4584
1712048709365,599616080952888642,4617
1712048709373,599616080960555418,4537
1712048709381,599616080968222194,5022
1712048709388,599616080975888970,5355
1712048709396,599616080983555746,5233
1712048709404,599616080991222522,4532
1712048709411,599616080998889298,3213
1712048709419,599616081006556074,3473
1712048709427,599616081014222850,5287
1712048709433,599616081021889626,5557
1712048709441,599616081029556402,4910
1712048709449,599616081037223178,5001
1712048709457,599616081044889954,4710
1712048709465,599616081052556730,4326
1712048709473,599616081060223506,4926
1712048709480,599616081067890282,5355
1712048709488,599616081075557058,5090
1712048709496,599616081083223834,4973
1712048709503,599616081090890610,4858
1712048709511,599616081098557386,3864
1712048709519,599616081106224162,2835
1712048709526,599616081113890938,3841
1712048709534,599616081121557714,5339
1712048709542,599616081129224490,4982
1712048709549,599616081136891266,3609
1712048709557,599616081144558042,2292
1712048709565,599616081152224818,2819
1712048709572,599616081159891594,5008
1712048709580,599616081167558370,5402
1712048709588,599616081175225146,4120
1712048709595,599616081182891922,3667
1712048709603,599616081190558698,4202
1712048709611,599616081198225474,4664
1712048709617,599616081205892250,4837
1712048709625,599616081213559026,5003
1712048709633,599616081221225802,4968
1712048709641,599616081228892578,4757
1712048709649,599616081236559354,4680
1712048709657,599616081244226130,4699
1712048709664,599616081251923044,4795
1712048709672,599616081259589402,4999
1712048709680,599616081267255760,4973
1712048709687,599616081274922118,4715
1712048709695,599616081282588476,4361
1712048709703,599616081290254834,3464
1712048709710,599616081297921192,3290
1712048709718,599616081305587550,4715
1712048709726,599616081313253908,5090
1712048709733,599616081320920266,4267
1712048709741,599616081328586624,4218
1712048709749,599616081336252982,1891
1712048709756,599616081343919340,-827
1712048709764,599616081351585698,2702
1712048709772,599616081359252056,6192
1712048709779,599616081366918414,4483
1712048709787,599616081374584772,3996
1712048709795,599616081382251130,5301
1712048709801,599616081389917488,4853
1712048709809,599616081397583846,4396
1712048709817,599616081405250204,4992
1712048709825,599616081412916562,4914
1712048709833,599616081420582920,4244
1712048709841,599616081428249278,3914
1712048709848,599616081435915636,4078
1712048709856,599616081443581994,4539
1712048709864,599616081451248352,4769
1712048709871,599616081458914710,4612
1712048709879,599616081466581068,4657
1712048709887,599616081474247426,4961
1712048709894,599616081481913784,4830
1712048709902,599616081489580142,4239
1712048709910,599616081497246500,3930
1712048709917,599616081504912858,4200
1712048709925,599616081512579216,4675
1712048709933,599616081520245574,4926
1712048709940,599616081527911932,4399
1712048709948,599616081535578290,3307
1712048709956,599616081543244648,3398
1712048709963,599616081550911006,4221
1712048709971,599616081558577364,4007
