value,timestamp
-0.0,1710999784000000
-0.0,1710999784015625
-0.0,1710999784031250
-0.0,1710999784046875
-0.0,1710999784062500
-0.0,1710999784078125
-0.0,1710999784093750
-0.0,1710999784109375
-0.0,1710999784125000
-0.0,1710999784140625
0.0,1710999784156250
0.01,1710999784171875
0.01,1710999784187500
-0.0,1710999784203125
-0.03,1710999784218750
-0.05,1710999784234375
-0.05,1710999784250000
0.0,1710999784265625
0.13,1710999784281250
0.36,1710999784296875
0.66,1710999784312500
1.01,1710999784328125
1.37,1710999784343750
1.72,1710999784359375
2.06,1710999784375000
2.4,1710999784390625
2.79,1710999784406250
3.24,1710999784421875
3.8,1710999784437500
4.42,1710999784453125
5.06,1710999784468750
5.66,1710999784484375
6.2,1710999784500000
6.68,1710999784515625
7.15,1710999784531250
7.68,1710999784546875
8.31,1710999784562500
9.14,1710999784578125
10.09,1710999784593750
11.04,1710999784609375
11.88,1710999784625000
12.56,1710999784640625
13.14,1710999784656250
13.76,1710999784671875
14.65,1710999784687500
15.96,1710999784703125
17.91,1710999784718750
20.32,1710999784734375
22.9,1710999784750000
25.38,1710999784765625
27.58,1710999784781250
29.57,1710999784796875
31.68,1710999784812500
34.32,1710999784828125
37.81,1710999784843750
42.54,1710999784859375
48.15,1710999784875000
54.1,1710999784890625
59.83,1710999784906250
64.97,1710999784921875
69.58,1710999784937500
74.14,1710999784953125
79.34,1710999784968750
85.71,1710999784984375
93.76,1710999785000000
103.0,1710999785015625
112.62,1710999785031250
121.73,1710999785046875
129.77,1710999785062500
136.75,1710999785078125
143.3,1710999785093750
150.75,1710999785109375
157.77,1710999785125000
166.64,1710999785140625
177.95,1710999785156250
191.79,1710999785171875
206.97,1710999785187500
220.57,1710999785203125
228.25,1710999785218750
225.36,1710999785234375
208.53,1710999785250000
176.87,1710999785265625
132.76,1710999785281250
80.05,1710999785296875
23.07,1710999785312500
-34.94,1710999785328125
-92.44,1710999785343750
-149.16,1710999785359375
-205.23,1710999785375000
-260.37,1710999785390625
-313.74,1710999785406250
-363.87,1710999785421875
-409.83,1710999785437500
-450.91,1710999785453125
-486.5,1710999785468750
-515.74,1710999785484375
-537.23,1710999785500000
-549.22,1710999785515625
-549.96,1710999785531250
-538.37,1710999785546875
-514.21,1710999785562500
-478.67,1710999785578125
-433.88,1710999785593750
-382.45,1710999785609375
-327.02,1710999785625000
-269.84,1710999785640625
-212.63,1710999785656250
-156.66,1710999785671875
-102.95,1710999785687500
-52.37,1710999785703125
-5.9,1710999785718750
35.58,1710999785734375
71.43,1710999785750000
101.35,1710999785765625
125.5,1710999785781250
144.38,1710999785796875
158.69,1710999785812500
169.15,1710999785828125
176.37,1710999785843750
180.75,1710999785859375
182.57,1710999785875000
182.07,1710999785890625
179.51,1710999785906250
175.23,1710999785921875
169.65,1710999785937500
163.18,1710999785953125
156.15,1710999785968750
148.81,1710999785984375
141.3,1710999786000000
133.69,1710999786015625
126.02,1710999786031250
118.33,1710999786046875
110.69,1710999786062500
103.16,1710999786078125
95.8,1710999786093750
88.68,1710999786109375
81.83,1710999786125000
75.25,1710999786140625
68.95,1710999786156250
62.95,1710999786171875
57.25,1710999786187500
51.86,1710999786203125
46.78,1710999786218750
42.03,1710999786234375
37.59,1710999786250000
33.45,1710999786265625
29.61,1710999786281250
26.07,1710999786296875
22.81,1710999786312500
19.83,1710999786328125
17.11,1710999786343750
14.67,1710999786359375
12.48,1710999786375000
10.54,1710999786390625
8.83,1710999786406250
7.35,1710999786421875
6.07,1710999786437500
4.97,1710999786453125
4.05,1710999786468750
3.27,1710999786484375
2.62,1710999786500000
2.09,1710999786515625
1.65,1710999786531250
1.3,1710999786546875
1.01,1710999786562500
0.79,1710999786578125
0.61,1710999786593750
0.48,1710999786609375
0.37,1710999786625000
0.29,1710999786640625
0.23,1710999786656250
0.19,1710999786671875
0.16,1710999786687500
0.15,1710999786703125
0.15,1710999786718750
0.18,1710999786734375
0.22,1710999786750000
0.27,1710999786765625
0.3,1710999786781250
0.28,1710999786796875
0.22,1710999786812500
0.12,1710999786828125
0.02,1710999786843750
-0.05,1710999786859375
-0.04,1710999786875000
0.02,1710999786890625
0.11,1710999786906250
0.2,1710999786921875
0.23,1710999786937500
0.19,1710999786953125
0.1,1710999786968750
0.02,1710999786984375
0.0,1710999787000000
0.08,1710999787015625
0.25,1710999787031250
0.45,1710999787046875
0.6,1710999787062500
0.62,1710999787078125
0.49,1710999787093750
0.28,1710999787109375
0.08,1710999787125000
0.04,1710999787140625
0.24,1710999787156250
0.65,1710999787171875
1.14,1710999787187500
1.48,1710999787203125
1.5,1710999787218750
1.14,1710999787234375
0.52,1710999787250000
-0.07,1710999787265625
-0.28,1710999787281250
0.07,1710999787296875
0.95,1710999787312500
2.02,1710999787328125
2.81,1710999787343750
2.9,1710999787359375
2.16,1710999787375000
0.87,1710999787390625
-0.39,1710999787406250
-0.97,1710999787421875
-0.49,1710999787437500
0.97,1710999787453125
2.81,1710999787468750
4.17,1710999787484375
4.37,1710999787500000
3.18,1710999787515625
1.09,1710999787531250
-0.98,1710999787546875
-2.07,1710999787562500
-1.74,1710999787578125
-0.23,1710999787593750
1.56,1710999787609375
2.51,1710999787625000
1.73,1710999787640625
-1.22,1710999787656250
-6.45,1710999787671875
-13.8,1710999787687500
-22.71,1710999787703125
-31.83,1710999787718750
-38.91,1710999787734375
-41.19,1710999787750000
-36.57,1710999787765625
-24.98,1710999787781250
-8.86,1710999787796875
7.52,1710999787812500
19.88,1710999787828125
25.66,1710999787843750
25.09,1710999787859375
20.55,1710999787875000
15.07,1710999787890625
10.65,1710999787906250
7.49,1710999787921875
4.49,1710999787937500
0.53,1710999787953125
-4.48,1710999787968750
-9.38,1710999787984375
-12.59,1710999788000000
-13.11,1710999788015625
-11.28,1710999788031250
-8.46,1710999788046875
-6.46,1710999788062500
-6.46,1710999788078125
-8.35,1710999788093750
-10.78,1710999788109375
-11.9,1710999788125000
-10.32,1710999788140625
-5.87,1710999788156250
0.24,1710999788171875
6.14,1710999788187500
9.91,1710999788203125
10.7,1710999788218750
8.91,1710999788234375
5.99,1710999788250000
3.57,1710999788265625
2.67,1710999788281250
3.31,1710999788296875
4.69,1710999788312500
5.96,1710999788328125
6.29,1710999788343750
5.52,1710999788359375
4.08,1710999788375000
2.74,1710999788390625
2.26,1710999788406250
3.08,1710999788421875
5.35,1710999788437500
9.04,1710999788453125
14.15,1710999788468750
20.19,1710999788484375
26.59,1710999788500000
32.94,1710999788515625
39.24,1710999788531250
45.95,1710999788546875
53.62,1710999788562500
62.34,1710999788578125
69.38,1710999788593750
72.78,1710999788609375
70.23,1710999788625000
60.18,1710999788640625
42.61,1710999788656250
19.21,1710999788671875
-7.22,1710999788687500
-33.55,1710999788703125
-57.98,1710999788718750
-78.22,1710999788734375
-91.32,1710999788750000
-94.92,1710999788765625
-88.05,1710999788781250
-72.08,1710999788796875
-50.86,1710999788812500
-29.72,1710999788828125
-13.54,1710999788843750
-5.12,1710999788859375
-4.4,1710999788875000
-9.16,1710999788890625
-16.75,1710999788906250
-25.1,1710999788921875
-32.78,1710999788937500
-38.74,1710999788953125
-42.39,1710999788968750
-43.63,1710999788984375
-43.03,1710999789000000
-41.72,1710999789015625
-41.09,1710999789031250
-42.34,1710999789046875
-45.69,1710999789062500
-50.3,1710999789078125
-54.73,1710999789093750
-57.68,1710999789109375
-58.56,1710999789125000
-57.48,1710999789140625
-55.06,1710999789156250
-52.18,1710999789171875
-49.99,1710999789187500
-49.63,1710999789203125
-52.02,1710999789218750
-57.48,1710999789234375
-65.41,1710999789250000
-74.28,1710999789265625
-82.01,1710999789281250
-86.54,1710999789296875
-86.51,1710999789312500
-81.69,1710999789328125
-72.87,1710999789343750
-61.51,1710999789359375
-49.26,1710999789375000
-37.46,1710999789390625
-26.89,1710999789406250
-17.66,1710999789421875
-9.47,1710999789437500
-1.86,1710999789453125
5.44,1710999789468750
12.46,1710999789484375
19.09,1710999789500000
25.26,1710999789515625
31.03,1710999789531250
36.5,1710999789546875
41.67,1710999789562500
46.18,1710999789578125
49.53,1710999789593750
51.21,1710999789609375
51.09,1710999789625000
49.43,1710999789640625
46.88,1710999789656250
44.1,1710999789671875
41.52,1710999789687500
39.26,1710999789703125
37.16,1710999789718750
34.95,1710999789734375
32.46,1710999789750000
29.7,1710999789765625
26.82,1710999789781250
24.07,1710999789796875
21.59,1710999789812500
19.37,1710999789828125
17.18,1710999789843750
14.6,1710999789859375
11.22,1710999789875000
6.79,1710999789890625
1.39,1710999789906250
-4.54,1710999789921875
-10.32,1710999789937500
-15.16,1710999789953125
-18.37,1710999789968750
-19.4,1710999789984375
-17.98,1710999790000000
-14.1,1710999790015625
-8.1,1710999790031250
-0.61,1710999790046875
7.64,1710999790062500
15.89,1710999790078125
23.63,1710999790093750
30.56,1710999790109375
36.63,1710999790125000
41.85,1710999790140625
46.24,1710999790156250
49.78,1710999790171875
52.52,1710999790187500
54.53,1710999790203125
55.99,1710999790218750
57.09,1710999790234375
57.96,1710999790250000
58.64,1710999790265625
59.08,1710999790281250
59.26,1710999790296875
59.16,1710999790312500
58.82,1710999790328125
58.29,1710999790343750
57.52,1710999790359375
56.37,1710999790375000
54.61,1710999790390625
51.99,1710999790406250
48.43,1710999790421875
44.07,1710999790437500
39.26,1710999790453125
34.53,1710999790468750
30.28,1710999790484375
26.66,1710999790500000
23.51,1710999790515625
20.48,1710999790531250
17.19,1710999790546875
13.51,1710999790562500
9.53,1710999790578125
5.52,1710999790593750
1.76,1710999790609375
-1.63,1710999790625000
-4.7,1710999790640625
-7.7,1710999790656250
-10.98,1710999790671875
-14.92,1710999790687500
-19.79,1710999790703125
-25.58,1710999790718750
-31.96,1710999790734375
-38.15,1710999790750000
-43.06,1710999790765625
-45.65,1710999790781250
-45.1,1710999790796875
-41.23,1710999790812500
-34.46,1710999790828125
-25.71,1710999790843750
-16.05,1710999790859375
-6.43,1710999790875000
2.52,1710999790890625
10.51,1710999790906250
17.37,1710999790921875
23.08,1710999790937500
27.55,1710999790953125
30.76,1710999790968750
32.79,1710999790984375
33.9,1710999791000000
34.47,1710999791015625
34.89,1710999791031250
35.4,1710999791046875
35.99,1710999791062500
36.46,1710999791078125
36.55,1710999791093750
36.11,1710999791109375
35.15,1710999791125000
33.82,1710999791140625
32.3,1710999791156250
30.68,1710999791171875
28.95,1710999791187500
26.94,1710999791203125
24.44,1710999791218750
21.21,1710999791234375
17.17,1710999791250000
12.35,1710999791265625
6.99,1710999791281250
1.45,1710999791296875
-3.91,1710999791312500
-8.85,1710999791328125
-13.33,1710999791343750
-17.5,1710999791359375
-21.55,1710999791375000
-25.59,1710999791390625
-29.55,1710999791406250
-33.18,1710999791421875
-36.14,1710999791437500
-38.11,1710999791453125
-38.97,1710999791468750
-38.82,1710999791484375
-38.05,1710999791500000
-37.26,1710999791515625
-37.01,1710999791531250
-37.65,1710999791546875
-38.98,1710999791562500
-40.27,1710999791578125
-40.41,1710999791593750
-38.28,1710999791609375
-33.13,1710999791625000
-24.82,1710999791640625
-13.94,1710999791656250
-1.5,1710999791671875
11.24,1710999791687500
23.16,1710999791703125
33.39,1710999791718750
41.46,1710999791734375
47.22,1710999791750000
50.8,1710999791765625
52.52,1710999791781250
52.76,1710999791796875
51.99,1710999791812500
50.65,1710999791828125
49.27,1710999791843750
48.31,1710999791859375
48.11,1710999791875000
48.74,1710999791890625
49.93,1710999791906250
51.12,1710999791921875
51.62,1710999791937500
50.92,1710999791953125
48.85,1710999791968750
45.63,1710999791984375
41.72,1710999792000000
37.6,1710999792015625
33.54,1710999792031250
29.56,1710999792046875
25.48,1710999792062500
21.06,1710999792078125
16.16,1710999792093750
10.86,1710999792109375
5.37,1710999792125000
-0.01,1710999792140625
-5.04,1710999792156250
-9.6,1710999792171875
-13.7,1710999792187500
-17.43,1710999792203125
-20.97,1710999792218750
-24.48,1710999792234375
-28.17,1710999792250000
-32.16,1710999792265625
-36.5,1710999792281250
-41.04,1710999792296875
-45.31,1710999792312500
-48.63,1710999792328125
-50.16,1710999792343750
-49.29,1710999792359375
-45.73,1710999792375000
-39.74,1710999792390625
-31.95,1710999792406250
-23.14,1710999792421875
-14.06,1710999792437500
-5.23,1710999792453125
2.92,1710999792468750
9.97,1710999792484375
15.44,1710999792500000
18.9,1710999792515625
20.12,1710999792531250
19.31,1710999792546875
17.17,1710999792562500
14.67,1710999792578125
12.76,1710999792593750
11.97,1710999792609375
12.31,1710999792625000
13.3,1710999792640625
14.32,1710999792656250
14.89,1710999792671875
14.88,1710999792687500
14.43,1710999792703125
13.82,1710999792718750
13.08,1710999792734375
12.01,1710999792750000
10.29,1710999792765625
7.63,1710999792781250
3.98,1710999792796875
-0.38,1710999792812500
-5.03,1710999792828125
-9.52,1710999792843750
-13.55,1710999792859375
-17.06,1710999792875000
-20.14,1710999792890625
-23.08,1710999792906250
-26.25,1710999792921875
-30.04,1710999792937500
-34.73,1710999792953125
-40.28,1710999792968750
-46.23,1710999792984375
-51.72,1710999793000000
-55.63,1710999793015625
-56.93,1710999793031250
-54.94,1710999793046875
-49.55,1710999793062500
-41.18,1710999793078125
-30.67,1710999793093750
-19.13,1710999793109375
-7.62,1710999793125000
2.94,1710999793140625
11.98,1710999793156250
19.23,1710999793171875
24.73,1710999793187500
28.63,1710999793203125
31.11,1710999793218750
32.33,1710999793234375
32.43,1710999793250000
31.68,1710999793265625
30.44,1710999793281250
29.09,1710999793296875
27.98,1710999793312500
27.24,1710999793328125
26.8,1710999793343750
26.5,1710999793359375
26.15,1710999793375000
25.68,1710999793390625
25.1,1710999793406250
24.47,1710999793421875
23.8,1710999793437500
22.98,1710999793453125
21.8,1710999793468750
19.98,1710999793484375
17.25,1710999793500000
13.5,1710999793515625
8.81,1710999793531250
3.48,1710999793546875
-2.02,1710999793562500
-7.22,1710999793578125
-11.81,1710999793593750
-15.74,1710999793609375
-19.25,1710999793625000
-22.72,1710999793640625
-26.56,1710999793656250
-31.11,1710999793671875
-36.47,1710999793687500
-42.46,1710999793703125
-48.55,1710999793718750
-53.91,1710999793734375
-57.42,1710999793750000
-58.0,1710999793765625
-54.96,1710999793781250
-48.22,1710999793796875
-38.51,1710999793812500
-27.08,1710999793828125
-15.34,1710999793843750
-4.49,1710999793859375
4.77,1710999793875000
12.19,1710999793890625
17.82,1710999793906250
21.78,1710999793921875
24.25,1710999793937500
25.38,1710999793953125
25.41,1710999793968750
24.67,1710999793984375
23.55,1710999794000000
22.4,1710999794015625
21.48,1710999794031250
20.9,1710999794046875
20.65,1710999794062500
20.62,1710999794078125
20.64,1710999794093750
20.55,1710999794109375
20.24,1710999794125000
19.7,1710999794140625
18.97,1710999794156250
18.02,1710999794171875
16.76,1710999794187500
14.95,1710999794203125
12.37,1710999794218750
8.9,1710999794234375
4.63,1710999794250000
-0.11,1710999794265625
-4.88,1710999794281250
-9.29,1710999794296875
-13.09,1710999794312500
-16.29,1710999794328125
-19.09,1710999794343750
-21.85,1710999794359375
-24.94,1710999794375000
-28.64,1710999794390625
-33.02,1710999794406250
-37.87,1710999794421875
-42.67,1710999794437500
-46.67,1710999794453125
-49.01,1710999794468750
-48.99,1710999794484375
-46.17,1710999794500000
-40.55,1710999794515625
-32.53,1710999794531250
-22.9,1710999794546875
-12.56,1710999794562500
-2.44,1710999794578125
6.73,1710999794593750
14.43,1710999794609375
20.41,1710999794625000
24.59,1710999794640625
27.02,1710999794656250
27.8,1710999794671875
27.15,1710999794687500
25.44,1710999794703125
23.21,1710999794718750
21.11,1710999794734375
19.72,1710999794750000
19.34,1710999794765625
19.87,1710999794781250
20.84,1710999794796875
21.63,1710999794812500
21.73,1710999794828125
21.03,1710999794843750
19.76,1710999794859375
18.37,1710999794875000
17.23,1710999794890625
16.42,1710999794906250
15.63,1710999794921875
14.39,1710999794937500
12.3,1710999794953125
9.21,1710999794968750
5.28,1710999794984375
0.94,1710999795000000
-3.38,1710999795015625
-7.31,1710999795031250
-10.74,1710999795046875
-13.73,1710999795062500
-16.47,1710999795078125
-19.2,1710999795093750
-22.19,1710999795109375
-25.72,1710999795125000
-29.99,1710999795140625
-35.1,1710999795156250
-40.79,1710999795171875
-46.44,1710999795187500
-51.02,1710999795203125
-53.37,1710999795218750
-52.54,1710999795234375
-48.11,1710999795250000
-40.35,1710999795265625
-30.14,1710999795281250
-18.73,1710999795296875
-7.3,1710999795312500
3.19,1710999795328125
12.12,1710999795343750
19.11,1710999795359375
23.97,1710999795375000
26.64,1710999795390625
27.29,1710999795406250
26.35,1710999795421875
24.49,1710999795437500
22.49,1710999795453125
21.0,1710999795468750
20.33,1710999795484375
20.46,1710999795500000
21.05,1710999795515625
21.65,1710999795531250
21.91,1710999795546875
21.61,1710999795562500
20.78,1710999795578125
19.52,1710999795593750
17.94,1710999795609375
16.11,1710999795625000
13.99,1710999795640625
11.46,1710999795656250
8.39,1710999795671875
4.73,1710999795687500
0.58,1710999795703125
-3.82,1710999795718750
-8.15,1710999795734375
-12.12,1710999795750000
-15.55,1710999795765625
-18.46,1710999795781250
-21.06,1710999795796875
-23.63,1710999795812500
-26.55,1710999795828125
-30.12,1710999795843750
-34.52,1710999795859375
-39.59,1710999795875000
-44.82,1710999795890625
-49.33,1710999795906250
-52.05,1710999795921875
-52.04,1710999795937500
-48.72,1710999795953125
-42.17,1710999795968750
-33.02,1710999795984375
-22.27,1710999796000000
-11.04,1710999796015625
-0.31,1710999796031250
9.23,1710999796046875
17.14,1710999796062500
23.27,1710999796078125
27.65,1710999796093750
30.46,1710999796109375
32.04,1710999796125000
32.75,1710999796140625
32.95,1710999796156250
32.93,1710999796171875
32.92,1710999796187500
33.08,1710999796203125
33.47,1710999796218750
34.04,1710999796234375
34.61,1710999796250000
34.9,1710999796265625
34.6,1710999796281250
33.5,1710999796296875
31.55,1710999796312500
28.9,1710999796328125
25.78,1710999796343750
22.42,1710999796359375
18.95,1710999796375000
15.37,1710999796390625
11.64,1710999796406250
7.67,1710999796421875
3.39,1710999796437500
-1.24,1710999796453125
-6.22,1710999796468750
-11.5,1710999796484375
-16.93,1710999796500000
-22.31,1710999796515625
-27.45,1710999796531250
-32.35,1710999796546875
-37.16,1710999796562500
-42.21,1710999796578125
-47.78,1710999796593750
-53.91,1710999796609375
-60.22,1710999796625000
-65.88,1710999796640625
-69.85,1710999796656250
-71.11,1710999796671875
-69.05,1710999796687500
-63.57,1710999796703125
-55.19,1710999796718750
-44.82,1710999796734375
-33.54,1710999796750000
-22.35,1710999796765625
-12.0,1710999796781250
-2.97,1710999796796875
4.48,1710999796812500
10.22,1710999796828125
14.23,1710999796843750
16.54,1710999796859375
17.31,1710999796875000
16.87,1710999796890625
15.67,1710999796906250
14.25,1710999796921875
13.02,1710999796937500
12.27,1710999796953125
12.02,1710999796968750
12.09,1710999796984375
12.2,1710999797000000
12.07,1710999797015625
11.52,1710999797031250
10.42,1710999797046875
8.71,1710999797062500
6.39,1710999797078125
3.49,1710999797093750
0.16,1710999797109375
-3.29,1710999797125000
-6.42,1710999797140625
-8.68,1710999797156250
-9.59,1710999797171875
-8.84,1710999797187500
-6.37,1710999797203125
-2.47,1710999797218750
2.36,1710999797234375
7.45,1710999797250000
12.25,1710999797265625
16.43,1710999797281250
19.89,1710999797296875
22.61,1710999797312500
24.48,1710999797328125
25.05,1710999797343750
23.62,1710999797359375
19.51,1710999797375000
12.46,1710999797390625
3.03,1710999797406250
-7.37,1710999797421875
-16.94,1710999797437500
-24.06,1710999797453125
-27.9,1710999797468750
-28.71,1710999797484375
-27.64,1710999797500000
-26.1,1710999797515625
-25.29,1710999797531250
-25.7,1710999797546875
-27.08,1710999797562500
-28.69,1710999797578125
-29.56,1710999797593750
-28.88,1710999797609375
-26.13,1710999797625000
-21.24,1710999797640625
-14.68,1710999797656250
-7.54,1710999797671875
-1.36,1710999797687500
2.36,1710999797703125
2.86,1710999797718750
0.75,1710999797734375
-2.01,1710999797750000
-2.84,1710999797765625
0.4,1710999797781250
8.29,1710999797796875
19.51,1710999797812500
31.39,1710999797828125
41.01,1710999797843750
46.27,1710999797859375
46.51,1710999797875000
42.38,1710999797890625
35.23,1710999797906250
26.62,1710999797921875
17.84,1710999797937500
9.87,1710999797953125
3.37,1710999797968750
-1.23,1710999797984375
-3.92,1710999798000000
-5.03,1710999798015625
-5.31,1710999798031250
-5.82,1710999798046875
-7.57,1710999798062500
-11.26,1710999798078125
-16.91,1710999798093750
-23.85,1710999798109375
-30.91,1710999798125000
-36.9,1710999798140625
-41.21,1710999798156250
-44.04,1710999798171875
-46.22,1710999798187500
-48.62,1710999798203125
-51.44,1710999798218750
-53.79,1710999798234375
-53.93,1710999798250000
-49.99,1710999798265625
-40.78,1710999798281250
-26.42,1710999798296875
-8.31,1710999798312500
11.3,1710999798328125
30.07,1710999798343750
46.23,1710999798359375
58.9,1710999798375000
68.07,1710999798390625
74.18,1710999798406250
77.86,1710999798421875
79.68,1710999798437500
80.07,1710999798453125
79.41,1710999798468750
78.07,1710999798484375
76.35,1710999798500000
74.39,1710999798515625
72.03,1710999798531250
68.85,1710999798546875
64.27,1710999798562500
57.8,1710999798578125
49.29,1710999798593750
38.98,1710999798609375
27.5,1710999798625000
15.72,1710999798640625
4.51,1710999798656250
-5.49,1710999798671875
-13.94,1710999798687500
-20.79,1710999798703125
-26.3,1710999798718750
-30.79,1710999798734375
-34.62,1710999798750000
-37.96,1710999798765625
-40.85,1710999798781250
-43.1,1710999798796875
-44.49,1710999798812500
-44.89,1710999798828125
-44.37,1710999798843750
-43.3,1710999798859375
-42.24,1710999798875000
-41.82,1710999798890625
-42.43,1710999798906250
-44.04,1710999798921875
-46.12,1710999798937500
-47.72,1710999798953125
-47.74,1710999798968750
-45.33,1710999798984375
-40.21,1710999799000000
-32.76,1710999799015625
-23.99,1710999799031250
-15.14,1710999799046875
-7.36,1710999799062500
-1.4,1710999799078125
2.5,1710999799093750
4.49,1710999799109375
4.92,1710999799125000
4.12,1710999799140625
2.37,1710999799156250
-0.03,1710999799171875
-2.66,1710999799187500
-4.95,1710999799203125
-6.3,1710999799218750
-6.21,1710999799234375
-4.53,1710999799250000
-1.54,1710999799265625
2.27,1710999799281250
6.16,1710999799296875
9.4,1710999799312500
11.5,1710999799328125
12.38,1710999799343750
12.27,1710999799359375
11.35,1710999799375000
9.41,1710999799390625
5.65,1710999799406250
-1.02,1710999799421875
-11.66,1710999799437500
-26.75,1710999799453125
-45.74,1710999799468750
-67.14,1710999799484375
-88.92,1710999799500000
-109.33,1710999799515625
-127.49,1710999799531250
-143.55,1710999799546875
-158.06,1710999799562500
-171.91,1710999799578125
-185.89,1710999799593750
-200.29,1710999799609375
-214.44,1710999799625000
-226.44,1710999799640625
-233.38,1710999799656250
-231.92,1710999799671875
-219.28,1710999799687500
-193.3,1710999799703125
-154.49,1710999799718750
-106.64,1710999799734375
-55.91,1710999799750000
-8.92,1710999799765625
29.23,1710999799781250
55.99,1710999799796875
71.4,1710999799812500
77.41,1710999799828125
79.26,1710999799843750
81.96,1710999799859375
88.71,1710999799875000
100.52,1710999799890625
116.94,1710999799906250
136.83,1710999799921875
158.55,1710999799937500
180.04,1710999799953125
199.22,1710999799968750
217.97,1710999799984375
238.03,1710999800000000
259.45,1710999800015625
280.2,1710999800031250
297.67,1710999800046875
310.41,1710999800062500
318.74,1710999800078125
324.58,1710999800093750
330.64,1710999800109375
343.39,1710999800125000
366.06,1710999800140625
396.26,1710999800156250
427.03,1710999800171875
451.05,1710999800187500
464.88,1710999800203125
469.84,1710999800218750
470.27,1710999800234375
442.98,1710999800250000
376.26,1710999800265625
275.1,1710999800281250
159.85,1710999800296875
52.09,1710999800312500
-36.09,1710999800328125
-101.43,1710999800343750
-145.6,1710999800359375
-172.36,1710999800375000
-186.07,1710999800390625
-186.07,1710999800406250
-171.93,1710999800421875
-145.82,1710999800437500
-112.93,1710999800453125
-80.56,1710999800468750
-55.62,1710999800484375
-43.26,1710999800500000
-46.37,1710999800515625
-65.23,1710999800531250
-94.5,1710999800546875
-128.09,1710999800562500
-162.08,1710999800578125
-192.42,1710999800593750
-215.86,1710999800609375
-230.01,1710999800625000
-234.55,1710999800640625
-232.06,1710999800656250
-227.29,1710999800671875
-222.68,1710999800687500
-218.68,1710999800703125
-213.54,1710999800718750
-204.03,1710999800734375
-187.2,1710999800750000
-161.6,1710999800765625
-128.23,1710999800781250
-90.36,1710999800796875
-52.33,1710999800812500
-17.38,1710999800828125
11.58,1710999800843750
31.8,1710999800859375
41.4,1710999800875000
40.45,1710999800890625
32.27,1710999800906250
23.0,1710999800921875
19.48,1710999800937500
26.47,1710999800953125
44.99,1710999800968750
71.74,1710999800984375
100.69,1710999801000000
125.73,1710999801015625
142.63,1710999801031250
149.5,1710999801046875
146.27,1710999801062500
133.47,1710999801078125
111.67,1710999801093750
81.75,1710999801109375
45.39,1710999801125000
5.07,1710999801140625
-36.29,1710999801156250
-76.25,1710999801171875
-113.48,1710999801187500
-147.62,1710999801203125
-178.81,1710999801218750
-206.96,1710999801234375
-231.28,1710999801250000
-250.35,1710999801265625
-262.67,1710999801281250
-267.13,1710999801296875
-263.62,1710999801312500
-252.97,1710999801328125
-236.75,1710999801343750
-216.8,1710999801359375
-194.87,1710999801375000
-172.3,1710999801390625
-149.95,1710999801406250
-128.27,1710999801421875
-107.51,1710999801437500
-88.01,1710999801453125
-70.41,1710999801468750
-55.6,1710999801484375
-44.48,1710999801500000
-37.57,1710999801515625
-34.68,1710999801531250
-34.9,1710999801546875
-36.87,1710999801562500
-39.2,1710999801578125
-40.88,1710999801593750
-41.56,1710999801609375
-41.47,1710999801625000
-41.22,1710999801640625
-41.52,1710999801656250
-42.91,1710999801671875
-45.57,1710999801687500
-49.15,1710999801703125
-52.78,1710999801718750
-55.15,1710999801734375
-54.81,1710999801750000
-50.56,1710999801765625
-41.77,1710999801781250
-28.57,1710999801796875
-11.95,1710999801812500
6.56,1710999801828125
25.24,1710999801843750
42.52,1710999801859375
57.27,1710999801875000
68.82,1710999801890625
76.97,1710999801906250
81.82,1710999801921875
83.71,1710999801937500
83.26,1710999801953125
81.24,1710999801968750
78.51,1710999801984375
75.75,1710999802000000
73.36,1710999802015625
71.33,1710999802031250
69.37,1710999802046875
67.19,1710999802062500
64.63,1710999802078125
61.81,1710999802093750
58.92,1710999802109375
56.14,1710999802125000
53.36,1710999802140625
50.33,1710999802156250
46.76,1710999802171875
42.52,1710999802187500
37.68,1710999802203125
32.43,1710999802218750
26.9,1710999802234375
21.07,1710999802250000
14.8,1710999802265625
7.95,1710999802281250
0.41,1710999802296875
-7.86,1710999802312500
-16.8,1710999802328125
-26.29,1710999802343750
-35.94,1710999802359375
-44.96,1710999802375000
-52.12,1710999802390625
-55.99,1710999802406250
-55.39,1710999802421875
-49.87,1710999802437500
-39.93,1710999802453125
-26.93,1710999802468750
-12.59,1710999802484375
1.58,1710999802500000
14.64,1710999802515625
26.24,1710999802531250
36.4,1710999802546875
45.2,1710999802562500
52.54,1710999802578125
58.17,1710999802593750
61.86,1710999802609375
63.68,1710999802625000
64.04,1710999802640625
63.59,1710999802656250
62.96,1710999802671875
62.49,1710999802687500
62.11,1710999802703125
61.47,1710999802718750
60.17,1710999802734375
58.05,1710999802750000
55.28,1710999802765625
52.24,1710999802781250
49.35,1710999802796875
46.78,1710999802812500
44.39,1710999802828125
41.74,1710999802843750
38.31,1710999802859375
33.72,1710999802875000
27.88,1710999802890625
21.09,1710999802906250
13.87,1710999802921875
6.85,1710999802937500
0.48,1710999802953125
-5.09,1710999802968750
-10.07,1710999802984375
-14.9,1710999803000000
-20.08,1710999803015625
-26.06,1710999803031250
-33.04,1710999803046875
-40.97,1710999803062500
-49.47,1710999803078125
-57.77,1710999803093750
-64.7,1710999803109375
-68.86,1710999803125000
-68.94,1710999803140625
-64.15,1710999803156250
-54.59,1710999803171875
-41.23,1710999803187500
-25.7,1710999803203125
-9.74,1710999803218750
5.21,1710999803234375
18.29,1710999803250000
29.19,1710999803265625
37.94,1710999803281250
44.68,1710999803296875
49.61,1710999803312500
52.98,1710999803328125
55.09,1710999803343750
56.33,1710999803359375
57.06,1710999803375000
57.5,1710999803390625
57.73,1710999803406250
57.68,1710999803421875
57.32,1710999803437500
56.69,1710999803453125
55.93,1710999803468750
55.14,1710999803484375
54.37,1710999803500000
53.49,1710999803515625
52.25,1710999803531250
50.35,1710999803546875
47.61,1710999803562500
44.01,1710999803578125
39.74,1710999803593750
35.05,1710999803609375
30.21,1710999803625000
25.36,1710999803640625
20.52,1710999803656250
15.63,1710999803671875
10.58,1710999803687500
5.32,1710999803703125
-0.15,1710999803718750
-5.76,1710999803734375
-11.34,1710999803750000
-16.75,1710999803765625
-21.89,1710999803781250
-26.78,1710999803796875
-31.67,1710999803812500
-36.97,1710999803828125
-43.12,1710999803843750
-50.39,1710999803859375
-58.59,1710999803875000
-66.91,1710999803890625
-74.06,1710999803906250
-78.49,1710999803921875
-78.84,1710999803937500
-74.36,1710999803953125
-65.13,1710999803968750
-52.04,1710999803984375
-36.56,1710999804000000
-20.31,1710999804015625
-4.76,1710999804031250
9.09,1710999804046875
20.76,1710999804062500
30.2,1710999804078125
37.61,1710999804093750
43.25,1710999804109375
47.35,1710999804125000
50.08,1710999804140625
51.66,1710999804156250
52.39,1710999804171875
52.6,1710999804187500
52.58,1710999804203125
52.52,1710999804218750
52.42,1710999804234375
52.21,1710999804250000
51.78,1710999804265625
51.08,1710999804281250
50.16,1710999804296875
49.12,1710999804312500
47.95,1710999804328125
46.53,1710999804343750
44.61,1710999804359375
41.9,1710999804375000
38.2,1710999804390625
33.56,1710999804406250
28.29,1710999804421875
22.95,1710999804437500
18.17,1710999804453125
14.31,1710999804468750
11.29,1710999804484375
8.59,1710999804500000
5.47,1710999804515625
1.34,1710999804531250
-3.96,1710999804546875
-10.06,1710999804562500
-16.34,1710999804578125
-22.26,1710999804593750
-27.56,1710999804609375
-32.35,1710999804625000
-36.98,1710999804640625
-41.8,1710999804656250
-47.06,1710999804671875
-52.89,1710999804687500
-59.27,1710999804703125
-65.94,1710999804718750
-72.27,1710999804734375
-77.21,1710999804750000
-79.43,1710999804765625
-77.75,1710999804781250
-71.53,1710999804796875
-61.02,1710999804812500
-47.27,1710999804828125
-31.89,1710999804843750
-16.5,1710999804859375
-2.41,1710999804875000
9.62,1710999804890625
19.29,1710999804906250
26.69,1710999804921875
31.96,1710999804937500
35.32,1710999804953125
36.99,1710999804968750
37.28,1710999804984375
36.68,1710999805000000
35.74,1710999805015625
34.98,1710999805031250
34.7,1710999805046875
34.87,1710999805062500
35.21,1710999805078125
35.31,1710999805093750
34.9,1710999805109375
33.94,1710999805125000
32.55,1710999805140625
30.9,1710999805156250
29.11,1710999805171875
27.17,1710999805187500
25.01,1710999805203125
22.61,1710999805218750
19.93,1710999805234375
16.93,1710999805250000
13.48,1710999805265625
9.4,1710999805281250
4.56,1710999805296875
-0.96,1710999805312500
-6.85,1710999805328125
-12.64,1710999805343750
-17.88,1710999805359375
-22.34,1710999805375000
-26.12,1710999805390625
-29.68,1710999805406250
-33.62,1710999805421875
-38.52,1710999805437500
-44.62,1710999805453125
-51.64,1710999805468750
-58.67,1710999805484375
-64.4,1710999805500000
-67.39,1710999805515625
-66.49,1710999805531250
-61.22,1710999805546875
-51.84,1710999805562500
-39.32,1710999805578125
-25.01,1710999805593750
-10.32,1710999805609375
3.51,1710999805625000
15.62,1710999805640625
25.56,1710999805656250
33.14,1710999805671875
38.46,1710999805687500
41.72,1710999805703125
43.28,1710999805718750
43.57,1710999805734375
43.12,1710999805750000
42.39,1710999805765625
41.77,1710999805781250
41.46,1710999805796875
41.47,1710999805812500
41.67,1710999805828125
41.91,1710999805843750
42.05,1710999805859375
42.02,1710999805875000
41.78,1710999805890625
41.25,1710999805906250
40.28,1710999805921875
38.68,1710999805937500
36.28,1710999805953125
33.0,1710999805968750
28.92,1710999805984375
24.27,1710999806000000
19.4,1710999806015625
14.66,1710999806031250
10.31,1710999806046875
6.35,1710999806062500
2.55,1710999806078125
-1.45,1710999806093750
-5.96,1710999806109375
-11.12,1710999806125000
-16.76,1710999806140625
-22.56,1710999806156250
-28.1,1710999806171875
-33.16,1710999806187500
-37.77,1710999806203125
-42.23,1710999806218750
-47.03,1710999806234375
-52.65,1710999806250000
-59.31,1710999806265625
-66.77,1710999806281250
-74.19,1710999806296875
-80.22,1710999806312500
-83.31,1710999806328125
-82.14,1710999806343750
-76.11,1710999806359375
-65.56,1710999806375000
-51.68,1710999806390625
-36.17,1710999806406250
-20.71,1710999806421875
-6.56,1710999806437500
5.59,1710999806453125
15.61,1710999806468750
23.61,1710999806484375
29.78,1710999806500000
34.25,1710999806515625
37.13,1710999806531250
38.58,1710999806546875
38.97,1710999806562500
38.77,1710999806578125
38.46,1710999806593750
38.38,1710999806609375
38.58,1710999806625000
38.91,1710999806640625
39.11,1710999806656250
38.99,1710999806671875
38.53,1710999806687500
37.87,1710999806703125
37.16,1710999806718750
36.42,1710999806734375
35.53,1710999806750000
34.18,1710999806765625
32.09,1710999806781250
29.09,1710999806796875
25.25,1710999806812500
20.81,1710999806828125
16.18,1710999806843750
11.78,1710999806859375
7.92,1710999806875000
4.69,1710999806890625
1.88,1710999806906250
-0.98,1710999806921875
-4.4,1710999806937500
-8.73,1710999806953125
-13.95,1710999806968750
-19.64,1710999806984375
-25.2,1710999807000000
-30.13,1710999807015625
-34.24,1710999807031250
-37.77,1710999807046875
-41.25,1710999807062500
-45.26,1710999807078125
-50.27,1710999807093750
-56.42,1710999807109375
-63.45,1710999807125000
-70.69,1710999807140625
-77.09,1710999807156250
-81.31,1710999807171875
-82.11,1710999807187500
-78.56,1710999807203125
-70.44,1710999807218750
-58.32,1710999807234375
-43.48,1710999807250000
-27.54,1710999807265625
-12.04,1710999807281250
1.92,1710999807296875
13.77,1710999807312500
23.35,1710999807328125
30.78,1710999807343750
36.16,1710999807359375
39.57,1710999807375000
41.16,1710999807390625
41.26,1710999807406250
40.46,1710999807421875
39.46,1710999807437500
38.92,1710999807453125
39.13,1710999807468750
39.98,1710999807484375
40.99,1710999807500000
41.64,1710999807515625
41.62,1710999807531250
40.91,1710999807546875
39.83,1710999807562500
38.7,1710999807578125
37.68,1710999807593750
36.59,1710999807609375
35.05,1710999807625000
32.63,1710999807640625
29.1,1710999807656250
24.66,1710999807671875
19.78,1710999807687500
15.09,1710999807703125
11.11,1710999807718750
7.97,1710999807734375
5.37,1710999807750000
2.75,1710999807765625
-0.49,1710999807781250
-4.69,1710999807796875
-9.76,1710999807812500
-15.28,1710999807828125
-20.68,1710999807843750
-25.57,1710999807859375
-29.85,1710999807875000
-33.74,1710999807890625
-37.66,1710999807906250
-42.01,1710999807921875
-47.07,1710999807937500
-52.89,1710999807953125
-59.38,1710999807968750
-66.14,1710999807984375
-72.52,1710999808000000
-77.46,1710999808015625
-79.69,1710999808031250
-78.01,1710999808046875
-71.73,1710999808062500
-61.01,1710999808078125
-46.91,1710999808093750
-31.06,1710999808109375
-15.26,1710999808125000
-0.92,1710999808140625
11.13,1710999808156250
20.61,1710999808171875
27.59,1710999808187500
32.24,1710999808203125
34.79,1710999808218750
35.56,1710999808234375
35.0,1710999808250000
33.75,1710999808265625
32.45,1710999808281250
31.56,1710999808296875
31.3,1710999808312500
31.6,1710999808328125
32.21,1710999808343750
32.84,1710999808359375
33.25,1710999808375000
33.32,1710999808390625
33.0,1710999808406250
32.28,1710999808421875
31.12,1710999808437500
29.46,1710999808453125
27.24,1710999808468750
24.38,1710999808484375
20.9,1710999808500000
16.93,1710999808515625
12.69,1710999808531250
8.41,1710999808546875
4.23,1710999808562500
0.18,1710999808578125
-3.85,1710999808593750
-8.0,1710999808609375
-12.31,1710999808625000
-16.68,1710999808640625
-20.96,1710999808656250
-25.03,1710999808671875
-28.96,1710999808687500
-32.98,1710999808703125
-37.44,1710999808718750
-42.68,1710999808734375
-48.76,1710999808750000
-55.45,1710999808765625
-62.06,1710999808781250
-67.58,1710999808796875
-70.81,1710999808812500
-70.65,1710999808828125
-66.38,1710999808843750
-57.91,1710999808859375
-45.88,1710999808875000
-31.54,1710999808890625
-16.4,1710999808906250
-1.95,1710999808921875
10.75,1710999808937500
21.1,1710999808953125
28.97,1710999808968750
34.51,1710999808984375
38.0,1710999809000000
39.76,1710999809015625
40.13,1710999809031250
39.54,1710999809046875
38.41,1710999809062500
37.21,1710999809078125
36.26,1710999809093750
35.72,1710999809109375
35.57,1710999809125000
35.67,1710999809140625
35.89,1710999809156250
36.04,1710999809171875
35.99,1710999809187500
35.55,1710999809203125
34.59,1710999809218750
32.96,1710999809234375
30.62,1710999809250000
27.63,1710999809265625
24.13,1710999809281250
20.32,1710999809296875
16.36,1710999809312500
12.39,1710999809328125
8.4,1710999809343750
4.34,1710999809359375
0.1,1710999809375000
-4.41,1710999809390625
-9.19,1710999809406250
-14.12,1710999809421875
-19.08,1710999809437500
-23.93,1710999809453125
-28.6,1710999809468750
-33.15,1710999809484375
-37.68,1710999809500000
-42.43,1710999809515625
-47.65,1710999809531250
-53.57,1710999809546875
-60.26,1710999809562500
-67.42,1710999809578125
-74.22,1710999809593750
-79.33,1710999809609375
-81.3,1710999809625000
-78.94,1710999809640625
-71.8,1710999809656250
-60.37,1710999809671875
-45.89,1710999809687500
-30.03,1710999809703125
-14.37,1710999809718750
-0.1,1710999809734375
12.07,1710999809750000
21.85,1710999809765625
29.22,1710999809781250
34.3,1710999809796875
37.36,1710999809812500
38.8,1710999809828125
39.11,1710999809843750
38.86,1710999809859375
38.54,1710999809875000
38.46,1710999809890625
38.73,1710999809906250
39.25,1710999809921875
39.85,1710999809937500
40.37,1710999809953125
40.72,1710999809968750
40.88,1710999809984375
40.8,1710999810000000
40.38,1710999810015625
39.41,1710999810031250
37.68,1710999810046875
35.08,1710999810062500
31.66,1710999810078125
27.63,1710999810093750
23.33,1710999810109375
19.03,1710999810125000
14.88,1710999810140625
10.9,1710999810156250
6.96,1710999810171875
2.89,1710999810187500
-1.4,1710999810203125
-5.92,1710999810218750
-10.6,1710999810234375
-15.32,1710999810250000
-19.97,1710999810265625
-24.48,1710999810281250
-28.89,1710999810296875
-33.32,1710999810312500
-38.0,1710999810328125
-43.24,1710999810343750
-49.27,1710999810359375
-56.08,1710999810375000
-63.15,1710999810390625
-69.42,1710999810406250
-73.39,1710999810421875
-73.63,1710999810437500
-69.2,1710999810453125
-60.04,1710999810468750
-47.06,1710999810484375
-31.82,1710999810500000
-16.05,1710999810515625
-1.2,1710999810531250
11.8,1710999810546875
22.53,1710999810562500
30.88,1710999810578125
36.86,1710999810593750
40.56,1710999810609375
42.27,1710999810625000
42.51,1710999810640625
42.0,1710999810656250
41.42,1710999810671875
41.21,1710999810687500
41.43,1710999810703125
41.82,1710999810718750
42.0,1710999810734375
41.75,1710999810750000
41.12,1710999810765625
40.36,1710999810781250
39.7,1710999810796875
39.19,1710999810812500
38.63,1710999810828125
37.64,1710999810843750
35.89,1710999810859375
33.19,1710999810875000
29.6,1710999810890625
25.34,1710999810906250
20.74,1710999810921875
16.07,1710999810937500
11.57,1710999810953125
7.37,1710999810968750
3.36,1710999810984375
-0.63,1710999811000000
-4.79,1710999811015625
-9.18,1710999811031250
-13.75,1710999811046875
-18.35,1710999811062500
-22.85,1710999811078125
-27.08,1710999811093750
-31.06,1710999811109375
-35.05,1710999811125000
-39.54,1710999811140625
-45.04,1710999811156250
-51.89,1710999811171875
-59.98,1710999811187500
-68.58,1710999811203125
-76.37,1710999811218750
-81.61,1710999811234375
-82.76,1710999811250000
-79.1,1710999811265625
-70.98,1710999811281250
-59.58,1710999811296875
-46.49,1710999811312500
-33.24,1710999811328125
-21.0,1710999811343750
-10.52,1710999811359375
-1.72,1710999811375000
5.48,1710999811390625
10.79,1710999811406250
13.58,1710999811421875
13.51,1710999811437500
10.85,1710999811453125
6.44,1710999811468750
1.44,1710999811484375
-3.07,1710999811500000
-5.54,1710999811515625
-5.42,1710999811531250
-3.58,1710999811546875
-1.77,1710999811562500
-1.37,1710999811578125
-2.55,1710999811593750
-4.66,1710999811609375
-7.09,1710999811625000
-10.06,1710999811640625
-13.48,1710999811656250
-18.0,1710999811671875
-24.62,1710999811687500
-33.45,1710999811703125
-42.25,1710999811718750
-46.8,1710999811734375
-43.07,1710999811750000
-28.97,1710999811765625
-4.73,1710999811781250
29.8,1710999811796875
74.06,1710999811812500
125.75,1710999811828125
180.28,1710999811843750
231.48,1710999811859375
272.6,1710999811875000
297.86,1710999811890625
304.53,1710999811906250
283.07,1710999811921875
234.78,1710999811937500
174.04,1710999811953125
120.08,1710999811968750
83.89,1710999811984375
64.24,1710999812000000
53.39,1710999812015625
44.1,1710999812031250
33.09,1710999812046875
21.38,1710999812062500
11.57,1710999812078125
5.3,1710999812093750
1.54,1710999812109375
-2.5,1710999812125000
-8.84,1710999812140625
-17.5,1710999812156250
-27.14,1710999812171875
-36.49,1710999812187500
-43.4,1710999812203125
-46.91,1710999812218750
-48.01,1710999812234375
-49.57,1710999812250000
-54.76,1710999812265625
-64.83,1710999812281250
-78.45,1710999812296875
-92.82,1710999812312500
-105.33,1710999812328125
-114.77,1710999812343750
-120.89,1710999812359375
-124.35,1710999812375000
-126.45,1710999812390625
-128.34,1710999812406250
-130.06,1710999812421875
-130.53,1710999812437500
-128.35,1710999812453125
-122.5,1710999812468750
-112.83,1710999812484375
-99.77,1710999812500000
-84.23,1710999812515625
-67.73,1710999812531250
-52.16,1710999812546875
-39.29,1710999812562500
-30.28,1710999812578125
-25.55,1710999812593750
-24.67,1710999812609375
-26.42,1710999812625000
-29.01,1710999812640625
-30.38,1710999812656250
-28.86,1710999812671875
-23.48,1710999812687500
-14.03,1710999812703125
-0.91,1710999812718750
14.98,1710999812734375
32.62,1710999812750000
51.14,1710999812765625
70.03,1710999812781250
89.31,1710999812796875
109.31,1710999812812500
130.15,1710999812828125
151.19,1710999812843750
170.68,1710999812859375
186.07,1710999812875000
194.64,1710999812890625
194.65,1710999812906250
186.03,1710999812921875
170.58,1710999812937500
151.22,1710999812953125
131.01,1710999812968750
112.09,1710999812984375
95.38,1710999813000000
80.84,1710999813015625
68.19,1710999813031250
57.39,1710999813046875
48.79,1710999813062500
42.64,1710999813078125
38.58,1710999813093750
35.43,1710999813109375
31.61,1710999813125000
25.87,1710999813140625
17.97,1710999813156250
8.85,1710999813171875
0.16,1710999813187500
-6.55,1710999813203125
-10.54,1710999813218750
-12.15,1710999813234375
-12.54,1710999813250000
-13.1,1710999813265625
-14.78,1710999813281250
-17.79,1710999813296875
-21.65,1710999813312500
-25.55,1710999813328125
-28.86,1710999813343750
-31.41,1710999813359375
-33.57,1710999813375000
-35.92,1710999813390625
-38.91,1710999813406250
-42.5,1710999813421875
-46.17,1710999813437500
-49.18,1710999813453125
-51.06,1710999813468750
-51.81,1710999813484375
-51.89,1710999813500000
-51.8,1710999813515625
-51.63,1710999813531250
-50.93,1710999813546875
-48.93,1710999813562500
-45.03,1710999813578125
-39.27,1710999813593750
-32.32,1710999813609375
-25.16,1710999813625000
-18.46,1710999813640625
-12.33,1710999813656250
-6.18,1710999813671875
0.78,1710999813687500
9.09,1710999813703125
18.61,1710999813718750
28.4,1710999813734375
37.03,1710999813750000
42.9,1710999813765625
44.74,1710999813781250
41.89,1710999813796875
34.58,1710999813812500
23.92,1710999813828125
11.66,1710999813843750
-0.1,1710999813859375
-9.5,1710999813875000
-15.21,1710999813890625
-16.94,1710999813906250
-15.52,1710999813921875
-12.83,1710999813937500
-11.29,1710999813953125
-13.09,1710999813968750
-19.29,1710999813984375
-29.25,1710999814000000
-40.82,1710999814015625
-51.01,1710999814031250
-57.38,1710999814046875
-59.2,1710999814062500
-57.97,1710999814078125
-57.0,1710999814093750
-60.1,1710999814109375
-70.11,1710999814125000
-87.73,1710999814140625
-111.37,1710999814156250
-137.77,1710999814171875
-163.08,1710999814187500
-184.01,1710999814203125
-198.38,1710999814218750
-205.28,1710999814234375
-204.87,1710999814250000
-198.1,1710999814265625
-186.64,1710999814281250
-172.79,1710999814296875
-159.24,1710999814312500
-148.57,1710999814328125
-142.45,1710999814343750
-141.25,1710999814359375
-144.1,1710999814375000
-149.51,1710999814390625
-155.96,1710999814406250
-162.14,1710999814421875
-166.73,1710999814437500
-167.69,1710999814453125
-162.15,1710999814468750
-147.09,1710999814484375
-120.92,1710999814500000
-84.97,1710999814515625
-44.01,1710999814531250
-5.23,1710999814546875
24.1,1710999814562500
39.25,1710999814578125
39.74,1710999814593750
29.17,1710999814609375
13.55,1710999814625000
-1.07,1710999814640625
-10.54,1710999814656250
-13.32,1710999814671875
-9.86,1710999814687500
-1.45,1710999814703125
10.71,1710999814718750
25.72,1710999814734375
42.53,1710999814750000
59.47,1710999814765625
74.3,1710999814781250
84.87,1710999814796875
90.01,1710999814812500
90.12,1710999814828125
87.0,1710999814843750
83.0,1710999814859375
79.93,1710999814875000
78.36,1710999814890625
77.61,1710999814906250
76.36,1710999814921875
73.27,1710999814937500
67.67,1710999814953125
59.73,1710999814968750
50.31,1710999814984375
40.59,1710999815000000
31.7,1710999815015625
24.35,1710999815031250
18.71,1710999815046875
14.38,1710999815062500
10.62,1710999815078125
6.64,1710999815093750
1.91,1710999815109375
-3.69,1710999815125000
-9.87,1710999815140625
-15.96,1710999815156250
-21.31,1710999815171875
-25.41,1710999815187500
-28.12,1710999815203125
-29.5,1710999815218750
-29.63,1710999815234375
-28.34,1710999815250000
-25.13,1710999815265625
-19.46,1710999815281250
-10.98,1710999815296875
-0.02,1710999815312500
12.44,1710999815328125
24.9,1710999815343750
35.84,1710999815359375
44.15,1710999815375000
49.34,1710999815390625
51.59,1710999815406250
51.48,1710999815421875
49.79,1710999815437500
47.36,1710999815453125
45.04,1710999815468750
43.57,1710999815484375
43.48,1710999815500000
44.98,1710999815515625
47.81,1710999815531250
51.39,1710999815546875
54.96,1710999815562500
57.83,1710999815578125
59.51,1710999815593750
59.84,1710999815609375
58.97,1710999815625000
57.23,1710999815640625
55.03,1710999815656250
52.64,1710999815671875
50.18,1710999815687500
47.52,1710999815703125
44.43,1710999815718750
40.69,1710999815734375
36.27,1710999815750000
31.34,1710999815765625
26.24,1710999815781250
21.33,1710999815796875
16.8,1710999815812500
12.66,1710999815828125
8.68,1710999815843750
4.58,1710999815859375
0.05,1710999815875000
-5.18,1710999815890625
-11.24,1710999815906250
-18.06,1710999815921875
-25.22,1710999815937500
-31.87,1710999815953125
-36.78,1710999815968750
-38.68,1710999815984375
-36.67,1710999816000000
-30.57,1710999816015625
-21.09,1710999816031250
-9.56,1710999816046875
2.5,1710999816062500
13.8,1710999816078125
23.62,1710999816093750
31.71,1710999816109375
38.14,1710999816125000
43.08,1710999816140625
46.64,1710999816156250
48.93,1710999816171875
50.12,1710999816187500
50.49,1710999816203125
50.44,1710999816218750
50.38,1710999816234375
50.65,1710999816250000
51.35,1710999816265625
52.4,1710999816281250
53.55,1710999816296875
54.51,1710999816312500
55.09,1710999816328125
55.19,1710999816343750
54.82,1710999816359375
53.97,1710999816375000
52.59,1710999816390625
50.59,1710999816406250
47.88,1710999816421875
44.49,1710999816437500
40.63,1710999816453125
36.63,1710999816468750
32.82,1710999816484375
29.49,1710999816500000
26.68,1710999816515625
24.27,1710999816531250
22.01,1710999816546875
19.59,1710999816562500
16.76,1710999816578125
13.41,1710999816593750
9.54,1710999816609375
5.25,1710999816625000
0.69,1710999816640625
-4.03,1710999816656250
-8.79,1710999816671875
-13.55,1710999816687500
-18.24,1710999816703125
-22.9,1710999816718750
-27.64,1710999816734375
-32.73,1710999816750000
-38.48,1710999816765625
-45.03,1710999816781250
-52.17,1710999816796875
-59.13,1710999816812500
-64.71,1710999816828125
-67.54,1710999816843750
-66.55,1710999816859375
-61.35,1710999816875000
-52.4,1710999816890625
-40.85,1710999816906250
-28.23,1710999816921875
-15.96,1710999816937500
-5.0,1710999816953125
4.22,1710999816968750
11.72,1710999816984375
17.7,1710999817000000
22.3,1710999817015625
25.57,1710999817031250
27.56,1710999817046875
28.5,1710999817062500
28.85,1710999817078125
29.25,1710999817093750
30.22,1710999817109375
32.02,1710999817125000
34.49,1710999817140625
37.19,1710999817156250
39.64,1710999817171875
41.46,1710999817187500
42.53,1710999817203125
42.96,1710999817218750
42.95,1710999817234375
42.67,1710999817250000
42.15,1710999817265625
41.33,1710999817281250
40.07,1710999817296875
38.23,1710999817312500
35.75,1710999817328125
32.73,1710999817343750
29.38,1710999817359375
25.96,1710999817375000
22.69,1710999817390625
19.7,1710999817406250
16.98,1710999817421875
14.37,1710999817437500
11.7,1710999817453125
8.79,1710999817468750
5.56,1710999817484375
2.02,1710999817500000
-1.71,1710999817515625
-5.49,1710999817531250
-9.22,1710999817546875
-12.88,1710999817562500
-16.57,1710999817578125
-20.44,1710999817593750
-24.68,1710999817609375
-29.43,1710999817625000
-34.8,1710999817640625
-40.8,1710999817656250
-47.31,1710999817671875
-53.89,1710999817687500
-59.81,1710999817703125
-64.1,1710999817718750
-65.68,1710999817734375
-63.79,1710999817750000
-58.2,1710999817765625
-49.41,1710999817781250
-38.44,1710999817796875
-26.57,1710999817812500
-14.98,1710999817828125
-4.46,1710999817843750
4.52,1710999817859375
11.79,1710999817875000
17.29,1710999817890625
21.02,1710999817906250
23.04,1710999817921875
23.64,1710999817937500
23.31,1710999817953125
22.73,1710999817968750
22.6,1710999817984375
23.37,1710999818000000
25.15,1710999818015625
27.66,1710999818031250
30.35,1710999818046875
32.66,1710999818062500
34.22,1710999818078125
34.95,1710999818093750
35.02,1710999818109375
34.72,1710999818125000
34.23,1710999818140625
33.58,1710999818156250
32.63,1710999818171875
31.23,1710999818187500
29.32,1710999818203125
26.98,1710999818218750
24.37,1710999818234375
21.63,1710999818250000
18.78,1710999818265625
15.71,1710999818281250
12.3,1710999818296875
8.51,1710999818312500
4.46,1710999818328125
0.38,1710999818343750
-3.48,1710999818359375
-7.01,1710999818375000
-10.24,1710999818390625
-13.35,1710999818406250
-16.53,1710999818421875
-19.87,1710999818437500
-23.35,1710999818453125
-26.86,1710999818468750
-30.24,1710999818484375
-33.5,1710999818500000
-36.82,1710999818515625
-40.51,1710999818531250
-44.89,1710999818546875
-49.98,1710999818562500
-55.32,1710999818578125
-59.93,1710999818593750
-62.55,1710999818609375
-61.99,1710999818625000
-57.65,1710999818640625
-49.72,1710999818656250
-39.2,1710999818671875
-27.6,1710999818687500
-16.45,1710999818703125
-6.87,1710999818718750
0.7,1710999818734375
6.35,1710999818750000
10.46,1710999818765625
13.41,1710999818781250
15.39,1710999818796875
16.47,1710999818812500
16.73,1710999818828125
16.39,1710999818843750
15.83,1710999818859375
15.47,1710999818875000
15.57,1710999818890625
16.17,1710999818906250
17.05,1710999818921875
17.95,1710999818937500
18.66,1710999818953125
19.12,1710999818968750
19.35,1710999818984375
19.41,1710999819000000
19.28,1710999819015625
18.86,1710999819031250
18.07,1710999819046875
16.79,1710999819062500
15.04,1710999819078125
12.84,1710999819093750
10.28,1710999819109375
7.46,1710999819125000
4.51,1710999819140625
1.55,1710999819156250
-1.3,1710999819171875
-4.01,1710999819187500
-6.59,1710999819203125
-9.19,1710999819218750
-11.99,1710999819234375
-15.16,1710999819250000
-18.85,1710999819265625
-23.11,1710999819281250
-27.87,1710999819296875
-33.09,1710999819312500
-38.67,1710999819328125
-44.49,1710999819343750
-50.27,1710999819359375
-55.49,1710999819375000
-59.33,1710999819390625
-60.89,1710999819406250
-59.43,1710999819421875
-54.73,1710999819437500
-47.31,1710999819453125
-38.23,1710999819468750
-28.8,1710999819484375
-20.14,1710999819500000
-12.9,1710999819515625
-7.3,1710999819531250
-3.29,1710999819546875
-0.76,1710999819562500
0.34,1710999819578125
0.08,1710999819593750
-1.36,1710999819609375
-3.63,1710999819625000
-6.3,1710999819640625
-8.97,1710999819656250
-11.37,1710999819671875
-13.38,1710999819687500
-14.94,1710999819703125
-16.03,1710999819718750
-16.72,1710999819734375
-17.28,1710999819750000
-18.11,1710999819765625
-19.71,1710999819781250
-22.41,1710999819796875
-26.18,1710999819812500
-30.54,1710999819828125
-34.72,1710999819843750
-37.91,1710999819859375
-39.62,1710999819875000
-39.81,1710999819890625
-38.86,1710999819906250
-37.36,1710999819921875
-35.83,1710999819937500
-34.6,1710999819953125
-33.8,1710999819968750
-33.35,1710999819984375
-33.16,1710999820000000
-33.0,1710999820015625
-32.7,1710999820031250
-32.09,1710999820046875
-31.1,1710999820062500
-29.75,1710999820078125
-28.23,1710999820093750
-26.94,1710999820109375
-26.41,1710999820125000
-27.17,1710999820140625
-29.41,1710999820156250
-32.73,1710999820171875
-36.17,1710999820187500
-38.28,1710999820203125
-37.55,1710999820218750
-32.87,1710999820234375
-23.98,1710999820250000
-11.62,1710999820265625
2.68,1710999820281250
17.29,1710999820296875
30.8,1710999820312500
42.21,1710999820328125
51.08,1710999820343750
57.38,1710999820359375
61.42,1710999820375000
63.55,1710999820390625
64.1,1710999820406250
63.3,1710999820421875
61.69,1710999820437500
59.65,1710999820453125
57.07,1710999820468750
53.48,1710999820484375
48.57,1710999820500000
42.6,1710999820515625
36.33,1710999820531250
30.67,1710999820546875
26.27,1710999820562500
24.1,1710999820578125
24.21,1710999820593750
25.25,1710999820609375
24.99,1710999820625000
21.67,1710999820640625
14.95,1710999820656250
6.01,1710999820671875
-3.07,1710999820687500
-10.1,1710999820703125
-12.25,1710999820718750
-8.28,1710999820734375
0.26,1710999820750000
9.85,1710999820765625
17.17,1710999820781250
20.67,1710999820796875
20.99,1710999820812500
20.18,1710999820828125
20.63,1710999820843750
26.26,1710999820859375
39.81,1710999820875000
61.23,1710999820890625
88.17,1710999820906250
117.47,1710999820921875
145.85,1710999820937500
170.07,1710999820953125
187.01,1710999820968750
182.59,1710999820984375
149.91,1710999821000000
95.95,1710999821015625
38.67,1710999821031250
-5.24,1710999821046875
-29.93,1710999821062500
-39.92,1710999821078125
-43.68,1710999821093750
-47.58,1710999821109375
-52.79,1710999821125000
-54.15,1710999821140625
-44.25,1710999821156250
-23.56,1710999821171875
1.7,1710999821187500
23.47,1710999821203125
35.8,1710999821218750
37.87,1710999821234375
33.84,1710999821250000
29.94,1710999821265625
32.14,1710999821281250
41.86,1710999821296875
55.05,1710999821312500
61.33,1710999821328125
54.2,1710999821343750
33.03,1710999821359375
3.42,1710999821375000
-25.64,1710999821390625
-45.68,1710999821406250
-51.14,1710999821421875
-41.75,1710999821437500
-22.5,1710999821453125
-1.05,1710999821468750
15.9,1710999821484375
24.16,1710999821500000
22.83,1710999821515625
13.32,1710999821531250
-1.9,1710999821546875
-19.91,1710999821562500
-38.47,1710999821578125
-56.32,1710999821593750
-72.78,1710999821609375
-86.6,1710999821625000
-96.43,1710999821640625
-100.98,1710999821656250
-100.3,1710999821671875
-95.65,1710999821687500
-88.87,1710999821703125
-81.69,1710999821718750
-75.18,1710999821734375
-70.02,1710999821750000
-66.1,1710999821765625
-63.42,1710999821781250
-62.02,1710999821796875
-62.67,1710999821812500
-66.08,1710999821828125
-72.28,1710999821843750
-80.44,1710999821859375
-89.04,1710999821875000
-97.27,1710999821890625
-104.93,1710999821906250
-112.41,1710999821921875
-117.27,1710999821937500
-117.11,1710999821953125
-110.34,1710999821968750
-96.88,1710999821984375
-79.23,1710999822000000
-57.28,1710999822015625
-31.72,1710999822031250
-3.9,1710999822046875
22.99,1710999822062500
45.53,1710999822078125
60.47,1710999822093750
65.73,1710999822109375
60.99,1710999822125000
48.0,1710999822140625
30.66,1710999822156250
13.35,1710999822171875
0.05,1710999822187500
-7.01,1710999822203125
-7.92,1710999822218750
-5.25,1710999822234375
-2.63,1710999822250000
-3.08,1710999822265625
-7.86,1710999822281250
-16.09,1710999822296875
-25.98,1710999822312500
-35.25,1710999822328125
-41.77,1710999822343750
-43.66,1710999822359375
-39.88,1710999822375000
-30.29,1710999822390625
-15.87,1710999822406250
1.48,1710999822421875
19.39,1710999822437500
35.4,1710999822453125
47.94,1710999822468750
56.48,1710999822484375
61.42,1710999822500000
63.31,1710999822515625
62.46,1710999822531250
59.06,1710999822546875
53.54,1710999822562500
47.08,1710999822578125
41.47,1710999822593750
38.83,1710999822609375
40.76,1710999822625000
47.55,1710999822640625
57.9,1710999822656250
69.44,1710999822671875
79.94,1710999822687500
88.28,1710999822703125
94.84,1710999822718750
100.78,1710999822734375
107.2,1710999822750000
114.37,1710999822765625
121.82,1710999822781250
129.06,1710999822796875
136.25,1710999822812500
144.52,1710999822828125
155.25,1710999822843750
169.13,1710999822859375
185.39,1710999822875000
201.85,1710999822890625
215.8,1710999822906250
225.11,1710999822921875
228.78,1710999822937500
226.7,1710999822953125
218.89,1710999822968750
204.85,1710999822984375
183.65,1710999823000000
155.02,1710999823015625
120.59,1710999823031250
84.34,1710999823046875
51.73,1710999823062500
27.74,1710999823078125
14.91,1710999823093750
12.62,1710999823109375
18.16,1710999823125000
28.72,1710999823140625
43.08,1710999823156250
61.5,1710999823171875
84.19,1710999823187500
109.37,1710999823203125
132.42,1710999823218750
147.11,1710999823234375
148.06,1710999823250000
132.94,1710999823265625
103.01,1710999823281250
61.9,1710999823296875
13.73,1710999823312500
-37.97,1710999823328125
-90.01,1710999823343750
-138.6,1710999823359375
-178.98,1710999823375000
-206.35,1710999823390625
-217.74,1710999823406250
-213.59,1710999823421875
-198.03,1710999823437500
-177.33,1710999823453125
-157.52,1710999823468750
-142.5,1710999823484375
-133.37,1710999823500000
-129.07,1710999823515625
-127.68,1710999823531250
-127.45,1710999823546875
-127.15,1710999823562500
-125.83,1710999823578125
-122.47,1710999823593750
-116.05,1710999823609375
-105.98,1710999823625000
-92.65,1710999823640625
-77.65,1710999823656250
-63.29,1710999823671875
-51.72,1710999823687500
-43.71,1710999823703125
-38.2,1710999823718750
-32.81,1710999823734375
-25.15,1710999823750000
-14.41,1710999823765625
-2.0,1710999823781250
8.96,1710999823796875
15.16,1710999823812500
14.72,1710999823828125
8.2,1710999823843750
-1.81,1710999823859375
-11.88,1710999823875000
-19.24,1710999823890625
-22.59,1710999823906250
-22.11,1710999823921875
-18.63,1710999823937500
-12.79,1710999823953125
-4.67,1710999823968750
5.93,1710999823984375
18.66,1710999824000000
32.17,1710999824015625
44.32,1710999824031250
53.05,1710999824046875
57.36,1710999824062500
57.6,1710999824078125
54.95,1710999824093750
50.38,1710999824109375
43.84,1710999824125000
34.21,1710999824140625
20.21,1710999824156250
1.46,1710999824171875
-20.76,1710999824187500
-43.73,1710999824203125
-64.16,1710999824218750
-79.3,1710999824234375
-87.65,1710999824250000
-88.94,1710999824265625
-83.77,1710999824281250
-73.12,1710999824296875
-58.14,1710999824312500
-40.06,1710999824328125
-20.17,1710999824343750
0.25,1710999824359375
20.09,1710999824375000
38.44,1710999824390625
54.72,1710999824406250
68.77,1710999824421875
80.75,1710999824437500
91.07,1710999824453125
99.93,1710999824468750
107.16,1710999824484375
112.13,1710999824500000
114.15,1710999824515625
113.01,1710999824531250
109.43,1710999824546875
105.13,1710999824562500
102.41,1710999824578125
103.46,1710999824593750
109.46,1710999824609375
119.96,1710999824625000
132.81,1710999824640625
144.7,1710999824656250
152.14,1710999824671875
152.65,1710999824687500
145.5,1710999824703125
131.79,1710999824718750
113.88,1710999824734375
94.48,1710999824750000
75.69,1710999824765625
58.56,1710999824781250
43.23,1710999824796875
29.34,1710999824812500
16.55,1710999824828125
4.78,1710999824843750
-5.89,1710999824859375
-15.29,1710999824875000
-23.38,1710999824890625
-30.14,1710999824906250
-35.64,1710999824921875
-40.02,1710999824937500
-43.6,1710999824953125
-46.91,1710999824968750
-50.53,1710999824984375
-54.89,1710999825000000
-60.01,1710999825015625
-65.46,1710999825031250
-70.45,1710999825046875
-74.16,1710999825062500
-75.93,1710999825078125
-75.52,1710999825093750
-73.09,1710999825109375
-69.16,1710999825125000
-64.43,1710999825140625
-59.78,1710999825156250
-56.11,1710999825171875
-54.28,1710999825187500
-54.95,1710999825203125
-58.25,1710999825218750
-63.83,1710999825234375
-71.0,1710999825250000
-79.04,1710999825265625
-87.59,1710999825281250
-96.59,1710999825296875
-106.13,1710999825312500
-115.95,1710999825328125
-125.34,1710999825343750
-133.29,1710999825359375
-138.92,1710999825375000
-141.97,1710999825390625
-142.84,1710999825406250
-142.34,1710999825421875
-141.15,1710999825437500
-139.48,1710999825453125
-137.19,1710999825468750
-134.13,1710999825484375
-130.48,1710999825500000
-126.74,1710999825515625
-123.38,1710999825531250
-120.25,1710999825546875
-116.26,1710999825562500
-109.71,1710999825578125
-99.08,1710999825593750
-84.14,1710999825609375
-66.54,1710999825625000
-49.69,1710999825640625
-37.69,1710999825656250
-33.81,1710999825671875
-39.03,1710999825687500
-51.63,1710999825703125
-67.64,1710999825718750
-82.09,1710999825734375
-90.5,1710999825750000
-89.92,1710999825765625
-79.38,1710999825781250
-59.89,1710999825796875
-34.27,1710999825812500
-6.88,1710999825828125
16.83,1710999825843750
31.17,1710999825859375
31.7,1710999825875000
16.66,1710999825890625
-12.21,1710999825906250
-50.05,1710999825921875
-90.45,1710999825937500
-127.57,1710999825953125
-157.86,1710999825968750
-180.71,1710999825984375
-197.78,1710999826000000
-211.53,1710999826015625
-223.72,1710999826031250
-234.77,1710999826046875
-243.9,1710999826062500
-249.96,1710999826078125
-252.27,1710999826093750
-251.03,1710999826109375
-246.93,1710999826125000
-240.57,1710999826140625
-231.91,1710999826156250
-220.14,1710999826171875
-204.12,1710999826187500
-183.12,1710999826203125
-157.51,1710999826218750
-128.91,1710999826234375
-99.55,1710999826250000
-71.32,1710999826265625
-44.79,1710999826281250
-19.05,1710999826296875
7.62,1710999826312500
36.36,1710999826328125
66.59,1710999826343750
95.79,1710999826359375
120.37,1710999826375000
137.34,1710999826390625
145.39,1710999826406250
145.0,1710999826421875
137.43,1710999826437500
123.56,1710999826453125
103.38,1710999826468750
76.71,1710999826484375
44.9,1710999826500000
11.9,1710999826515625
-15.95,1710999826531250
-31.85,1710999826546875
-31.14,1710999826562500
-13.35,1710999826578125
17.65,1710999826593750
55.21,1710999826609375
92.49,1710999826625000
124.62,1710999826640625
149.42,1710999826656250
166.66,1710999826671875
176.75,1710999826687500
179.84,1710999826703125
175.96,1710999826718750
166.12,1710999826734375
153.23,1710999826750000
142.01,1710999826765625
137.34,1710999826781250
141.87,1710999826796875
154.12,1710999826812500
168.66,1710999826828125
178.32,1710999826843750
177.57,1710999826859375
165.21,1710999826875000
144.8,1710999826890625
122.66,1710999826906250
104.61,1710999826921875
93.33,1710999826937500
87.69,1710999826953125
84.26,1710999826968750
79.61,1710999826984375
72.01,1710999827000000
61.58,1710999827015625
49.11,1710999827031250
34.72,1710999827046875
17.5,1710999827062500
-3.45,1710999827078125
-27.44,1710999827093750
-51.35,1710999827109375
-70.35,1710999827125000
-80.09,1710999827140625
-79.05,1710999827156250
-69.9,1710999827171875
-58.63,1710999827187500
-52.09,1710999827203125
-54.99,1710999827218750
-67.98,1710999827234375
-87.85,1710999827250000
-109.36,1710999827265625
-127.61,1710999827281250
-139.75,1710999827296875
-145.44,1710999827312500
-145.98,1710999827328125
-142.97,1710999827343750
-137.26,1710999827359375
-128.67,1710999827375000
-116.56,1710999827390625
-100.68,1710999827406250
-81.72,1710999827421875
-61.12,1710999827437500
-40.8,1710999827453125
-22.57,1710999827468750
-7.49,1710999827484375
4.22,1710999827500000
13.32,1710999827515625
21.01,1710999827531250
28.51,1710999827546875
36.61,1710999827562500
45.83,1710999827578125
56.01,1710999827593750
66.31,1710999827609375
75.71,1710999827625000
83.24,1710999827640625
88.92,1710999827656250
93.09,1710999827671875
95.98,1710999827687500
97.7,1710999827703125
99.01,1710999827718750
100.65,1710999827734375
103.12,1710999827750000
106.72,1710999827765625
110.98,1710999827781250
115.81,1710999827796875
120.6,1710999827812500
124.18,1710999827828125
125.58,1710999827843750
125.31,1710999827859375
123.83,1710999827875000
120.74,1710999827890625
114.8,1710999827906250
104.07,1710999827921875
89.0,1710999827937500
71.49,1710999827953125
54.25,1710999827968750
40.5,1710999827984375
34.03,1710999828000000
36.7,1710999828015625
47.38,1710999828031250
62.63,1710999828046875
77.37,1710999828062500
89.06,1710999828078125
96.75,1710999828093750
100.89,1710999828109375
93.65,1710999828125000
72.21,1710999828140625
41.12,1710999828156250
9.58,1710999828171875
-8.81,1710999828187500
-16.5,1710999828203125
-17.52,1710999828218750
-14.2,1710999828234375
-11.16,1710999828250000
-9.98,1710999828265625
-10.04,1710999828281250
-10.98,1710999828296875
-13.49,1710999828312500
-18.74,1710999828328125
-28.07,1710999828343750
-39.89,1710999828359375
-51.98,1710999828375000
-62.79,1710999828390625
-71.31,1710999828406250
-76.49,1710999828421875
-78.01,1710999828437500
-76.53,1710999828453125
-73.12,1710999828468750
-69.55,1710999828484375
-66.0,1710999828500000
-62.55,1710999828515625
-59.65,1710999828531250
-57.44,1710999828546875
-55.28,1710999828562500
-52.42,1710999828578125
-48.5,1710999828593750
-43.69,1710999828609375
-38.98,1710999828625000
-34.68,1710999828640625
-31.16,1710999828656250
-28.85,1710999828671875
-27.8,1710999828687500
-27.48,1710999828703125
-27.29,1710999828718750
-26.93,1710999828734375
-26.49,1710999828750000
-26.58,1710999828765625
-27.47,1710999828781250
-29.29,1710999828796875
-32.17,1710999828812500
-35.98,1710999828828125
-40.52,1710999828843750
-45.44,1710999828859375
-50.24,1710999828875000
-54.07,1710999828890625
-55.8,1710999828906250
-54.02,1710999828921875
-47.72,1710999828937500
-36.79,1710999828953125
-22.13,1710999828968750
-5.41,1710999828984375
11.5,1710999829000000
27.04,1710999829015625
40.38,1710999829031250
51.25,1710999829046875
59.71,1710999829062500
65.93,1710999829078125
70.07,1710999829093750
72.29,1710999829109375
72.91,1710999829125000
72.38,1710999829140625
71.19,1710999829156250
69.74,1710999829171875
68.25,1710999829187500
66.75,1710999829203125
65.18,1710999829218750
63.42,1710999829234375
61.44,1710999829250000
59.26,1710999829265625
56.99,1710999829281250
54.78,1710999829296875
52.74,1710999829312500
50.92,1710999829328125
49.22,1710999829343750
47.47,1710999829359375
45.45,1710999829375000
43.02,1710999829390625
40.22,1710999829406250
37.25,1710999829421875
34.44,1710999829437500
32.1,1710999829453125
30.42,1710999829468750
29.47,1710999829484375
29.15,1710999829500000
29.27,1710999829515625
29.61,1710999829531250
29.95,1710999829546875
30.14,1710999829562500
30.12,1710999829578125
29.96,1710999829593750
29.85,1710999829609375
30.1,1710999829625000
31.21,1710999829640625
33.8,1710999829656250
38.6,1710999829671875
46.15,1710999829687500
56.66,1710999829703125
69.85,1710999829718750
84.89,1710999829734375
100.53,1710999829750000
115.26,1710999829765625
127.47,1710999829781250
135.76,1710999829796875
139.24,1710999829812500
137.85,1710999829828125
132.5,1710999829843750
124.97,1710999829859375
117.44,1710999829875000
111.96,1710999829890625
109.99,1710999829906250
112.2,1710999829921875
118.56,1710999829937500
128.37,1710999829953125
140.27,1710999829968750
152.28,1710999829984375
161.76,1710999830000000
165.83,1710999830015625
162.15,1710999830031250
149.78,1710999830046875
129.86,1710999830062500
105.57,1710999830078125
81.49,1710999830093750
62.31,1710999830109375
51.43,1710999830125000
49.96,1710999830140625
56.53,1710999830156250
67.92,1710999830171875
80.18,1710999830187500
89.89,1710999830203125
94.93,1710999830218750
94.58,1710999830234375
89.15,1710999830250000
79.5,1710999830265625
66.51,1710999830281250
50.93,1710999830296875
33.41,1710999830312500
14.49,1710999830328125
-5.27,1710999830343750
-25.37,1710999830359375
-45.27,1710999830375000
-64.4,1710999830390625
-82.13,1710999830406250
-97.83,1710999830421875
-111.01,1710999830437500
-121.61,1710999830453125
-130.2,1710999830468750
-138.05,1710999830484375
-146.84,1710999830500000
-158.19,1710999830515625
-173.1,1710999830531250
-191.37,1710999830546875
-211.42,1710999830562500
-230.61,1710999830578125
-245.93,1710999830593750
-254.94,1710999830609375
-256.53,1710999830625000
-251.16,1710999830640625
-240.65,1710999830656250
-227.45,1710999830671875
-213.78,1710999830687500
-201.09,1710999830703125
-189.74,1710999830718750
-179.26,1710999830734375
-168.89,1710999830750000
-158.0,1710999830765625
-146.42,1710999830781250
-134.44,1710999830796875
-122.55,1710999830812500
-111.14,1710999830828125
-100.34,1710999830843750
-89.89,1710999830859375
-79.25,1710999830875000
-67.63,1710999830890625
-54.04,1710999830906250
-37.57,1710999830921875
-17.72,1710999830937500
5.25,1710999830953125
30.14,1710999830968750
54.92,1710999830984375
77.29,1710999831000000
95.33,1710999831015625
108.03,1710999831031250
115.52,1710999831046875
118.88,1710999831062500
119.72,1710999831078125
119.55,1710999831093750
119.26,1710999831109375
118.79,1710999831125000
117.33,1710999831140625
113.61,1710999831156250
106.56,1710999831171875
95.72,1710999831187500
81.34,1710999831203125
64.14,1710999831218750
45.04,1710999831234375
24.95,1710999831250000
4.74,1710999831265625
-14.75,1710999831281250
-32.84,1710999831296875
-49.29,1710999831312500
-64.52,1710999831328125
-79.53,1710999831343750
-95.45,1710999831359375
-112.88,1710999831375000
-131.25,1710999831390625
-148.9,1710999831406250
-163.49,1710999831421875
-172.89,1710999831437500
-175.87,1710999831453125
-172.32,1710999831468750
-163.12,1710999831484375
-149.68,1710999831500000
-133.51,1710999831515625
-115.9,1710999831531250
-97.81,1710999831546875
-79.99,1710999831562500
-63.08,1710999831578125
-47.81,1710999831593750
-34.91,1710999831609375
-24.83,1710999831625000
-17.29,1710999831640625
-11.06,1710999831656250
-4.19,1710999831671875
5.4,1710999831687500
19.07,1710999831703125
36.93,1710999831718750
57.66,1710999831734375
79.15,1710999831750000
99.09,1710999831765625
115.66,1710999831781250
127.68,1710999831796875
134.45,1710999831812500
135.58,1710999831828125
130.97,1710999831843750
121.01,1710999831859375
106.8,1710999831875000
90.31,1710999831890625
74.02,1710999831906250
60.53,1710999831921875
51.79,1710999831937500
48.72,1710999831953125
50.98,1710999831968750
57.24,1710999831984375
65.71,1710999832000000
74.4,1710999832015625
81.31,1710999832031250
84.33,1710999832046875
81.27,1710999832062500
70.36,1710999832078125
50.96,1710999832093750
24.33,1710999832109375
-6.24,1710999832125000
-36.23,1710999832140625
-61.37,1710999832156250
-79.04,1710999832171875
-88.85,1710999832187500
-92.3,1710999832203125
-91.58,1710999832218750
-88.45,1710999832234375
-83.8,1710999832250000
-77.89,1710999832265625
-70.94,1710999832281250
-63.67,1710999832296875
-57.2,1710999832312500
-52.58,1710999832328125
-50.34,1710999832343750
-50.15,1710999832359375
-51.02,1710999832375000
-51.69,1710999832390625
-51.14,1710999832406250
-48.92,1710999832421875
-45.34,1710999832437500
-41.26,1710999832453125
-37.83,1710999832468750
-36.05,1710999832484375
-36.39,1710999832500000
-38.68,1710999832515625
-42.21,1710999832531250
-46.03,1710999832546875
-49.44,1710999832562500
-52.21,1710999832578125
-54.65,1710999832593750
-57.37,1710999832609375
-60.95,1710999832625000
-65.55,1710999832640625
-70.7,1710999832656250
-75.36,1710999832671875
-78.24,1710999832687500
-78.24,1710999832703125
-74.92,1710999832718750
-68.74,1710999832734375
-61.06,1710999832750000
-53.85,1710999832765625
-49.08,1710999832781250
-48.11,1710999832796875
-51.16,1710999832812500
-57.19,1710999832828125
-64.06,1710999832843750
-69.14,1710999832859375
-69.92,1710999832875000
-64.6,1710999832890625
-52.51,1710999832906250
-34.08,1710999832921875
-10.75,1710999832937500
15.35,1710999832953125
41.87,1710999832968750
66.74,1710999832984375
88.45,1710999833000000
106.25,1710999833015625
120.03,1710999833031250
130.12,1710999833046875
137.17,1710999833062500
142.24,1710999833078125
146.9,1710999833093750
153.21,1710999833109375
163.29,1710999833125000
178.47,1710999833140625
198.49,1710999833156250
221.12,1710999833171875
242.57,1710999833187500
258.87,1710999833203125
267.28,1710999833218750
267.4,1710999833234375
261.16,1710999833250000
251.99,1710999833265625
243.53,1710999833281250
238.26,1710999833296875
236.45,1710999833312500
235.83,1710999833328125
232.11,1710999833343750
220.37,1710999833359375
197.33,1710999833375000
163.3,1710999833390625
122.84,1710999833406250
83.33,1710999833421875
51.84,1710999833437500
31.83,1710999833453125
21.61,1710999833468750
15.61,1710999833484375
7.72,1710999833500000
-5.33,1710999833515625
-22.59,1710999833531250
-40.49,1710999833546875
-55.82,1710999833562500
-67.98,1710999833578125
-78.92,1710999833593750
-90.97,1710999833609375
-104.32,1710999833625000
-116.27,1710999833640625
-122.79,1710999833656250
-121.22,1710999833671875
-112.3,1710999833687500
-99.85,1710999833703125
-88.51,1710999833718750
-81.16,1710999833734375
-77.75,1710999833750000
-76.28,1710999833765625
-74.79,1710999833781250
-73.2,1710999833796875
-73.52,1710999833812500
-78.46,1710999833828125
-89.61,1710999833843750
-106.27,1710999833859375
-125.64,1710999833875000
-144.02,1710999833890625
-157.95,1710999833906250
-164.95,1710999833921875
-163.67,1710999833937500
-154.0,1710999833953125
-137.31,1710999833968750
-116.66,1710999833984375
-96.52,1710999834000000
-81.66,1710999834015625
-75.62,1710999834031250
-79.26,1710999834046875
-90.58,1710999834062500
-105.51,1710999834078125
-119.64,1710999834093750
-129.65,1710999834109375
-134.02,1710999834125000
-132.66,1710999834140625
-126.15,1710999834156250
-115.27,1710999834171875
-101.05,1710999834187500
-85.05,1710999834203125
-69.46,1710999834218750
-56.78,1710999834234375
-48.89,1710999834250000
-46.3,1710999834265625
-47.46,1710999834281250
-49.06,1710999834296875
-47.02,1710999834312500
-37.9,1710999834328125
-20.3,1710999834343750
4.59,1710999834359375
33.54,1710999834375000
62.51,1710999834390625
88.03,1710999834406250
108.01,1710999834421875
121.82,1710999834437500
129.83,1710999834453125
132.96,1710999834468750
132.45,1710999834484375
129.81,1710999834500000
126.68,1710999834515625
124.46,1710999834531250
123.83,1710999834546875
124.4,1710999834562500
125.02,1710999834578125
124.4,1710999834593750
121.9,1710999834609375
117.87,1710999834625000
113.31,1710999834640625
109.43,1710999834656250
107.09,1710999834671875
106.69,1710999834687500
108.3,1710999834703125
111.73,1710999834718750
116.48,1710999834734375
121.66,1710999834750000
126.05,1710999834765625
128.41,1710999834781250
128.07,1710999834796875
125.09,1710999834812500
120.29,1710999834828125
114.75,1710999834843750
109.19,1710999834859375
103.9,1710999834875000
98.84,1710999834890625
93.86,1710999834906250
88.38,1710999834921875
81.74,1710999834937500
73.4,1710999834953125
63.2,1710999834968750
51.41,1710999834984375
38.64,1710999835000000
25.99,1710999835015625
14.89,1710999835031250
6.67,1710999835046875
1.66,1710999835062500
-0.75,1710999835078125
-1.74,1710999835093750
-2.32,1710999835109375
-2.9,1710999835125000
-3.82,1710999835140625
-4.81,1710999835156250
-5.26,1710999835171875
-4.12,1710999835187500
-1.45,1710999835203125
2.11,1710999835218750
5.44,1710999835234375
7.47,1710999835250000
7.21,1710999835265625
2.46,1710999835281250
-7.82,1710999835296875
-22.91,1710999835312500
-39.39,1710999835328125
-55.28,1710999835343750
-69.39,1710999835359375
-81.55,1710999835375000
-91.98,1710999835390625
-101.6,1710999835406250
-114.85,1710999835421875
-134.85,1710999835437500
-161.77,1710999835453125
-190.3,1710999835468750
-217.38,1710999835484375
-240.8,1710999835500000
-259.44,1710999835515625
-272.54,1710999835531250
-280.64,1710999835546875
-290.51,1710999835562500
-307.43,1710999835578125
-332.79,1710999835593750
-360.49,1710999835609375
-389.23,1710999835625000
-419.35,1710999835640625
-451.43,1710999835656250
-482.86,1710999835671875
-508.43,1710999835687500
-528.04,1710999835703125
-539.85,1710999835718750
-540.59,1710999835734375
-522.81,1710999835750000
-490.47,1710999835765625
-452.6,1710999835781250
-418.89,1710999835796875
-393.75,1710999835812500
-336.97,1710999835828125
-230.09,1710999835843750
-82.65,1710999835859375
42.61,1710999835875000
135.6,1710999835890625
198.19,1710999835906250
242.42,1710999835921875
270.87,1710999835937500
285.95,1710999835953125
291.11,1710999835968750
284.38,1710999835984375
266.72,1710999836000000
243.14,1710999836015625
226.17,1710999836031250
219.53,1710999836046875
222.42,1710999836062500
231.15,1710999836078125
242.82,1710999836093750
254.72,1710999836109375
259.14,1710999836125000
250.49,1710999836140625
227.62,1710999836156250
197.62,1710999836171875
163.97,1710999836187500
129.81,1710999836203125
97.76,1710999836218750
71.36,1710999836234375
53.29,1710999836250000
41.35,1710999836265625
32.46,1710999836281250
24.43,1710999836296875
18.54,1710999836312500
12.79,1710999836328125
5.45,1710999836343750
-5.0,1710999836359375
-18.42,1710999836375000
-33.26,1710999836390625
-48.39,1710999836406250
-61.83,1710999836421875
-70.8,1710999836437500
-72.12,1710999836453125
-66.3,1710999836468750
-54.08,1710999836484375
-37.35,1710999836500000
-17.89,1710999836515625
3.28,1710999836531250
25.7,1710999836546875
49.19,1710999836562500
74.12,1710999836578125
99.92,1710999836593750
124.24,1710999836609375
147.71,1710999836625000
171.37,1710999836640625
196.1,1710999836656250
222.22,1710999836671875
249.59,1710999836687500
276.82,1710999836703125
303.44,1710999836718750
328.55,1710999836734375
351.08,1710999836750000
373.75,1710999836765625
397.42,1710999836781250
419.1,1710999836796875
432.9,1710999836812500
433.52,1710999836828125
418.13,1710999836843750
389.98,1710999836859375
354.77,1710999836875000
294.8,1710999836890625
206.15,1710999836906250
100.02,1710999836921875
-2.99,1710999836937500
-85.36,1710999836953125
-132.52,1710999836968750
-150.99,1710999836984375
-147.73,1710999837000000
-129.23,1710999837015625
-101.44,1710999837031250
-69.0,1710999837046875
-35.52,1710999837062500
-5.17,1710999837078125
18.03,1710999837093750
31.62,1710999837109375
34.16,1710999837125000
27.49,1710999837140625
13.71,1710999837156250
-5.19,1710999837171875
-24.34,1710999837187500
-39.77,1710999837203125
-50.16,1710999837218750
-56.62,1710999837234375
-61.13,1710999837250000
-66.11,1710999837265625
-71.95,1710999837281250
-79.12,1710999837296875
-88.74,1710999837312500
-100.58,1710999837328125
-114.91,1710999837343750
-132.72,1710999837359375
-154.81,1710999837375000
-180.27,1710999837390625
-206.65,1710999837406250
-229.32,1710999837421875
-244.13,1710999837437500
-248.93,1710999837453125
-243.13,1710999837468750
-228.43,1710999837484375
-208.18,1710999837500000
-185.9,1710999837515625
-163.72,1710999837531250
-142.36,1710999837546875
-120.96,1710999837562500
-98.89,1710999837578125
-76.6,1710999837593750
-55.3,1710999837609375
-36.49,1710999837625000
-21.24,1710999837640625
-9.54,1710999837656250
-0.24,1710999837671875
8.39,1710999837687500
18.38,1710999837703125
31.41,1710999837718750
48.72,1710999837734375
70.99,1710999837750000
97.9,1710999837765625
127.4,1710999837781250
155.53,1710999837796875
177.23,1710999837812500
188.15,1710999837828125
186.81,1710999837843750
175.56,1710999837859375
159.8,1710999837875000
145.68,1710999837890625
137.41,1710999837906250
135.83,1710999837921875
138.73,1710999837937500
142.71,1710999837953125
145.0,1710999837968750
144.39,1710999837984375
140.94,1710999838000000
134.89,1710999838015625
125.85,1710999838031250
112.77,1710999838046875
94.9,1710999838062500
72.85,1710999838078125
49.15,1710999838093750
27.48,1710999838109375
11.37,1710999838125000
2.56,1710999838140625
0.19,1710999838156250
0.9,1710999838171875
-0.02,1710999838187500
-7.08,1710999838203125
-23.01,1710999838218750
-47.84,1710999838234375
-78.96,1710999838250000
-112.01,1710999838265625
-142.39,1710999838281250
-166.59,1710999838296875
-183.14,1710999838312500
-192.51,1710999838328125
-196.49,1710999838343750
-197.16,1710999838359375
-196.03,1710999838375000
-193.83,1710999838390625
-190.75,1710999838406250
-187.06,1710999838421875
-183.44,1710999838437500
-180.77,1710999838453125
-179.34,1710999838468750
-178.37,1710999838484375
-175.98,1710999838500000
-169.89,1710999838515625
-158.52,1710999838531250
-141.72,1710999838546875
-120.89,1710999838562500
-98.25,1710999838578125
-75.78,1710999838593750
-54.31,1710999838609375
-33.25,1710999838625000
-11.1,1710999838640625
13.58,1710999838656250
41.09,1710999838671875
70.03,1710999838687500
97.27,1710999838703125
119.06,1710999838718750
132.54,1710999838734375
137.27,1710999838750000
135.58,1710999838765625
131.47,1710999838781250
128.63,1710999838796875
128.4,1710999838812500
129.42,1710999838828125
128.73,1710999838843750
123.9,1710999838859375
114.47,1710999838875000
101.96,1710999838890625
88.54,1710999838906250
75.47,1710999838921875
62.37,1710999838937500
47.92,1710999838953125
31.26,1710999838968750
12.98,1710999838984375
-4.91,1710999839000000
-20.14,1710999839015625
-31.58,1710999839031250
-39.68,1710999839046875
-46.25,1710999839062500
-53.28,1710999839078125
-62.08,1710999839093750
-72.75,1710999839109375
-84.33,1710999839125000
-95.37,1710999839140625
-104.65,1710999839156250
-111.73,1710999839171875
-116.91,1710999839187500
-120.93,1710999839203125
-124.33,1710999839218750
-127.08,1710999839234375
-128.14,1710999839250000
-125.55,1710999839265625
-116.75,1710999839281250
-99.97,1710999839296875
-75.61,1710999839312500
-47.16,1710999839328125
-20.92,1710999839343750
-4.3,1710999839359375
-3.37,1710999839375000
-20.13,1710999839390625
-51.6,1710999839406250
-90.29,1710999839421875
-127.85,1710999839437500
-158.24,1710999839453125
-179.54,1710999839468750
-193.35,1710999839484375
-202.39,1710999839500000
-208.51,1710999839515625
-211.04,1710999839531250
-207.28,1710999839546875
-192.55,1710999839562500
-163.22,1710999839578125
-118.08,1710999839593750
-58.8,1710999839609375
11.08,1710999839625000
86.9,1710999839640625
162.92,1710999839656250
233.32,1710999839671875
291.99,1710999839687500
335.95,1710999839703125
364.37,1710999839718750
378.95,1710999839734375
383.45,1710999839750000
383.41,1710999839765625
384.38,1710999839781250
388.96,1710999839796875
396.67,1710999839812500
403.12,1710999839828125
405.03,1710999839843750
399.78,1710999839859375
386.67,1710999839875000
366.77,1710999839890625
343.65,1710999839906250
322.44,1710999839921875
307.17,1710999839937500
301.0,1710999839953125
286.58,1710999839968750
252.41,1710999839984375
196.51,1710999840000000
127.31,1710999840015625
54.82,1710999840031250
-15.04,1710999840046875
-76.8,1710999840062500
-136.34,1710999840078125
-196.12,1710999840093750
-254.98,1710999840109375
-306.9,1710999840125000
-347.07,1710999840140625
-369.47,1710999840156250
-374.39,1710999840171875
-366.55,1710999840187500
-352.39,1710999840203125
-338.25,1710999840218750
-326.71,1710999840234375
-317.72,1710999840250000
-307.27,1710999840265625
-291.28,1710999840281250
-267.56,1710999840296875
-237.49,1710999840312500
-204.39,1710999840328125
-172.03,1710999840343750
-144.12,1710999840359375
-121.96,1710999840375000
-105.29,1710999840390625
-90.84,1710999840406250
-74.48,1710999840421875
-52.51,1710999840437500
-23.5,1710999840453125
11.89,1710999840468750
51.07,1710999840484375
89.25,1710999840500000
121.12,1710999840515625
141.34,1710999840531250
146.89,1710999840546875
138.06,1710999840562500
118.9,1710999840578125
96.17,1710999840593750
77.61,1710999840609375
69.42,1710999840625000
73.79,1710999840640625
88.67,1710999840656250
108.75,1710999840671875
128.17,1710999840687500
142.64,1710999840703125
150.5,1710999840718750
152.09,1710999840734375
148.63,1710999840750000
141.19,1710999840765625
130.26,1710999840781250
116.21,1710999840796875
99.75,1710999840812500
82.16,1710999840828125
65.05,1710999840843750
49.71,1710999840859375
36.6,1710999840875000
25.12,1710999840890625
14.12,1710999840906250
2.41,1710999840921875
-10.61,1710999840937500
-24.68,1710999840953125
-38.83,1710999840968750
-51.85,1710999840984375
-62.85,1710999841000000
-71.67,1710999841015625
-78.95,1710999841031250
-85.72,1710999841046875
-93.01,1710999841062500
-101.36,1710999841078125
-110.59,1710999841093750
-119.81,1710999841109375
-127.75,1710999841125000
-133.18,1710999841140625
-135.33,1710999841156250
-134.19,1710999841171875
-130.48,1710999841187500
-125.31,1710999841203125
-119.78,1710999841218750
-114.62,1710999841234375
-109.97,1710999841250000
-105.54,1710999841265625
-100.81,1710999841281250
-95.22,1710999841296875
-88.33,1710999841312500
-79.73,1710999841328125
-69.13,1710999841343750
-56.38,1710999841359375
-41.6,1710999841375000
-25.26,1710999841390625
-8.19,1710999841406250
8.58,1710999841421875
24.01,1710999841437500
37.19,1710999841453125
47.53,1710999841468750
54.74,1710999841484375
58.94,1710999841500000
60.62,1710999841515625
60.51,1710999841531250
59.38,1710999841546875
57.81,1710999841562500
56.13,1710999841578125
54.35,1710999841593750
52.42,1710999841609375
50.28,1710999841625000
47.98,1710999841640625
45.64,1710999841656250
43.39,1710999841671875
41.33,1710999841687500
39.53,1710999841703125
38.07,1710999841718750
37.01,1710999841734375
36.27,1710999841750000
35.62,1710999841765625
34.59,1710999841781250
32.71,1710999841796875
29.7,1710999841812500
25.67,1710999841828125
21.1,1710999841843750
16.69,1710999841859375
12.99,1710999841875000
10.25,1710999841890625
8.36,1710999841906250
7.17,1710999841921875
6.65,1710999841937500
7.04,1710999841953125
8.62,1710999841968750
11.37,1710999841984375
14.74,1710999842000000
17.71,1710999842015625
19.18,1710999842031250
18.65,1710999842046875
16.4,1710999842062500
13.5,1710999842078125
11.16,1710999842093750
10.23,1710999842109375
10.79,1710999842125000
12.21,1710999842140625
13.54,1710999842156250
14.01,1710999842171875
13.47,1710999842187500
12.26,1710999842203125
11.07,1710999842218750
10.47,1710999842234375
10.76,1710999842250000
11.86,1710999842265625
13.48,1710999842281250
15.26,1710999842296875
16.95,1710999842312500
18.67,1710999842328125
20.68,1710999842343750
23.34,1710999842359375
26.77,1710999842375000
30.84,1710999842390625
35.25,1710999842406250
39.57,1710999842421875
43.5,1710999842437500
46.84,1710999842453125
49.92,1710999842468750
53.04,1710999842484375
56.25,1710999842500000
59.06,1710999842515625
60.68,1710999842531250
60.31,1710999842546875
57.39,1710999842562500
51.56,1710999842578125
42.68,1710999842593750
31.39,1710999842609375
18.4,1710999842625000
4.25,1710999842640625
-10.91,1710999842656250
-27.06,1710999842671875
-43.85,1710999842687500
-60.53,1710999842703125
-76.02,1710999842718750
-89.09,1710999842734375
-97.47,1710999842750000
-99.23,1710999842765625
-93.46,1710999842781250
-80.84,1710999842796875
-63.21,1710999842812500
-42.73,1710999842828125
-21.49,1710999842843750
-1.24,1710999842859375
16.62,1710999842875000
32.48,1710999842890625
47.18,1710999842906250
61.61,1710999842921875
76.15,1710999842937500
90.92,1710999842953125
106.1,1710999842968750
121.51,1710999842984375
136.15,1710999843000000
140.76,1710999843015625
128.72,1710999843031250
100.27,1710999843046875
64.06,1710999843062500
30.84,1710999843078125
6.92,1710999843093750
-7.3,1710999843109375
-15.09,1710999843125000
-20.31,1710999843140625
-25.03,1710999843156250
-27.19,1710999843171875
-24.65,1710999843187500
-16.43,1710999843203125
-4.28,1710999843218750
8.04,1710999843234375
16.93,1710999843250000
20.45,1710999843265625
18.86,1710999843281250
14.0,1710999843296875
9.02,1710999843312500
5.61,1710999843328125
4.17,1710999843343750
3.15,1710999843359375
0.28,1710999843375000
-5.89,1710999843390625
-15.26,1710999843406250
-26.47,1710999843421875
-37.68,1710999843437500
-46.75,1710999843453125
-52.32,1710999843468750
-53.94,1710999843484375
-52.11,1710999843500000
-47.82,1710999843515625
-41.89,1710999843531250
-34.98,1710999843546875
-27.73,1710999843562500
-20.87,1710999843578125
-14.78,1710999843593750
-9.75,1710999843609375
-5.85,1710999843625000
-3.25,1710999843640625
-2.14,1710999843656250
-2.6,1710999843671875
-4.59,1710999843687500
-7.96,1710999843703125
-12.46,1710999843718750
-17.52,1710999843734375
-22.48,1710999843750000
-26.64,1710999843765625
-29.53,1710999843781250
-31.11,1710999843796875
-31.6,1710999843812500
-31.42,1710999843828125
-30.94,1710999843843750
-30.34,1710999843859375
-29.54,1710999843875000
-28.35,1710999843890625
-26.65,1710999843906250
-24.59,1710999843921875
-22.53,1710999843937500
-20.82,1710999843953125
-19.61,1710999843968750
-18.72,1710999843984375
-17.83,1710999844000000
-16.66,1710999844015625
-15.18,1710999844031250
-13.68,1710999844046875
-12.65,1710999844062500
-12.59,1710999844078125
-13.8,1710999844093750
-16.28,1710999844109375
-19.69,1710999844125000
-23.42,1710999844140625
-26.63,1710999844156250
-28.39,1710999844171875
-27.92,1710999844187500
-24.72,1710999844203125
-18.77,1710999844218750
-10.63,1710999844234375
-1.2,1710999844250000
8.39,1710999844265625
17.14,1710999844281250
24.36,1710999844296875
29.76,1710999844312500
33.3,1710999844328125
35.16,1710999844343750
35.53,1710999844359375
34.55,1710999844375000
32.44,1710999844390625
29.49,1710999844406250
26.1,1710999844421875
22.66,1710999844437500
19.42,1710999844453125
16.45,1710999844468750
13.7,1710999844484375
11.08,1710999844500000
8.63,1710999844515625
6.56,1710999844531250
5.1,1710999844546875
4.33,1710999844562500
4.06,1710999844578125
3.85,1710999844593750
3.19,1710999844609375
1.72,1710999844625000
-0.69,1710999844640625
-3.9,1710999844656250
-7.56,1710999844671875
-11.28,1710999844687500
-14.71,1710999844703125
-17.63,1710999844718750
-20.04,1710999844734375
-22.12,1710999844750000
-24.26,1710999844765625
-26.88,1710999844781250
-30.27,1710999844796875
-34.3,1710999844812500
-38.48,1710999844828125
-41.93,1710999844843750
-43.66,1710999844859375
-42.88,1710999844875000
-39.26,1710999844890625
-33.0,1710999844906250
-24.87,1710999844921875
-15.92,1710999844937500
-7.32,1710999844953125
-0.0,1710999844968750
5.45,1710999844984375
8.85,1710999845000000
10.37,1710999845015625
10.39,1710999845031250
9.39,1710999845046875
7.83,1710999845062500
6.17,1710999845078125
4.8,1710999845093750
3.97,1710999845109375
3.79,1710999845125000
4.16,1710999845140625
4.85,1710999845156250
5.59,1710999845171875
6.21,1710999845187500
6.65,1710999845203125
6.95,1710999845218750
7.16,1710999845234375
7.24,1710999845250000
6.99,1710999845265625
6.16,1710999845281250
4.5,1710999845296875
1.93,1710999845312500
-1.46,1710999845328125
-5.42,1710999845343750
-9.67,1710999845359375
-14.01,1710999845375000
-18.41,1710999845390625
-22.95,1710999845406250
-27.81,1710999845421875
-33.09,1710999845437500
-38.76,1710999845453125
-44.5,1710999845468750
-49.74,1710999845484375
-53.74,1710999845500000
-55.68,1710999845515625
-54.91,1710999845531250
-51.15,1710999845546875
-44.57,1710999845562500
-35.9,1710999845578125
-26.14,1710999845593750
-16.37,1710999845609375
-7.34,1710999845625000
0.56,1710999845640625
7.32,1710999845656250
13.01,1710999845671875
17.72,1710999845687500
21.35,1710999845703125
23.82,1710999845718750
25.12,1710999845734375
25.44,1710999845750000
25.09,1710999845765625
24.39,1710999845781250
23.54,1710999845796875
22.6,1710999845812500
21.53,1710999845828125
20.33,1710999845843750
19.09,1710999845859375
17.95,1710999845875000
17.01,1710999845890625
16.22,1710999845906250
15.37,1710999845921875
14.17,1710999845937500
12.24,1710999845953125
9.37,1710999845968750
5.58,1710999845984375
1.17,1710999846000000
-3.35,1710999846015625
-7.44,1710999846031250
-10.74,1710999846046875
-13.29,1710999846062500
-15.44,1710999846078125
-17.79,1710999846093750
-20.88,1710999846109375
-25.04,1710999846125000
-30.31,1710999846140625
-36.32,1710999846156250
-42.4,1710999846171875
-47.55,1710999846187500
-50.67,1710999846203125
-50.77,1710999846218750
-47.34,1710999846234375
-40.49,1710999846250000
-31.05,1710999846265625
-20.27,1710999846281250
-9.36,1710999846296875
0.79,1710999846312500
9.71,1710999846328125
17.3,1710999846343750
23.57,1710999846359375
28.54,1710999846375000
32.22,1710999846390625
34.75,1710999846406250
36.33,1710999846421875
37.22,1710999846437500
37.66,1710999846453125
37.74,1710999846468750
37.49,1710999846484375
36.93,1710999846500000
36.12,1710999846515625
35.14,1710999846531250
34.05,1710999846546875
32.83,1710999846562500
31.46,1710999846578125
29.95,1710999846593750
28.39,1710999846609375
26.9,1710999846625000
25.5,1710999846640625
23.98,1710999846656250
22.0,1710999846671875
19.22,1710999846687500
15.49,1710999846703125
10.94,1710999846718750
5.94,1710999846734375
0.93,1710999846750000
-3.78,1710999846765625
-8.07,1710999846781250
-11.98,1710999846796875
-15.65,1710999846812500
-19.2,1710999846828125
-22.77,1710999846843750
-26.5,1710999846859375
-30.6,1710999846875000
-35.25,1710999846890625
-40.42,1710999846906250
-45.71,1710999846921875
-50.27,1710999846937500
-52.99,1710999846953125
-52.82,1710999846968750
-49.19,1710999846984375
-42.24,1710999847000000
-32.8,1710999847015625
-22.12,1710999847031250
-11.44,1710999847046875
-1.64,1710999847062500
6.83,1710999847078125
13.89,1710999847093750
19.63,1710999847109375
24.11,1710999847125000
27.35,1710999847140625
29.31,1710999847156250
30.07,1710999847171875
29.9,1710999847187500
29.25,1710999847203125
28.59,1710999847218750
28.3,1710999847234375
28.49,1710999847250000
28.97,1710999847265625
29.38,1710999847281250
29.38,1710999847296875
28.85,1710999847312500
27.93,1710999847328125
26.9,1710999847343750
25.93,1710999847359375
24.93,1710999847375000
23.55,1710999847390625
21.29,1710999847406250
17.82,1710999847421875
13.13,1710999847437500
7.51,1710999847453125
1.48,1710999847468750
-4.44,1710999847484375
-9.78,1710999847500000
-14.28,1710999847515625
-17.88,1710999847531250
-20.75,1710999847546875
-23.23,1710999847562500
-25.79,1710999847578125
-28.85,1710999847593750
-32.59,1710999847609375
-36.78,1710999847625000
-40.79,1710999847640625
-43.74,1710999847656250
-44.77,1710999847671875
-43.28,1710999847687500
-39.12,1710999847703125
-32.59,1710999847718750
-24.39,1710999847734375
-15.41,1710999847750000
-6.47,1710999847765625
1.74,1710999847781250
8.83,1710999847796875
14.65,1710999847812500
19.14,1710999847828125
22.3,1710999847843750
24.15,1710999847859375
24.76,1710999847875000
24.4,1710999847890625
23.49,1710999847906250
22.59,1710999847921875
22.17,1710999847937500
22.48,1710999847953125
23.4,1710999847968750
24.54,1710999847984375
25.41,1710999848000000
25.56,1710999848015625
24.76,1710999848031250
23.03,1710999848046875
20.55,1710999848062500
17.56,1710999848078125
14.32,1710999848093750
10.96,1710999848109375
7.52,1710999848125000
3.94,1710999848140625
0.17,1710999848156250
-3.75,1710999848171875
-7.65,1710999848187500
-11.31,1710999848203125
-14.59,1710999848218750
-17.53,1710999848234375
-20.42,1710999848250000
-23.65,1710999848265625
-27.55,1710999848281250
-32.21,1710999848296875
-37.47,1710999848312500
-42.91,1710999848328125
-47.94,1710999848343750
-51.93,1710999848359375
-54.2,1710999848375000
-54.13,1710999848390625
-51.3,1710999848406250
-45.65,1710999848421875
-37.57,1710999848437500
-27.77,1710999848453125
-17.18,1710999848468750
-6.63,1710999848484375
3.27,1710999848500000
12.15,1710999848515625
19.75,1710999848531250
25.92,1710999848546875
30.49,1710999848562500
33.4,1710999848578125
34.8,1710999848593750
35.03,1710999848609375
34.59,1710999848625000
33.95,1710999848640625
33.5,1710999848656250
33.4,1710999848671875
33.6,1710999848687500
33.96,1710999848703125
34.29,1710999848718750
34.49,1710999848734375
34.51,1710999848750000
34.34,1710999848765625
33.92,1710999848781250
33.11,1710999848796875
31.77,1710999848812500
29.78,1710999848828125
27.16,1710999848843750
24.07,1710999848859375
20.74,1710999848875000
17.36,1710999848890625
14.0,1710999848906250
10.59,1710999848921875
6.95,1710999848937500
2.98,1710999848953125
-1.32,1710999848968750
-5.8,1710999848984375
-10.27,1710999849000000
-14.58,1710999849015625
-18.72,1710999849031250
-22.75,1710999849046875
-26.81,1710999849062500
-31.01,1710999849078125
-35.43,1710999849093750
-40.16,1710999849109375
-45.2,1710999849125000
-50.47,1710999849140625
-55.57,1710999849156250
-59.75,1710999849171875
-61.96,1710999849187500
-61.1,1710999849203125
-56.44,1710999849218750
-47.99,1710999849234375
-36.62,1710999849250000
-23.79,1710999849265625
-11.08,1710999849281250
0.29,1710999849296875
9.73,1710999849312500
17.23,1710999849328125
23.06,1710999849343750
27.52,1710999849359375
30.77,1710999849375000
32.9,1710999849390625
34.11,1710999849406250
34.75,1710999849421875
35.29,1710999849437500
36.11,1710999849453125
37.33,1710999849468750
38.79,1710999849484375
40.16,1710999849500000
41.09,1710999849515625
41.44,1710999849531250
41.26,1710999849546875
40.7,1710999849562500
39.89,1710999849578125
38.85,1710999849593750
37.47,1710999849609375
35.62,1710999849625000
33.22,1710999849640625
30.33,1710999849656250
27.07,1710999849671875
23.64,1710999849687500
20.24,1710999849703125
17.09,1710999849718750
14.34,1710999849734375
12.1,1710999849750000
10.37,1710999849765625
8.97,1710999849781250
7.59,1710999849796875
5.82,1710999849812500
3.35,1710999849828125
0.04,1710999849843750
-4.07,1710999849859375
-8.76,1710999849875000
-13.71,1710999849890625
-18.6,1710999849906250
-23.19,1710999849921875
-27.35,1710999849937500
-31.11,1710999849953125
-34.63,1710999849968750
-38.21,1710999849984375
-42.18,1710999850000000
-46.78,1710999850015625
-51.85,1710999850031250
-56.8,1710999850046875
-60.59,1710999850062500
-61.96,1710999850078125
-59.86,1710999850093750
-53.82,1710999850109375
-44.15,1710999850125000
-31.91,1710999850140625
-18.55,1710999850156250
-5.54,1710999850171875
6.01,1710999850187500
15.51,1710999850203125
22.78,1710999850218750
27.85,1710999850234375
30.85,1710999850250000
31.91,1710999850265625
31.29,1710999850281250
29.47,1710999850296875
27.17,1710999850312500
25.22,1710999850328125
24.29,1710999850343750
24.67,1710999850359375
26.14,1710999850375000
28.13,1710999850390625
29.94,1710999850406250
31.09,1710999850421875
31.48,1710999850437500
31.31,1710999850453125
30.92,1710999850468750
30.57,1710999850484375
30.29,1710999850500000
29.86,1710999850515625
28.98,1710999850531250
27.39,1710999850546875
24.94,1710999850562500
21.69,1710999850578125
17.84,1710999850593750
13.7,1710999850609375
9.59,1710999850625000
5.77,1710999850640625
2.31,1710999850656250
-0.9,1710999850671875
-4.1,1710999850687500
-7.47,1710999850703125
-11.01,1710999850718750
-14.5,1710999850734375
-17.53,1710999850750000
-19.8,1710999850765625
-21.18,1710999850781250
-21.94,1710999850796875
-22.56,1710999850812500
-23.69,1710999850828125
-25.88,1710999850843750
-29.42,1710999850859375
-34.22,1710999850875000
-39.79,1710999850890625
-45.28,1710999850906250
-49.6,1710999850921875
-51.72,1710999850937500
-50.83,1710999850953125
-46.63,1710999850968750
-39.39,1710999850984375
-29.95,1710999851000000
-19.45,1710999851015625
-9.14,1710999851031250
-0.04,1710999851046875
7.19,1710999851062500
12.25,1710999851078125
15.25,1710999851093750
16.49,1710999851109375
16.46,1710999851125000
15.68,1710999851140625
14.7,1710999851156250
14.02,1710999851171875
14.01,1710999851187500
14.86,1710999851203125
16.56,1710999851218750
18.85,1710999851234375
21.36,1710999851250000
23.65,1710999851265625
25.35,1710999851281250
26.22,1710999851296875
26.19,1710999851312500
25.31,1710999851328125
23.73,1710999851343750
21.56,1710999851359375
18.93,1710999851375000
15.91,1710999851390625
12.58,1710999851406250
9.06,1710999851421875
5.53,1710999851437500
2.16,1710999851453125
-0.95,1710999851468750
-3.88,1710999851484375
-6.86,1710999851500000
-10.14,1710999851515625
-13.78,1710999851531250
-17.64,1710999851546875
-21.35,1710999851562500
-24.47,1710999851578125
-26.78,1710999851593750
-28.31,1710999851609375
-29.38,1710999851625000
-30.49,1710999851640625
-32.14,1710999851656250
-34.68,1710999851671875
-38.19,1710999851687500
-42.48,1710999851703125
-46.98,1710999851718750
-50.84,1710999851734375
-53.01,1710999851750000
-52.52,1710999851765625
-48.75,1710999851781250
-41.7,1710999851796875
-32.06,1710999851812500
-21.03,1710999851828125
-9.96,1710999851843750
0.01,1710999851859375
8.22,1710999851875000
14.56,1710999851890625
19.27,1710999851906250
22.74,1710999851921875
25.25,1710999851937500
26.95,1710999851953125
27.9,1710999851968750
28.2,1710999851984375
28.13,1710999852000000
28.06,1710999852015625
28.37,1710999852031250
29.23,1710999852046875
30.55,1710999852062500
31.99,1710999852078125
33.16,1710999852093750
33.76,1710999852109375
33.71,1710999852125000
33.09,1710999852140625
32.07,1710999852156250
30.79,1710999852171875
29.33,1710999852187500
27.69,1710999852203125
25.84,1710999852218750
23.77,1710999852234375
21.5,1710999852250000
19.09,1710999852265625
16.67,1710999852281250
14.38,1710999852296875
12.34,1710999852312500
10.6,1710999852328125
9.12,1710999852343750
7.69,1710999852359375
6.0,1710999852375000
3.72,1710999852390625
0.65,1710999852406250
-3.24,1710999852421875
-7.78,1710999852437500
-12.65,1710999852453125
-17.57,1710999852468750
-22.34,1710999852484375
-26.92,1710999852500000
-31.43,1710999852515625
-36.08,1710999852531250
-41.07,1710999852546875
-46.45,1710999852562500
-52.02,1710999852578125
-57.27,1710999852593750
-61.31,1710999852609375
-63.17,1710999852625000
-61.99,1710999852640625
-57.35,1710999852656250
-49.5,1710999852671875
-39.34,1710999852687500
-28.18,1710999852703125
-17.34,1710999852718750
-7.84,1710999852734375
-0.18,1710999852750000
5.58,1710999852765625
9.67,1710999852781250
12.4,1710999852796875
14.0,1710999852812500
14.66,1710999852828125
14.65,1710999852843750
14.29,1710999852859375
14.03,1710999852875000
14.23,1710999852890625
15.13,1710999852906250
16.64,1710999852921875
18.52,1710999852937500
20.41,1710999852953125
21.98,1710999852968750
23.03,1710999852984375
23.46,1710999853000000
23.19,1710999853015625
22.13,1710999853031250
20.17,1710999853046875
17.18,1710999853062500
13.14,1710999853078125
8.17,1710999853093750
2.54,1710999853109375
-3.39,1710999853125000
-9.27,1710999853140625
-14.74,1710999853156250
-19.52,1710999853171875
-23.28,1710999853187500
-25.72,1710999853203125
-26.57,1710999853218750
-25.72,1710999853234375
-23.28,1710999853250000
-19.6,1710999853265625
-15.21,1710999853281250
-10.63,1710999853296875
-6.22,1710999853312500
-2.18,1710999853328125
1.41,1710999853343750
4.43,1710999853359375
6.66,1710999853375000
7.84,1710999853390625
7.77,1710999853406250
6.37,1710999853421875
3.7,1710999853437500
-0.14,1710999853453125
-5.03,1710999853468750
-10.81,1710999853484375
-17.07,1710999853500000
-23.01,1710999853515625
-27.49,1710999853531250
-29.28,1710999853546875
-27.5,1710999853562500
-21.98,1710999853578125
-13.43,1710999853593750
-3.24,1710999853609375
6.98,1710999853625000
15.89,1710999853640625
22.75,1710999853656250
27.5,1710999853671875
30.44,1710999853687500
32.0,1710999853703125
32.47,1710999853718750
32.01,1710999853734375
30.77,1710999853750000
29.08,1710999853765625
27.44,1710999853781250
26.4,1710999853796875
26.32,1710999853812500
27.15,1710999853828125
28.49,1710999853843750
29.74,1710999853859375
30.43,1710999853875000
30.38,1710999853890625
29.76,1710999853906250
28.87,1710999853921875
27.98,1710999853937500
27.17,1710999853953125
26.33,1710999853968750
25.22,1710999853984375
23.62,1710999854000000
21.36,1710999854015625
18.4,1710999854031250
14.87,1710999854046875
11.01,1710999854062500
7.19,1710999854078125
3.77,1710999854093750
0.96,1710999854109375
-1.27,1710999854125000
-3.22,1710999854140625
-5.34,1710999854156250
-8.01,1710999854171875
-11.38,1710999854187500
-15.29,1710999854203125
-19.36,1710999854218750
-23.18,1710999854234375
-26.52,1710999854250000
-29.36,1710999854265625
-31.93,1710999854281250
-34.58,1710999854296875
-37.61,1710999854312500
-41.07,1710999854328125
-44.54,1710999854343750
-47.25,1710999854359375
-48.26,1710999854375000
-46.79,1710999854390625
-42.43,1710999854406250
-35.35,1710999854421875
-26.33,1710999854437500
-16.55,1710999854453125
-7.3,1710999854468750
0.41,1710999854484375
6.02,1710999854500000
9.39,1710999854515625
10.62,1710999854531250
10.02,1710999854546875
7.86,1710999854562500
4.29,1710999854578125
-0.54,1710999854593750
-6.33,1710999854609375
-12.57,1710999854625000
-18.69,1710999854640625
-24.38,1710999854656250
-29.63,1710999854671875
-34.01,1710999854687500
-36.94,1710999854703125
-37.93,1710999854718750
-37.02,1710999854734375
-34.9,1710999854750000
-32.79,1710999854765625
-32.12,1710999854781250
-33.98,1710999854796875
-38.71,1710999854812500
-44.66,1710999854828125
-49.52,1710999854843750
-51.8,1710999854859375
-51.73,1710999854875000
-50.98,1710999854890625
-51.48,1710999854906250
-54.62,1710999854921875
-60.99,1710999854937500
-70.67,1710999854953125
-81.7,1710999854968750
-91.65,1710999854984375
-98.55,1710999855000000
-101.36,1710999855015625
-99.37,1710999855031250
-91.49,1710999855046875
-76.65,1710999855062500
-54.6,1710999855078125
-26.5,1710999855093750
7.78,1710999855109375
48.39,1710999855125000
94.83,1710999855140625
145.38,1710999855156250
197.94,1710999855171875
251.1,1710999855187500
304.25,1710999855203125
357.15,1710999855218750
394.22,1710999855234375
400.83,1710999855250000
370.9,1710999855265625
312.17,1710999855281250
239.96,1710999855296875
167.82,1710999855312500
103.6,1710999855328125
50.28,1710999855343750
7.97,1710999855359375
-24.83,1710999855375000
-47.94,1710999855390625
-60.85,1710999855406250
-63.87,1710999855421875
-59.13,1710999855437500
-49.83,1710999855453125
-38.71,1710999855468750
-29.05,1710999855484375
-23.65,1710999855500000
-24.77,1710999855515625
-31.94,1710999855531250
-43.11,1710999855546875
-55.59,1710999855562500
-67.09,1710999855578125
-75.76,1710999855593750
-80.15,1710999855609375
-79.81,1710999855625000
-75.73,1710999855640625
-70.32,1710999855656250
-65.51,1710999855671875
-62.46,1710999855687500
-61.07,1710999855703125
-60.97,1710999855718750
-60.92,1710999855734375
-59.2,1710999855750000
-54.6,1710999855765625
-47.29,1710999855781250
-38.95,1710999855796875
-31.31,1710999855812500
-25.51,1710999855828125
-21.71,1710999855843750
-19.46,1710999855859375
-18.1,1710999855875000
-17.08,1710999855890625
-16.01,1710999855906250
-14.27,1710999855921875
-10.73,1710999855937500
-3.77,1710999855953125
7.91,1710999855968750
24.35,1710999855984375
43.96,1710999856000000
64.14,1710999856015625
82.25,1710999856031250
96.42,1710999856046875
105.87,1710999856062500
110.74,1710999856078125
111.61,1710999856093750
109.16,1710999856109375
104.08,1710999856125000
97.06,1710999856140625
88.95,1710999856156250
80.5,1710999856171875
72.25,1710999856187500
64.36,1710999856203125
56.67,1710999856218750
48.94,1710999856234375
41.17,1710999856250000
33.71,1710999856265625
27.14,1710999856281250
22.04,1710999856296875
18.59,1710999856312500
16.54,1710999856328125
15.48,1710999856343750
15.41,1710999856359375
17.21,1710999856375000
22.66,1710999856390625
33.54,1710999856406250
50.42,1710999856421875
71.77,1710999856437500
93.98,1710999856453125
112.46,1710999856468750
123.14,1710999856484375
123.77,1710999856500000
114.45,1710999856515625
97.09,1710999856531250
74.4,1710999856546875
48.8,1710999856562500
22.03,1710999856578125
-4.68,1710999856593750
-30.25,1710999856609375
-53.52,1710999856625000
-73.48,1710999856640625
-89.35,1710999856656250
-100.74,1710999856671875
-107.8,1710999856687500
-111.16,1710999856703125
-111.7,1710999856718750
-110.39,1710999856734375
-108.05,1710999856750000
-105.32,1710999856765625
-103.16,1710999856781250
-101.93,1710999856796875
-101.24,1710999856812500
-100.12,1710999856828125
-97.75,1710999856843750
-93.97,1710999856859375
-89.4,1710999856875000
-85.2,1710999856890625
-82.54,1710999856906250
-83.33,1710999856921875
-88.17,1710999856937500
-96.21,1710999856953125
-105.64,1710999856968750
-114.91,1710999856984375
-123.16,1710999857000000
-130.01,1710999857015625
-135.18,1710999857031250
-138.57,1710999857046875
-142.2,1710999857062500
-147.83,1710999857078125
-156.41,1710999857093750
-168.06,1710999857109375
-182.47,1710999857125000
-198.86,1710999857140625
-215.37,1710999857156250
-229.0,1710999857171875
-236.46,1710999857187500
-237.74,1710999857203125
-233.5,1710999857218750
-224.78,1710999857234375
-212.58,1710999857250000
-198.15,1710999857265625
-182.58,1710999857281250
-165.78,1710999857296875
-146.57,1710999857312500
-109.44,1710999857328125
-50.94,1710999857343750
19.4,1710999857359375
85.59,1710999857375000
136.65,1710999857390625
170.21,1710999857406250
188.32,1710999857421875
192.95,1710999857437500
184.41,1710999857453125
162.61,1710999857468750
127.86,1710999857484375
85.78,1710999857500000
44.52,1710999857515625
13.34,1710999857531250
-1.77,1710999857546875
-0.8,1710999857562500
11.22,1710999857578125
27.31,1710999857593750
41.89,1710999857609375
51.77,1710999857625000
57.55,1710999857640625
62.22,1710999857656250
67.5,1710999857671875
73.85,1710999857687500
80.15,1710999857703125
85.02,1710999857718750
87.96,1710999857734375
89.52,1710999857750000
91.02,1710999857765625
93.57,1710999857781250
97.32,1710999857796875
101.29,1710999857812500
103.99,1710999857828125
104.24,1710999857843750
102.12,1710999857859375
99.18,1710999857875000
97.89,1710999857890625
101.82,1710999857906250
113.23,1710999857921875
131.85,1710999857937500
154.91,1710999857953125
178.58,1710999857968750
199.66,1710999857984375
216.9,1710999858000000
231.62,1710999858015625
235.12,1710999858031250
223.75,1710999858046875
200.56,1710999858062500
173.63,1710999858078125
149.65,1710999858093750
129.6,1710999858109375
109.63,1710999858125000
84.67,1710999858140625
51.56,1710999858156250
10.38,1710999858171875
-34.42,1710999858187500
-77.38,1710999858203125
-113.93,1710999858218750
-140.97,1710999858234375
-156.2,1710999858250000
-157.86,1710999858265625
-145.63,1710999858281250
-122.24,1710999858296875
-91.06,1710999858312500
-56.02,1710999858328125
-22.05,1710999858343750
5.96,1710999858359375
24.49,1710999858375000
32.27,1710999858390625
30.22,1710999858406250
20.33,1710999858421875
4.92,1710999858437500
-13.5,1710999858453125
-31.84,1710999858468750
-47.37,1710999858484375
-58.36,1710999858500000
-64.3,1710999858515625
-65.55,1710999858531250
-61.79,1710999858546875
-53.4,1710999858562500
-42.43,1710999858578125
-31.85,1710999858593750
-23.95,1710999858609375
-19.71,1710999858625000
-18.71,1710999858640625
-19.66,1710999858656250
-21.22,1710999858671875
-22.66,1710999858687500
-23.97,1710999858703125
-24.97,1710999858718750
-24.33,1710999858734375
-19.5,1710999858750000
-8.24,1710999858765625
9.6,1710999858781250
30.87,1710999858796875
49.67,1710999858812500
59.75,1710999858828125
57.36,1710999858843750
43.2,1710999858859375
22.34,1710999858875000
1.63,1710999858890625
-13.39,1710999858906250
-20.57,1710999858921875
-21.34,1710999858937500
-19.09,1710999858953125
-16.95,1710999858968750
-16.32,1710999858984375
-16.69,1710999859000000
-16.51,1710999859015625
-14.66,1710999859031250
-11.27,1710999859046875
-7.57,1710999859062500
-5.05,1710999859078125
-4.42,1710999859093750
-5.23,1710999859109375
-6.14,1710999859125000
-5.74,1710999859140625
-3.26,1710999859156250
1.03,1710999859171875
5.96,1710999859187500
10.18,1710999859203125
12.71,1710999859218750
13.27,1710999859234375
12.48,1710999859250000
11.38,1710999859265625
11.01,1710999859281250
11.9,1710999859296875
13.88,1710999859312500
16.06,1710999859328125
17.17,1710999859343750
16.29,1710999859359375
12.84,1710999859375000
6.92,1710999859390625
-0.71,1710999859406250
-8.93,1710999859421875
-16.63,1710999859437500
-23.09,1710999859453125
-28.44,1710999859468750
-33.14,1710999859484375
-37.96,1710999859500000
-43.61,1710999859515625
-50.28,1710999859531250
-57.43,1710999859546875
-63.98,1710999859562500
-68.73,1710999859578125
-70.99,1710999859593750
-71.04,1710999859609375
-69.66,1710999859625000
-68.12,1710999859640625
-67.69,1710999859656250
-69.29,1710999859671875
-73.45,1710999859687500
-80.31,1710999859703125
-89.34,1710999859718750
-97.6,1710999859734375
-103.0,1710999859750000
-101.72,1710999859765625
-90.37,1710999859781250
-68.02,1710999859796875
-37.29,1710999859812500
-3.76,1710999859828125
26.13,1710999859843750
47.7,1710999859859375
59.97,1710999859875000
64.84,1710999859890625
65.87,1710999859906250
66.26,1710999859921875
67.46,1710999859937500
69.34,1710999859953125
71.15,1710999859968750
72.56,1710999859984375
74.12,1710999860000000
76.84,1710999860015625
81.09,1710999860031250
86.63,1710999860046875
92.32,1710999860062500
96.51,1710999860078125
97.72,1710999860093750
95.4,1710999860109375
90.05,1710999860125000
82.99,1710999860140625
75.62,1710999860156250
68.48,1710999860171875
61.47,1710999860187500
53.81,1710999860203125
44.55,1710999860218750
33.29,1710999860234375
20.46,1710999860250000
7.28,1710999860265625
-4.7,1710999860281250
-14.19,1710999860296875
-20.8,1710999860312500
-24.69,1710999860328125
-26.48,1710999860343750
-26.92,1710999860359375
-26.51,1710999860375000
-25.48,1710999860390625
-23.83,1710999860406250
-21.61,1710999860421875
-17.72,1710999860437500
-12.32,1710999860453125
-5.97,1710999860468750
0.71,1710999860484375
7.18,1710999860500000
13.12,1710999860515625
18.23,1710999860531250
22.03,1710999860546875
23.86,1710999860562500
23.16,1710999860578125
19.59,1710999860593750
13.56,1710999860609375
6.18,1710999860625000
-1.32,1710999860640625
-7.96,1710999860656250
-13.35,1710999860671875
-17.62,1710999860687500
-21.09,1710999860703125
-23.98,1710999860718750
-26.41,1710999860734375
-28.19,1710999860750000
-29.02,1710999860765625
-28.76,1710999860781250
-27.6,1710999860796875
-26.05,1710999860812500
-24.82,1710999860828125
-24.57,1710999860843750
-25.66,1710999860859375
-28.12,1710999860875000
-31.52,1710999860890625
-35.26,1710999860906250
-38.81,1710999860921875
-41.74,1710999860937500
-43.69,1710999860953125
-44.28,1710999860968750
-43.25,1710999860984375
-40.7,1710999861000000
-37.41,1710999861015625
-34.67,1710999861031250
-33.86,1710999861046875
-35.85,1710999861062500
-40.52,1710999861078125
-46.8,1710999861093750
-53.17,1710999861109375
-58.28,1710999861125000
-61.49,1710999861140625
-62.91,1710999861156250
-62.92,1710999861171875
-61.68,1710999861187500
-58.9,1710999861203125
-53.9,1710999861218750
-46.11,1710999861234375
-35.34,1710999861250000
-21.97,1710999861265625
-6.8,1710999861281250
9.09,1710999861296875
24.67,1710999861312500
39.08,1710999861328125
51.81,1710999861343750
62.75,1710999861359375
72.24,1710999861375000
81.02,1710999861390625
90.05,1710999861406250
100.28,1710999861421875
112.21,1710999861437500
125.6,1710999861453125
139.35,1710999861468750
151.74,1710999861484375
161.01,1710999861500000
166.0,1710999861515625
166.59,1710999861531250
163.78,1710999861546875
159.34,1710999861562500
155.17,1710999861578125
152.55,1710999861593750
151.83,1710999861609375
152.33,1710999861625000
152.74,1710999861640625
151.62,1710999861656250
147.93,1710999861671875
141.33,1710999861687500
132.23,1710999861703125
121.75,1710999861718750
111.29,1710999861734375
101.93,1710999861750000
93.71,1710999861765625
85.22,1710999861781250
73.58,1710999861796875
55.23,1710999861812500
27.4,1710999861828125
-10.32,1710999861843750
-55.1,1710999861859375
-101.05,1710999861875000
-140.59,1710999861890625
-166.63,1710999861906250
-174.61,1710999861921875
-163.9,1710999861937500
-137.87,1710999861953125
-102.82,1710999861968750
-65.91,1710999861984375
-33.16,1710999862000000
-8.03,1710999862015625
8.97,1710999862031250
19.31,1710999862046875
25.11,1710999862062500
27.89,1710999862078125
28.2,1710999862093750
25.98,1710999862109375
21.54,1710999862125000
15.96,1710999862140625
10.89,1710999862156250
7.68,1710999862171875
6.43,1710999862187500
5.78,1710999862203125
3.46,1710999862218750
-2.53,1710999862234375
-12.95,1710999862250000
-27.02,1710999862265625
-42.87,1710999862281250
-58.48,1710999862296875
-72.46,1710999862312500
-84.42,1710999862328125
-94.77,1710999862343750
-104.24,1710999862359375
-113.28,1710999862375000
-121.8,1710999862390625
-129.03,1710999862406250
-133.86,1710999862421875
-135.32,1710999862437500
-133.15,1710999862453125
-128.27,1710999862468750
-122.68,1710999862484375
-118.95,1710999862500000
-119.06,1710999862515625
-123.3,1710999862531250
-129.74,1710999862546875
-134.75,1710999862562500
-134.4,1710999862578125
-126.0,1710999862593750
-109.15,1710999862609375
-85.56,1710999862625000
-57.93,1710999862640625
-28.85,1710999862656250
0.06,1710999862671875
27.95,1710999862687500
54.16,1710999862703125
77.73,1710999862718750
97.38,1710999862734375
112.07,1710999862750000
121.55,1710999862765625
126.59,1710999862781250
128.55,1710999862796875
128.8,1710999862812500
128.15,1710999862828125
126.76,1710999862843750
124.34,1710999862859375
120.43,1710999862875000
114.65,1710999862890625
106.81,1710999862906250
96.93,1710999862921875
85.26,1710999862937500
72.12,1710999862953125
57.78,1710999862968750
42.26,1710999862984375
25.32,1710999863000000
6.6,1710999863015625
-14.14,1710999863031250
-36.73,1710999863046875
-60.51,1710999863062500
-84.49,1710999863078125
-107.5,1710999863093750
-128.48,1710999863109375
-146.48,1710999863125000
-160.75,1710999863140625
-170.75,1710999863156250
-176.21,1710999863171875
-177.25,1710999863187500
-174.37,1710999863203125
-168.22,1710999863218750
-159.45,1710999863234375
-148.53,1710999863250000
-135.85,1710999863265625
-121.87,1710999863281250
-107.39,1710999863296875
-93.6,1710999863312500
-81.82,1710999863328125
-73.19,1710999863343750
-68.07,1710999863359375
-65.78,1710999863375000
-64.55,1710999863390625
-62.0,1710999863406250
-55.76,1710999863421875
-44.23,1710999863437500
-27.1,1710999863453125
-5.49,1710999863468750
18.41,1710999863484375
41.88,1710999863500000
62.39,1710999863515625
77.99,1710999863531250
87.58,1710999863546875
90.88,1710999863562500
88.33,1710999863578125
80.95,1710999863593750
70.14,1710999863609375
57.59,1710999863625000
44.98,1710999863640625
33.68,1710999863656250
24.58,1710999863671875
17.91,1710999863687500
13.39,1710999863703125
10.35,1710999863718750
8.04,1710999863734375
5.84,1710999863750000
3.32,1710999863765625
0.27,1710999863781250
-3.27,1710999863796875
-7.09,1710999863812500
-10.76,1710999863828125
-13.73,1710999863843750
-15.59,1710999863859375
-16.28,1710999863875000
-16.2,1710999863890625
-16.14,1710999863906250
-16.96,1710999863921875
-19.24,1710999863937500
-23.01,1710999863953125
-27.82,1710999863968750
-32.91,1710999863984375
-37.54,1710999864000000
-41.07,1710999864015625
-43.03,1710999864031250
-42.96,1710999864046875
