phoneTimestamp,sensorTimestamp,ecg
1712851722745,599616088602060006,14568
1712851722753,599616088609725110,14490
1712851722761,599616088617390214,14432
1712851722768,599616088625055318,14407
1712851722776,599616088632720422,14279
1712851722784,599616088640385526,14171
1712851722791,599616088648050630,14196
1712851722799,599616088655715734,14145
1712851722807,599616088663380838,13969
1712851722814,599616088671045942,13820
1712851722822,599616088678711046,13652
1712851722830,599616088686376150,13482
1712851722837,599616088694041254,13395
1712851722845,599616088701706358,13347
1712851722853,599616088709371462,13331
1712851722860,599616088717036566,13221
1712851722868,599616088724701670,12977
1712851722876,599616088732366774,12844
1712851722883,599616088740031878,12812
1712851722891,599616088747696982,12741
1712851722899,599616088755362086,12725
1712851722905,599616088763027190,12667
1712851722913,599616088770692294,12422
1712851722921,599616088778357398,12247
1712851722929,599616088786022502,12218
1712851722937,599616088793687606,12133
1712851722945,599616088801352710,12071
1712851722952,599616088809017814,12087
1712851722960,599616088816682918,11922
1712851722968,599616088824348022,11607
1712851722975,599616088832013126,11515
1712851722983,599616088839678230,11502
1712851722991,599616088847343334,11311
1712851722998,599616088855008438,11134
1712851723006,599616088862673542,10974
1712851723014,599616088870338646,10758
1712851723021,599616088878003750,10636
1712851723029,599616088885668854,10579
1712851723037,599616088893333958,10508
1712851723044,599616088900999062,10430
1712851723052,599616088908664166,10281
1712851723060,599616088916329270,10081
1712851723067,599616088923994374,9966
1712851723075,599616088931659478,9904
1712851723083,599616088939324582,9831
1712851723089,599616088946989686,9753
1712851723097,599616088954654790,9624
1712851723105,599616088962319894,9452
1712851723113,599616088969984998,9319
1712851723121,599616088977650102,9250
1712851723129,599616088985315206,9202
1712851723136,599616088992980310,9159
1712851723144,599616089000645414,9035
1712851723152,599616089008310518,8830
1712851723159,599616089015975622,8686
1712851723167,599616089023640726,8546
1712851723175,599616089031305830,8397
1712851723182,599616089038970934,8316
1712851723190,599616089046636038,8101
1712851723198,599616089054301142,7791
1712851723205,599616089061966246,7658
1712851723213,599616089069631350,7534
1712851723221,599616089077296454,7385
1712851723228,599616089084961558,7325
1712851723236,599616089092626662,7256
1712851723244,599616089100291766,7164
1712851723251,599616089107956870,7066
1712851723259,599616089115621974,6955
1712851723267,599616089123287078,6884
1712851723273,599616089130952182,6845
1712851723281,599616089138617286,6926
1712851723289,599616089146282390,7208
1712851723297,599616089153947494,7327
1712851723305,599616089161552430,6818
1712851723313,599616089169218370,6221
1712851723320,599616089176884310,6269
1712851723328,599616089184550250,6409
1712851723336,599616089192216190,6244
1712851723343,599616089199882130,6161
1712851723351,599616089207548070,6148
1712851723359,599616089215214010,6060
1712851723366,599616089222879950,5989
1712851723374,599616089230545890,5918
1712851723382,599616089238211830,5879
1712851723389,599616089245877770,5861
1712851723397,599616089253543710,5695
1712851723405,599616089261209650,5507
1712851723412,599616089268875590,5464
1712851723420,599616089276541530,5418
1712851723428,599616089284207470,5340
1712851723435,599616089291873410,5326
1712851723443,599616089299539350,5342
1712851723451,599616089307205290,5289
1712851723457,599616089314871230,5136
1712851723465,599616089322537170,5018
1712851723473,599616089330203110,5021
1712851723481,599616089337869050,5032
1712851723489,599616089345534990,4993
1712851723497,599616089353200930,4934
1712851723504,599616089360866870,4879
1712851723512,599616089368532810,4819
1712851723520,599616089376198750,4773
1712851723527,599616089383864690,4752
1712851723535,599616089391530630,4711
1712851723543,599616089399196570,4624
1712851723550,599616089406862510,4507
1712851723558,599616089414528450,4394
1712851723566,599616089422194390,4307
1712851723573,599616089429860330,4238
1712851723581,599616089437526270,4179
1712851723589,599616089445192210,4105
1712851723596,599616089452858150,3995
1712851723604,599616089460524090,3896
1712851723612,599616089468190030,3860
1712851723619,599616089475855970,3843
1712851723627,599616089483521910,3818
1712851723635,599616089491187850,3782
1712851723641,599616089498853790,3690
1712851723649,599616089506519730,3603
1712851723657,599616089514185670,3582
1712851723665,599616089521851610,3570
1712851723673,599616089529517550,3536
1712851723681,599616089537183490,3527
1712851723688,599616089544849430,3476
1712851723696,599616089552515370,3256
1712851723704,599616089560181310,3027
1712851723711,599616089567847250,2997
1712851723719,599616089575513190,3022
1712851723727,599616089583179130,2978
1712851723734,599616089590845070,2914
1712851723742,599616089598511010,2852
1712851723750,599616089606176950,2820
1712851723757,599616089613842890,2822
1712851723765,599616089621508830,2806
1712851723773,599616089629174770,2735
1712851723780,599616089636840710,2620
1712851723788,599616089644506650,2522
1712851723796,599616089652172590,2489
1712851723803,599616089659838530,2483
1712851723811,599616089667504470,2464
1712851723819,599616089675170410,2446
1712851723825,599616089682836350,2407
1712851723833,599616089690502290,2331
1712851723841,599616089698168230,2283
1712851723849,599616089705834170,2281
1712851723857,599616089713500110,2271
1712851723865,599616089721166082,2255
1712851723872,599616089728832022,2226
1712851723880,599616089736497962,2161
1712851723888,599616089744163902,2111
1712851723895,599616089751829842,2104
1712851723903,599616089759495782,2102
1712851723911,599616089767161722,2088
1712851723918,599616089774827662,2072
1712851723926,599616089782493602,1996
1712851723934,599616089790159542,1824
1712851723941,599616089797825482,1663
1712851723949,599616089805491422,1558
1712851723957,599616089813157362,1468
1712851723964,599616089820823302,1413
1712851723972,599616089828489242,1388
1712851723980,599616089836155182,1354
1712851723987,599616089843821122,1331
1712851723995,599616089851487062,1344
1712851724003,599616089859153002,1358
1712851724009,599616089866818942,1340
1712851724017,599616089874484882,1319
1712851724025,599616089882150822,1310
1712851724033,599616089889816762,1273
1712851724041,599616089897482702,1280
1712851724049,599616089905148642,1432
1712851724056,599616089912814582,1707
1712851724064,599616089920480522,1930
1712851724072,599616089928146462,1695
1712851724079,599616089935812402,1131
1712851724087,599616089943478342,1053
1712851724095,599616089951144282,1324
1712851724102,599616089958810222,1278
1712851724110,599616089966476162,1175
1712851724118,599616089974142102,1250
1712851724125,599616089981808042,1253
1712851724133,599616089989473982,1197
1712851724141,599616089997139922,1225
1712851724148,599616090004805862,1241
1712851724156,599616090012471802,1216
1712851724164,599616090020137742,1227
1712851724171,599616090027803682,1225
1712851724179,599616090035469622,1184
1712851724187,599616090043135562,1126
1712851724193,599616090050801502,984
1712851724201,599616090058467442,844
1712851724209,599616090066133382,869
1712851724217,599616090073799322,924
1712851724225,599616090081465262,901
1712851724233,599616090089131202,915
1712851724240,599616090096797142,959
1712851724248,599616090104463082,979
1712851724256,599616090112129022,1023
1712851724263,599616090119794962,1080
1712851724271,599616090127460902,1087
1712851724279,599616090135126842,1076
1712851724286,599616090142792782,1080
1712851724294,599616090150458722,1085
1712851724302,599616090158124662,1092
1712851724309,599616090165790602,1103
1712851724317,599616090173456542,1080
1712851724325,599616090181122482,1016
1712851724332,599616090188788422,950
1712851724340,599616090196454362,906
1712851724348,599616090204120302,892
1712851724355,599616090211786242,890
1712851724363,599616090219452182,874
1712851724371,599616090227118122,839
1712851724377,599616090234784062,810
1712851724385,599616090242450002,810
1712851724393,599616090250115942,835
1712851724401,599616090257781882,856
1712851724409,599616090265447822,853
1712851724417,599616090273113762,752
1712851724424,599616090280779734,585
1712851724432,599616090288445674,500
1712851724440,599616090296111614,470
1712851724447,599616090303777554,442
1712851724455,599616090311443494,447
1712851724463,599616090319109434,424
1712851724470,599616090326775374,337
1712851724478,599616090334441314,309
1712851724486,599616090342107254,355
1712851724493,599616090349773194,378
1712851724501,599616090357439134,378
1712851724509,599616090365105074,335
1712851724516,599616090372771014,197
1712851724524,599616090380436954,105
1712851724532,599616090388102894,142
1712851724539,599616090395768834,174
1712851724547,599616090403434774,165
1712851724555,599616090411100714,162
1712851724561,599616090418766654,128
1712851724569,599616090426432594,87
1712851724577,599616090434098534,107
1712851724585,599616090441764474,142
1712851724593,599616090449430414,149
1712851724601,599616090457096354,137
1712851724608,599616090464762294,98
1712851724616,599616090472428234,64
1712851724624,599616090480094174,87
1712851724631,599616090487760114,126
1712851724639,599616090495426054,146
1712851724647,599616090503091994,158
1712851724654,599616090510757934,144
1712851724662,599616090518423874,112
1712851724670,599616090526089814,89
1712851724677,599616090533755754,29
1712851724685,599616090541421694,-73
1712851724693,599616090549087634,-151
1712851724700,599616090556753574,-261
1712851724708,599616090564419514,-390
1712851724716,599616090572085454,-390
1712851724723,599616090579751394,-312
1712851724731,599616090587417334,-293
1712851724739,599616090595083274,-296
1712851724745,599616090602749214,-286
1712851724753,599616090610415154,-302
1712851724761,599616090618081094,-312
1712851724769,599616090625747034,-275
1712851724777,599616090633412974,-247
1712851724785,599616090641078914,-252
1712851724792,599616090648744854,-247
1712851724800,599616090656410794,-268
1712851724808,599616090664076734,-348
1712851724815,599616090671742674,-378
1712851724823,599616090679408614,-321
1712851724831,599616090687074554,-293
1712851724838,599616090694740494,-227
1712851724846,599616090702406434,32
1712851724854,599616090710072374,346
1712851724861,599616090717738314,323
1712851724869,599616090725404254,-144
1712851724877,599616090733070194,-394
1712851724884,599616090740736134,-162
1712851724892,599616090748402074,-57
1712851724900,599616090756068014,-149
1712851724907,599616090763733954,-119
1712851724915,599616090771399894,-57
1712851724923,599616090779065834,-87
1712851724929,599616090786731774,-146
1712851724937,599616090794397714,-151
1712851724945,599616090802063654,-112
1712851724953,599616090809729594,-110
1712851724961,599616090817395534,-121
1712851724969,599616090825061474,-89
1712851724976,599616090832727414,-57
1712851724984,599616090840393386,-34
1712851724991,599616090848059326,-2
1712851724999,599616090855725266,-34
1712851725007,599616090863391206,-100
1712851725014,599616090871057146,-75
1712851725022,599616090878723086,-18
1712851725030,599616090886389026,2
1712851725037,599616090894054966,55
1712851725045,599616090901720906,82
1712851725053,599616090909386846,25
1712851725060,599616090917052786,9
1712851725068,599616090924718726,68
1712851725076,599616090932384666,103
1712851725083,599616090940050606,128
1712851725091,599616090947716546,160
1712851725099,599616090955382486,158
1712851725105,599616090963048426,128
1712851725113,599616090970714366,103
1712851725121,599616090978380306,84
1712851725129,599616090986046246,59
1712851725137,599616090993712186,18
1712851725145,599616091001378126,-68
1712851725152,599616091009044066,-174
1712851725160,599616091016710006,-206
1712851725168,599616091024375946,-206
1712851725175,599616091032041886,-250
1712851725183,599616091039707826,-266
1712851725191,599616091047373766,-224
1712851725198,599616091055039706,-220
1712851725206,599616091062705646,-277
1712851725214,599616091070371586,-344
1712851725221,599616091078037526,-358
1712851725229,599616091085703466,-286
1712851725237,599616091093369406,-229
1712851725244,599616091101035346,-238
1712851725252,599616091108701286,-245
1712851725260,599616091116367226,-199
1712851725267,599616091124033166,-156
1712851725275,599616091131699106,-167
1712851725283,599616091139365046,-190
1712851725289,599616091147030986,-190
1712851725297,599616091154696926,-206
1712851725305,599616091162362866,-211
1712851725313,599616091170028806,-185
1712851725321,599616091177694746,-158
1712851725329,599616091185360686,-130
1712851725336,599616091193026626,-137
1712851725344,599616091200692566,-222
1712851725352,599616091208358506,-261
1712851725359,599616091216024446,-197
1712851725367,599616091223690386,-142
1712851725375,599616091231356326,-114
1712851725382,599616091239022266,-84
1712851725390,599616091246688206,-98
1712851725398,599616091254354146,-114
1712851725405,599616091262020086,-66
1712851725413,599616091269686026,-29
1712851725421,599616091277351966,-71
1712851725428,599616091285017906,-130
1712851725436,599616091292683846,-179
1712851725444,599616091300349786,-220
1712851725451,599616091308015726,-224
1712851725459,599616091315681666,-213
1712851725467,599616091323347606,-213
1712851725473,599616091331013546,-208
1712851725481,599616091338679486,-231
1712851725489,599616091346345426,-284
1712851725497,599616091354011366,-291
1712851725505,599616091361677306,-243
1712851725513,599616091369343246,-199
1712851725520,599616091377009186,-179
1712851725528,599616091384675126,-190
1712851725536,599616091392341066,-254
1712851725543,599616091400007038,-309
1712851725551,599616091407672978,-268
1712851725559,599616091415338918,-197
1712851725566,599616091423004858,-195
1712851725574,599616091430670798,-213
1712851725582,599616091438336738,-139
1712851725589,599616091446002678,91
1712851725597,599616091453668618,397
1712851725605,599616091461334558,300
1712851725612,599616091469000498,-284
1712851725620,599616091476666438,-442
1712851725628,599616091484332378,-114
1712851725635,599616091491998318,-94
1712851725643,599616091499664258,-206
1712851725651,599616091507330198,-84
1712851725657,599616091514996138,-27
1712851725665,599616091522662078,-133
1712851725673,599616091530328018,-188
1712851725681,599616091537993958,-204
1712851725689,599616091545659898,-259
1712851725697,599616091553325838,-229
1712851725704,599616091560991778,-144
1712851725712,599616091568657718,-149
1712851725720,599616091576323658,-227
1712851725727,599616091583989598,-279
1712851725735,599616091591655538,-254
1712851725743,599616091599321478,-190
1712851725750,599616091606987418,-144
1712851725758,599616091614653358,-105
1712851725766,599616091622319298,-45
1712851725773,599616091629985238,18
1712851725781,599616091637651178,59
1712851725789,599616091645317118,103
1712851725796,599616091652983058,162
1712851725804,599616091660648998,206
1712851725812,599616091668314938,240
1712851725819,599616091675980878,286
1712851725827,599616091683646818,300
1712851725835,599616091691312758,286
1712851725841,599616091698978698,275
1712851725849,599616091706644638,240
1712851725857,599616091714310578,197
1712851725865,599616091721976518,195
1712851725873,599616091729642458,153
1712851725881,599616091737308398,34
1712851725888,599616091744974338,-34
1712851725896,599616091752640278,-16
1712851725904,599616091760306218,-11
1712851725911,599616091767972158,-43
1712851725919,599616091775638098,-75
1712851725927,599616091783304038,-73
1712851725934,599616091790969978,-48
1712851725942,599616091798635918,-29
1712851725950,599616091806301858,6
1712851725957,599616091813967798,68
1712851725965,599616091821633738,119
1712851725973,599616091829299678,137
1712851725980,599616091836965618,135
1712851725988,599616091844631558,137
1712851725996,599616091852297498,162
1712851726003,599616091859963438,204
1712851726011,599616091867629378,240
1712851726019,599616091875295318,218
1712851726025,599616091882961258,103
1712851726033,599616091890627198,16
1712851726041,599616091898293138,48
1712851726049,599616091905959078,59
1712851726057,599616091913625018,22
1712851726065,599616091921290958,34
1712851726072,599616091928956898,41
1712851726080,599616091936622838,-4
1712851726088,599616091944288778,0
1712851726095,599616091951954718,59
1712851726103,599616091959590596,89
1712851726111,599616091967256954,105
1712851726118,599616091974923312,107
1712851726126,599616091982589670,73
1712851726134,599616091990256028,66
1712851726141,599616091997922386,110
1712851726149,599616092005588744,139
1712851726157,599616092013255102,107
1712851726164,599616092020921460,13
1712851726172,599616092028587818,-100
1712851726180,599616092036254176,-139
1712851726187,599616092043920534,-84
1712851726195,599616092051586892,-22
1712851726203,599616092059253250,-9
1712851726209,599616092066919608,-48
1712851726217,599616092074585966,-160
1712851726225,599616092082252324,-293
1712851726233,599616092089918682,-339
1712851726241,599616092097585040,-307
1712851726249,599616092105251398,-268
1712851726256,599616092112917756,-254
1712851726264,599616092120584114,-307
1712851726272,599616092128250472,-413
1712851726279,599616092135916830,-417
1712851726287,599616092143583188,-330
1712851726295,599616092151249546,-277
1712851726302,599616092158915904,-257
1712851726310,599616092166582262,-261
1712851726318,599616092174248620,-257
1712851726325,599616092181914978,-80
1712851726333,599616092189581336,289
1712851726341,599616092197247694,569
1712851726348,599616092204914052,309
1712851726356,599616092212580410,-240
1712851726364,599616092220246768,-261
1712851726371,599616092227913126,4
1712851726379,599616092235579484,-34
1712851726387,599616092243245842,-82
1712851726393,599616092250912200,20
1712851726401,599616092258578558,-2
1712851726409,599616092266244916,-133
1712851726417,599616092273911274,-188
1712851726425,599616092281577632,-149
1712851726433,599616092289243990,-87
1712851726440,599616092296910348,-36
1712851726448,599616092304576706,-4
1712851726456,599616092312243064,25
1712851726463,599616092319909422,52
1712851726471,599616092327575780,78
1712851726479,599616092335242138,128
1712851726486,599616092342908496,181
1712851726494,599616092350574854,197
1712851726502,599616092358241212,227
1712851726509,599616092365907570,279
1712851726517,599616092373573928,321
1712851726525,599616092381240286,383
1712851726532,599616092388906644,475
1712851726540,599616092396573002,539
1712851726548,599616092404239360,587
1712851726555,599616092411905718,603
1712851726563,599616092419572076,532
1712851726571,599616092427238434,500
1712851726577,599616092434904792,580
1712851726585,599616092442571150,642
1712851726593,599616092450237508,665
1712851726601,599616092457903866,693
1712851726609,599616092465570224,711
1712851726617,599616092473236582,713
1712851726624,599616092480902940,651
1712851726632,599616092488569298,495
1712851726640,599616092496235656,385
1712851726647,599616092503902014,341
1712851726655,599616092511568372,240
1712851726663,599616092519279910,149
1712851726670,599616092526945641,158
1712851726678,599616092534611372,169
1712851726686,599616092542277103,151
1712851726693,599616092549942834,176
1712851726701,599616092557608565,201
1712851726709,599616092565274296,185
1712851726716,599616092572940027,142
1712851726724,599616092580605758,43
1712851726732,599616092588271489,-59
1712851726739,599616092595937220,-50
1712851726747,599616092603602951,-11
1712851726755,599616092611268682,-73
1712851726761,599616092618934413,-158
1712851726769,599616092626600144,-149
1712851726777,599616092634265875,-98
1712851726785,599616092641931606,-64
1712851726793,599616092649597337,-50
1712851726801,599616092657263068,-126
1712851726808,599616092664928799,-261
1712851726816,599616092672594530,-300
1712851726824,599616092680260261,-243
1712851726831,599616092687925992,-204
1712851726839,599616092695591723,-169
1712851726847,599616092703257454,-137
1712851726854,599616092710923185,-144
1712851726862,599616092718588916,-162
1712851726870,599616092726254647,-139
1712851726877,599616092733920378,-96
1712851726885,599616092741586109,-66
1712851726893,599616092749251840,-68
1712851726900,599616092756917571,-142
1712851726908,599616092764583302,-220
1712851726916,599616092772249033,-211
1712851726923,599616092779914764,-160
1712851726931,599616092787580495,-121
1712851726939,599616092795246226,-82
1712851726945,599616092802911957,-105
1712851726953,599616092810577688,-224
1712851726961,599616092818243419,-300
1712851726969,599616092825909150,-268
1712851726977,599616092833574881,-259
1712851726985,599616092841240612,-279
1712851726992,599616092848906343,-261
1712851727000,599616092856572074,-270
1712851727008,599616092864237805,-298
1712851727015,599616092871903536,-263
1712851727023,599616092879569267,-215
1712851727031,599616092887234998,-199
1712851727038,599616092894900729,-188
1712851727046,599616092902566460,-197
1712851727054,599616092910232191,-211
1712851727061,599616092917897922,-174
1712851727069,599616092925563653,-121
1712851727077,599616092933229384,-89
1712851727084,599616092940895115,-80
1712851727092,599616092948560846,-153
1712851727100,599616092956226577,-293
1712851727107,599616092963892308,-286
1712851727115,599616092971558039,-48
1712851727123,599616092979223770,273
1712851727129,599616092986889501,465
1712851727137,599616092994555232,162
1712851727145,599616093002220963,-376
1712851727153,599616093009886694,-360
1712851727161,599616093017552425,-71
1712851727169,599616093025218156,-94
1712851727176,599616093032883887,-144
1712851727184,599616093040549618,-68
1712851727192,599616093048215349,-73
1712851727199,599616093055881080,-100
1712851727207,599616093063546811,-36
1712851727215,599616093071212542,22
1712851727222,599616093078858214,-13
1712851727230,599616093086524224,-100
1712851727238,599616093094190234,-137
1712851727245,599616093101856244,-110
1712851727253,599616093109522254,-73
1712851727261,599616093117188264,-32
1712851727268,599616093124854274,-2
1712851727276,599616093132520284,-6
1712851727284,599616093140186294,-16
1712851727291,599616093147852304,-96
1712851727299,599616093155518314,-204
1712851727307,599616093163184324,-160
1712851727313,599616093170850334,-52
1712851727321,599616093178516344,-20
1712851727329,599616093186182354,20
1712851727337,599616093193848364,82
1712851727345,599616093201514374,100
1712851727353,599616093209180384,126
1712851727360,599616093216846394,167
1712851727368,599616093224512404,172
1712851727376,599616093232178414,181
1712851727383,599616093239844424,201
1712851727391,599616093247510434,156
1712851727399,599616093255176444,149
1712851727406,599616093262842454,449
1712851727414,599616093270508464,856
1712851727422,599616093278174474,906
1712851727429,599616093285840484,699
1712851727437,599616093293506494,507
1712851727445,599616093301172504,362
1712851727452,599616093308838514,284
1712851727460,599616093316504524,243
1712851727468,599616093324170534,215
1712851727475,599616093331836544,211
1712851727483,599616093339502554,167
1712851727491,599616093347168564,68
1712851727497,599616093354834574,18
1712851727505,599616093362500584,34
1712851727513,599616093370166594,45
1712851727521,599616093377832604,64
1712851727529,599616093385498614,87
1712851727537,599616093393164624,73
1712851727544,599616093400830634,59
1712851727552,599616093408496644,71
1712851727560,599616093416162654,61
1712851727567,599616093423828664,22
1712851727575,599616093431494674,-6
1712851727583,599616093439160684,-16
1712851727590,599616093446826694,-41
1712851727598,599616093454492704,-59
1712851727606,599616093462158714,-41
1712851727613,599616093469824724,-16
1712851727621,599616093477490734,-9
1712851727629,599616093485156744,-22
1712851727636,599616093492822754,-80
1712851727644,599616093500488764,-144
1712851727652,599616093508154774,-133
1712851727659,599616093515820784,-80
1712851727667,599616093523486794,-55
1712851727675,599616093531152804,-57
1712851727681,599616093538818814,-133
1712851727689,599616093546484824,-224
1712851727697,599616093554150834,-201
1712851727705,599616093561816844,-126
1712851727713,599616093569482854,-96
1712851727721,599616093577148864,-96
1712851727728,599616093584814874,-181
1712851727736,599616093592480884,-328
1712851727744,599616093600146894,-383
1712851727751,599616093607812904,-364
1712851727759,599616093615478914,-355
1712851727767,599616093623144924,-330
1712851727774,599616093630810934,-312
1712851727782,599616093638476952,-337
1712851727790,599616093646142962,-321
1712851727797,599616093653808972,-268
1712851727805,599616093661474982,-261
1712851727813,599616093669140992,-261
1712851727820,599616093676807002,-273
1712851727828,599616093684473012,-413
1712851727836,599616093692139022,-539
1712851727843,599616093699805032,-468
1712851727851,599616093707471042,-371
1712851727859,599616093715137052,-353
1712851727865,599616093722803062,-316
1712851727873,599616093730469072,-289
1712851727881,599616093738135082,-328
1712851727889,599616093745801092,-353
1712851727897,599616093753467102,-318
1712851727905,599616093761133112,-263
1712851727912,599616093768799122,-121
1712851727920,599616093776465132,179
1712851727928,599616093784131142,454
1712851727935,599616093791797152,270
1712851727943,599616093799463162,-284
1712851727951,599616093807129172,-360
1712851727958,599616093814795182,-41
1712851727966,599616093822461192,-55
1712851727974,599616093830127202,-183
1712851727981,599616093837793212,-121
1712851727989,599616093845459222,-71
1712851727997,599616093853125232,-66
1712851728004,599616093860791242,-18
1712851728012,599616093868457252,4
1712851728020,599616093876123262,-52
1712851728027,599616093883789272,-128
1712851728035,599616093891455282,-121
1712851728043,599616093899121292,-52
1712851728049,599616093906787302,-16
1712851728057,599616093914453312,-2
1712851728065,599616093922119322,18
1712851728073,599616093929785332,34
1712851728081,599616093937451342,61
1712851728089,599616093945117352,117
1712851728096,599616093952783362,160
1712851728104,599616093960449372,181
1712851728112,599616093968115382,222
1712851728119,599616093975781392,277
1712851728127,599616093983447402,284
1712851728135,599616093991113412,254
1712851728142,599616093998779422,261
1712851728150,599616094006445432,284
1712851728158,599616094014111442,268
1712851728165,599616094021777452,208
1712851728173,599616094029443462,110
1712851728181,599616094037109472,64
1712851728188,599616094044775482,73
1712851728196,599616094052441492,39
1712851728204,599616094060107502,-6
1712851728211,599616094067773512,-9
1712851728219,599616094075439522,-27
1712851728227,599616094083105532,-59
1712851728233,599616094090771542,-103
1712851728241,599616094098437552,-197
1712851728249,599616094106103562,-224
1712851728257,599616094113769572,-156
1712851728265,599616094121435582,-126
1712851728273,599616094129101592,-126
1712851728280,599616094136767602,-87
1712851728288,599616094144433612,-59
1712851728296,599616094152099622,-41
1712851728303,599616094159765632,18
1712851728311,599616094167431642,59
1712851728319,599616094175097652,52
1712851728326,599616094182763662,55
1712851728334,599616094190429672,59
1712851728342,599616094198095690,55
1712851728349,599616094205761700,73
1712851728357,599616094213427710,43
1712851728365,599616094221093720,-96
1712851728372,599616094228759730,-236
1712851728380,599616094236425740,-284
1712851728388,599616094244091750,-261
1712851728395,599616094251757760,-218
1712851728403,599616094259423770,-188
1712851728411,599616094267089780,-229
1712851728417,599616094274755790,-312
1712851728425,599616094282421800,-325
1712851728433,599616094290087810,-270
1712851728441,599616094297753820,-220
1712851728449,599616094305419830,-179
1712851728457,599616094313085840,-144
1712851728464,599616094320751850,-156
1712851728472,599616094328417860,-176
1712851728480,599616094336083870,-142
1712851728487,599616094343749880,-84
1712851728495,599616094351415890,-45
1712851728503,599616094359081900,-25
1712851728510,599616094366747910,-61
1712851728518,599616094374413920,-160
1712851728526,599616094382079930,-195
1712851728533,599616094389745940,-167
1712851728541,599616094397411950,-190
1712851728549,599616094405077960,-229
1712851728556,599616094412743970,-270
1712851728564,599616094420409980,-367
1712851728572,599616094428075990,-378
1712851728579,599616094435742000,-282
1712851728587,599616094443408010,-222
1712851728595,599616094451074020,-201
1712851728601,599616094458740030,-188
1712851728609,599616094466406040,-224
1712851728617,599616094474072050,-279
1712851728625,599616094481738060,-298
1712851728633,599616094489404070,-268
1712851728641,599616094497070080,-220
1712851728648,599616094504736090,-201
1712851728656,599616094512402100,-222
1712851728664,599616094520068110,-218
1712851728671,599616094527734120,-162
1712851728679,599616094535400130,-121
1712851728687,599616094543066140,-110
1712851728694,599616094550732150,-110
1712851728702,599616094558398160,-103
1712851728710,599616094566064170,18
1712851728717,599616094573730180,337
1712851728725,599616094581396190,468
1712851728733,599616094589062200,0
1712851728740,599616094596728210,-470
1712851728748,599616094604394220,-378
1712851728756,599616094612060230,-240
1712851728763,599616094619726240,-296
1712851728771,599616094627392250,-240
1712851728777,599616094635058260,-130
1712851728785,599616094642724270,-110
1712851728793,599616094650390280,-96
1712851728801,599616094658056290,-64
1712851728809,599616094665722300,-41
1712851728817,599616094673388310,0
1712851728824,599616094681054320,52
1712851728832,599616094688720330,75
1712851728840,599616094696386340,89
1712851728847,599616094704052350,105
1712851728855,599616094711718360,110
1712851728863,599616094719384370,100
1712851728870,599616094727050380,64
1712851728878,599616094734716390,45
1712851728886,599616094742382400,71
1712851728893,599616094750048410,82
1712851728901,599616094757719472,32
1712851728909,599616094765385412,11
1712851728916,599616094773051352,89
1712851728924,599616094780717292,156
1712851728932,599616094788383232,139
1712851728939,599616094796049172,130
1712851728947,599616094803715112,119
1712851728955,599616094811381052,61
1712851728961,599616094819046992,64
1712851728969,599616094826712932,110
1712851728977,599616094834378872,91
1712851728985,599616094842044812,61
1712851728993,599616094849710752,55
1712851729001,599616094857376692,25
1712851729008,599616094865042632,11
1712851729016,599616094872708572,20
1712851729024,599616094880374512,-2
1712851729031,599616094888040452,-2
1712851729039,599616094895706392,34
1712851729047,599616094903372332,18
1712851729054,599616094911038272,-2
1712851729062,599616094918704212,39
1712851729070,599616094926370152,66
1712851729077,599616094934036092,82
1712851729085,599616094941702032,121
1712851729093,599616094949367972,80
1712851729100,599616094957033912,-59
1712851729108,599616094964699852,-149
1712851729116,599616094972365792,-176
1712851729123,599616094980031732,-195
1712851729131,599616094987697672,-169
1712851729139,599616094995363612,-128
1712851729145,599616095003029552,-126
1712851729153,599616095010695492,-128
1712851729161,599616095018361432,-105
1712851729169,599616095026027372,-75
1712851729177,599616095033693312,-66
1712851729185,599616095041359252,-57
1712851729192,599616095049025192,-43
1712851729200,599616095056691132,-41
1712851729208,599616095064357072,-41
1712851729215,599616095072023012,-20
1712851729223,599616095079688952,-4
1712851729231,599616095087354892,-4
1712851729238,599616095095020832,-39
1712851729246,599616095102686772,-119
1712851729254,599616095110352712,-172
1712851729261,599616095118018652,-176
1712851729269,599616095125684592,-174
1712851729277,599616095133350532,-176
1712851729284,599616095141016472,-247
1712851729292,599616095148682412,-360
1712851729300,599616095156348352,-390
1712851729307,599616095164014292,-339
1712851729315,599616095171680232,-291
1712851729323,599616095179346172,-245
1712851729329,599616095187012112,-213
1712851729337,599616095194678052,-240
1712851729345,599616095202343992,-282
1712851729353,599616095210009932,-261
1712851729361,599616095217675872,-243
1712851729369,599616095225341812,-261
1712851729376,599616095233007752,-236
1712851729384,599616095240673692,-190
1712851729392,599616095248339632,-185
1712851729399,599616095256005572,-183
1712851729407,599616095263671512,-158
1712851729415,599616095271337452,-128
1712851729422,599616095279003392,-84
1712851729430,599616095286669332,-82
1712851729438,599616095294335272,-167
1712851729445,599616095302001212,-224
1712851729453,599616095309667152,-167
1712851729461,599616095317333124,-94
1712851729468,599616095324999064,-55
1712851729476,599616095332665004,-55
1712851729484,599616095340330944,-133
1712851729491,599616095347996884,-204
1712851729499,599616095355662824,-149
1712851729507,599616095363328764,-98
1712851729513,599616095370994704,-82
1712851729521,599616095378660644,64
1712851729529,599616095386326584,316
1712851729537,599616095393992524,495
1712851729545,599616095401658464,358
1712851729553,599616095409324404,-36
1712851729560,599616095416990344,-105
1712851729568,599616095424656284,105
1712851729576,599616095432322224,66
1712851729583,599616095439988164,-114
1712851729591,599616095447654104,-119
1712851729599,599616095455320044,-52
1712851729606,599616095462985984,-84
1712851729614,599616095470651924,-142
1712851729622,599616095478317864,-121
1712851729629,599616095485983804,-100
1712851729637,599616095493649744,-96
1712851729645,599616095501315684,-43
1712851729652,599616095508981624,18
1712851729660,599616095516647564,36
1712851729668,599616095524313504,50
1712851729675,599616095531979444,78
1712851729683,599616095539645384,80
1712851729691,599616095547311324,89
1712851729697,599616095554977264,156
1712851729705,599616095562643204,215
1712851729713,599616095570309144,231
1712851729721,599616095577975084,252
1712851729729,599616095585641024,257
1712851729737,599616095593306964,224
1712851729744,599616095600972904,176
1712851729752,599616095608638844,126
1712851729760,599616095616304784,110
1712851729767,599616095623970724,128
1712851729775,599616095631636664,100
1712851729783,599616095639302604,27
1712851729790,599616095646968544,16
1712851729798,599616095654634484,41
1712851729806,599616095662300424,6
1712851729813,599616095669966364,-25
1712851729821,599616095677632304,-18
1712851729829,599616095685298244,-45
1712851729836,599616095692964184,-96
1712851729844,599616095700630124,-149
1712851729852,599616095708296064,-231
1712851729859,599616095715962004,-284
1712851729867,599616095723627944,-259
1712851729875,599616095731293884,-240
1712851729881,599616095738959824,-245
1712851729889,599616095746625764,-215
1712851729897,599616095754291704,-185
1712851729905,599616095761957644,-176
1712851729913,599616095769623584,-142
1712851729921,599616095777289524,-117
1712851729928,599616095784955464,-126
1712851729936,599616095792621404,-142
1712851729944,599616095800287344,-144
1712851729951,599616095807953284,-123
1712851729959,599616095815619224,-82
1712851729967,599616095823285164,-87
1712851729974,599616095830951104,-169
1712851729982,599616095838617044,-227
1712851729990,599616095846282984,-185
1712851729997,599616095853948924,-167
1712851730005,599616095861614864,-211
1712851730013,599616095869280804,-224
1712851730020,599616095876931728,-236
1712851730028,599616095884597877,-296
1712851730036,599616095892264026,-323
1712851730043,599616095899930175,-300
1712851730051,599616095907596324,-275
1712851730059,599616095915262473,-252
1712851730065,599616095922928622,-240
1712851730073,599616095930594771,-270
1712851730081,599616095938260920,-289
1712851730089,599616095945927069,-259
1712851730097,599616095953593218,-259
1712851730105,599616095961259367,-321
1712851730112,599616095968925516,-376
1712851730120,599616095976591665,-477
1712851730128,599616095984257814,-576
1712851730135,599616095991923963,-527
1712851730143,599616095999590112,-442
1712851730151,599616096007256261,-401
1712851730158,599616096014922410,-330
1712851730166,599616096022588559,-279
1712851730174,599616096030254708,-298
1712851730181,599616096037920857,-279
1712851730189,599616096045587006,-215
1712851730197,599616096053253155,-174
1712851730204,599616096060919304,-151
1712851730212,599616096068585453,-137
1712851730220,599616096076251602,-146
1712851730227,599616096083917751,-135
1712851730235,599616096091583900,-82
1712851730243,599616096099250049,-73
1712851730249,599616096106916198,-160
1712851730257,599616096114582347,-245
1712851730265,599616096122248496,-240
1712851730273,599616096129914645,-201
1712851730281,599616096137580794,-179
1712851730289,599616096145246943,-176
1712851730296,599616096152913092,-96
1712851730304,599616096160579241,156
1712851730312,599616096168245390,419
1712851730319,599616096175911539,362
1712851730327,599616096183577688,-105
1712851730335,599616096191243837,-410
1712851730342,599616096198909986,-211
1712851730350,599616096206576135,-89
1712851730358,599616096214242284,-231
1712851730365,599616096221908433,-243
1712851730373,599616096229574582,-146
1712851730381,599616096237240731,-105
1712851730388,599616096244906880,-68
1712851730396,599616096252573029,0
1712851730404,599616096260239178,32
1712851730411,599616096267905327,4
1712851730419,599616096275571476,-2
1712851730427,599616096283237625,50
1712851730433,599616096290903774,119
1712851730441,599616096298569923,162
1712851730449,599616096306236072,176
1712851730457,599616096313902221,179
1712851730465,599616096321568370,183
1712851730473,599616096329234519,199
1712851730480,599616096336900668,224
1712851730488,599616096344566817,252
1712851730496,599616096352232966,275
1712851730503,599616096359899115,284
1712851730511,599616096367565264,247
1712851730519,599616096375231413,206
1712851730526,599616096382897562,252
1712851730534,599616096390563711,321
1712851730542,599616096398229860,316
1712851730549,599616096405896009,296
1712851730557,599616096413562158,305
1712851730565,599616096421228307,289
1712851730572,599616096428894456,266
1712851730580,599616096436560638,240
1712851730588,599616096444226787,144
1712851730595,599616096451892936,18
1712851730603,599616096459559085,-25
1712851730611,599616096467225234,-25
1712851730617,599616096474891383,-41
1712851730625,599616096482557532,-64
1712851730633,599616096490223681,-91
1712851730641,599616096497889830,-112
1712851730649,599616096505555979,-174
1712851730657,599616096513222128,-321
1712851730664,599616096520888277,-403
1712851730672,599616096528554426,-348
1712851730680,599616096536220575,-300
1712851730687,599616096543886724,-270
1712851730695,599616096551552873,-215
1712851730703,599616096559219022,-206
1712851730710,599616096566885171,-199
1712851730718,599616096574551320,-149
1712851730726,599616096582217469,-123
1712851730733,599616096589883618,-103
1712851730741,599616096597549767,-61
1712851730749,599616096605215916,-50
1712851730756,599616096612882065,-98
1712851730764,599616096620548214,-162
1712851730772,599616096628214363,-165
1712851730779,599616096635880512,-123
1712851730787,599616096643546661,-107
1712851730795,599616096651212810,-142
1712851730801,599616096658878959,-185
1712851730809,599616096666545108,-222
1712851730817,599616096674211257,-257
1712851730825,599616096681877406,-268
1712851730833,599616096689543555,-289
1712851730841,599616096697209704,-341
1712851730848,599616096704875853,-413
1712851730856,599616096712542002,-479
1712851730864,599616096720208151,-481
1712851730871,599616096727874300,-417
1712851730879,599616096735540449,-358
1712851730887,599616096743206598,-302
1712851730894,599616096750872747,-234
1712851730902,599616096758538896,-229
1712851730910,599616096766205045,-275
1712851730917,599616096773871194,-298
1712851730925,599616096781537343,-298
1712851730933,599616096789203492,-268
1712851730940,599616096796869641,-229
1712851730948,599616096804535790,-238
1712851730956,599616096812201939,-266
1712851730963,599616096819868088,-234
1712851730971,599616096827534237,-167
1712851730979,599616096835200386,-119
1712851730985,599616096842866535,-94
1712851730993,599616096850532684,-130
1712851731001,599616096858198833,-181
1712851731009,599616096865864982,-43
1712851731017,599616096873531131,302
1712851731025,599616096881197280,578
1712851731032,599616096888863429,376
1712851731040,599616096896529578,-174
1712851731048,599616096904195727,-316
1712851731055,599616096911861876,-103
1712851731063,599616096919528025,-84
1712851731071,599616096927194174,-119
1712851731078,599616096934860323,-96
1712851731086,599616096942526472,-211
1712851731094,599616096950192621,-335
1712851731101,599616096957858770,-330
1712851731109,599616096965524919,-293
1712851731117,599616096973191068,-261
1712851731124,599616096980857217,-213
1712851731132,599616096988523366,-185
1712851731140,599616096996234694,-197
1712851731147,599616097003900216,-199
1712851731155,599616097011565738,-167
1712851731163,599616097019231260,-133
1712851731169,599616097026896782,-100
1712851731177,599616097034562304,-87
1712851731185,599616097042227826,-156
1712851731193,599616097049893348,-289
1712851731201,599616097057558870,-346
1712851731209,599616097065224392,-261
1712851731216,599616097072889914,-153
1712851731224,599616097080555436,-91
1712851731232,599616097088220958,-50
1712851731239,599616097095886480,-39
1712851731247,599616097103552002,-36
1712851731255,599616097111217524,-50
1712851731262,599616097118883046,-110
1712851731270,599616097126548568,-146
1712851731278,599616097134214090,-128
1712851731285,599616097141879612,-133
1712851731293,599616097149545134,-172
1712851731301,599616097157210656,-174
1712851731308,599616097164876178,-137
1712851731316,599616097172541700,-119
1712851731324,599616097180207222,-135
1712851731331,599616097187872744,-185
1712851731339,599616097195538266,-234
1712851731347,599616097203203788,-211
1712851731353,599616097210869310,-151
1712851731361,599616097218534832,-133
1712851731369,599616097226200354,-137
1712851731377,599616097233865876,-114
1712851731385,599616097241531398,-107
1712851731393,599616097249196920,-144
1712851731400,599616097256862442,-117
1712851731408,599616097264527964,-41
1712851731416,599616097272193486,-32
1712851731423,599616097279859008,-59
1712851731431,599616097287524530,-96
1712851731439,599616097295190052,-98
1712851731446,599616097302855574,-25
1712851731454,599616097310521096,20
1712851731462,599616097318186618,-4
1712851731469,599616097325852140,0
1712851731477,599616097333517662,45
1712851731485,599616097341183184,50
1712851731492,599616097348848706,34
1712851731500,599616097356514228,36
1712851731508,599616097364179750,59
1712851731515,599616097371845272,133
1712851731523,599616097379510794,208
1712851731531,599616097387176316,179
1712851731537,599616097394841838,112
1712851731545,599616097402507360,119
1712851731553,599616097410172882,139
1712851731561,599616097417838404,144
1712851731569,599616097425503926,174
1712851731577,599616097433169448,142
1712851731584,599616097440834970,-9
1712851731592,599616097448500492,-107
1712851731600,599616097456166014,-94
1712851731607,599616097463831536,-135
1712851731615,599616097471497058,-181
1712851731623,599616097479162580,-130
1712851731630,599616097486828102,-123
1712851731638,599616097494493624,-165
1712851731646,599616097502159146,-149
1712851731653,599616097509824668,-103
1712851731661,599616097517490190,-73
1712851731669,599616097525155712,-43
1712851731676,599616097532821234,18
1712851731684,599616097540486756,165
1712851731692,599616097548152278,394
1712851731699,599616097555787732,497
1712851731707,599616097563453672,218
1712851731715,599616097571119612,-112
1712851731721,599616097578785552,-61
1712851731729,599616097586451492,2
1712851731737,599616097594117432,-133
1712851731745,599616097601783372,-112
1712851731753,599616097609449312,0
1712851731761,599616097617115252,-64
1712851731768,599616097624781192,-195
1712851731776,599616097632447132,-259
1712851731784,599616097640113072,-286
1712851731791,599616097647779012,-259
1712851731799,599616097655444952,-222
1712851731807,599616097663110892,-201
1712851731814,599616097670776832,-128
1712851731822,599616097678442772,-103
1712851731830,599616097686108712,-167
1712851731837,599616097693774652,-137
1712851731845,599616097701440592,-43
1712851731853,599616097709106532,-9
1712851731860,599616097716772472,39
1712851731868,599616097724438412,100
1712851731876,599616097732104352,91
1712851731883,599616097739770292,114
1712851731891,599616097747436232,206
1712851731899,599616097755102172,245
1712851731905,599616097762768112,266
1712851731913,599616097770434052,307
1712851731921,599616097778099992,238
1712851731929,599616097785765932,112
1712851731937,599616097793431872,121
1712851731945,599616097801097812,181
1712851731952,599616097808763752,179
1712851731960,599616097816429692,174
1712851731968,599616097824095632,133
1712851731975,599616097831761572,36
1712851731983,599616097839427512,11
1712851731991,599616097847093452,66
1712851731998,599616097854759392,105
1712851732006,599616097862425332,112
1712851732014,599616097870091272,94
1712851732021,599616097877757212,61
1712851732029,599616097885423152,55
1712851732037,599616097893089092,94
1712851732044,599616097900755032,149
1712851732052,599616097908420972,179
1712851732060,599616097916086912,195
1712851732067,599616097923752852,176
1712851732075,599616097931418792,103
1712851732083,599616097939084732,82
1712851732089,599616097946750672,146
1712851732097,599616097954416612,172
1712851732105,599616097962082552,149
1712851732113,599616097969748492,126
1712851732121,599616097977414432,57
1712851732129,599616097985080372,6
1712851732136,599616097992746312,52
1712851732144,599616098000412252,89
1712851732152,599616098008078192,75
1712851732159,599616098015744132,89
1712851732167,599616098023410072,137
1712851732175,599616098031076012,162
1712851732182,599616098038741952,165
1712851732190,599616098046407892,174
1712851732198,599616098054073832,183
1712851732205,599616098061739772,169
1712851732213,599616098069405712,144
1712851732221,599616098077071652,139
1712851732228,599616098084737592,112
1712851732236,599616098092403532,43
1712851732244,599616098100069472,-9
1712851732251,599616098107735412,-22
1712851732259,599616098115401384,-34
1712851732267,599616098123067324,-100
1712851732273,599616098130733264,-160
1712851732281,599616098138399204,-139
1712851732289,599616098146065144,-89
1712851732297,599616098153731084,-71
1712851732305,599616098161397024,-82
1712851732313,599616098169062964,-57
1712851732320,599616098176728904,135
1712851732328,599616098184394844,452
1712851732336,599616098192060784,509
1712851732343,599616098199726724,48
1712851732351,599616098207392664,-318
1712851732358,599616098215058604,-199
1712851732366,599616098222724544,-174
1712851732374,599616098230390484,-330
1712851732381,599616098238056424,-335
1712851732389,599616098245722364,-316
1712851732397,599616098253388304,-305
1712851732404,599616098261054244,-263
1712851732412,599616098268720184,-279
1712851732420,599616098276386124,-305
1712851732427,599616098284052064,-291
1712851732435,599616098291718004,-279
1712851732443,599616098299383944,-247
1712851732449,599616098307049884,-190
1712851732457,599616098314715824,-208
1712851732465,599616098322381764,-273
1712851732473,599616098330047704,-250
1712851732481,599616098337713644,-174
1712851732489,599616098345379584,-139
1712851732496,599616098353045524,-110
1712851732504,599616098360711464,-61
1712851732512,599616098368377404,-25
1712851732519,599616098376043344,4
1712851732527,599616098383709284,22
1712851732535,599616098391375224,45
1712851732542,599616098399041164,117
1712851732550,599616098406707104,185
1712851732558,599616098414373044,156
1712851732565,599616098422038984,68
1712851732573,599616098429704924,55
1712851732581,599616098437370864,110
1712851732588,599616098445036804,126
1712851732596,599616098452702744,84
1712851732604,599616098460368684,-25
1712851732611,599616098468034624,-169
1712851732619,599616098475700564,-206
1712851732627,599616098483366504,-156
1712851732633,599616098491032444,-112
1712851732641,599616098498698384,-52
1712851732649,599616098506364324,-34
1712851732657,599616098514030264,-103
1712851732665,599616098521696204,-128
1712851732673,599616098529362144,-41
1712851732680,599616098537028084,32
1712851732688,599616098544694024,55
1712851732696,599616098552359964,82
1712851732703,599616098560025904,78
1712851732711,599616098567691844,66
1712851732719,599616098575357784,114
1712851732726,599616098583023724,169
1712851732734,599616098590689664,183
1712851732742,599616098598355604,181
1712851732749,599616098606021544,158
1712851732757,599616098613687484,110
1712851732765,599616098621353424,39
1712851732772,599616098629019364,-13
1712851732780,599616098636685304,9
1712851732788,599616098644351244,43
1712851732795,599616098652017184,32
1712851732803,599616098659683124,11
1712851732811,599616098667349064,-9
1712851732817,599616098675015038,-13
1712851732825,599616098682680978,34
1712851732833,599616098690346918,75
1712851732841,599616098698012858,43
1712851732849,599616098705678798,-96
1712851732857,599616098713344738,-236
1712851732864,599616098721010678,-220
1712851732872,599616098728676618,-121
1712851732880,599616098736342558,-84
1712851732887,599616098744008498,-73
1712851732895,599616098751674438,-48
1712851732903,599616098759340378,-39
1712851732910,599616098767006318,-27
1712851732918,599616098774672258,32
1712851732926,599616098782338198,73
1712851732933,599616098790004138,27
1712851732941,599616098797670078,-20
1712851732949,599616098805336018,71
1712851732956,599616098813001958,305
1712851732964,599616098820667898,578
1712851732972,599616098828333838,603
1712851732979,599616098835999778,162
1712851732987,599616098843665718,-218
1712851732995,599616098851331658,-105
1712851733001,599616098858997598,-11
1712851733009,599616098866663538,-91
1712851733017,599616098874329478,-27
1712851733025,599616098881995418,57
1712851733033,599616098889661358,18
1712851733041,599616098897327298,-52
1712851733048,599616098904993238,-126
1712851733056,599616098912659178,-215
1712851733064,599616098920325118,-240
1712851733071,599616098927991058,-176
1712851733079,599616098935656998,-110
1712851733087,599616098943322938,-91
1712851733094,599616098950988878,-96
1712851733102,599616098958654818,-89
1712851733110,599616098966320758,-64
1712851733117,599616098973986698,-45
1712851733125,599616098981652638,-13
1712851733133,599616098989318578,27
1712851733140,599616098996984518,-11
1712851733148,599616099004650458,-94
1712851733156,599616099012316398,-71
1712851733163,599616099019982338,-11
1712851733171,599616099027648278,6
1712851733179,599616099035314218,55
1712851733185,599616099042980158,96
1712851733193,599616099050646098,57
1712851733201,599616099058312038,-2
1712851733209,599616099065977978,-50
1712851733217,599616099073643918,-123
1712851733225,599616099081309858,-188
1712851733232,599616099088975798,-211
1712851733240,599616099096641738,-231
1712851733248,599616099104307678,-259
1712851733255,599616099111973618,-293
1712851733263,599616099119639558,-362
1712851733271,599616099127305498,-454
1712851733278,599616099134971438,-495
1712851733286,599616099142637378,-463
1712851733294,599616099150303318,-456
1712851733301,599616099157969258,-523
1712851733309,599616099165635198,-548
1712851733317,599616099173301138,-484
1712851733324,599616099180967078,-433
1712851733332,599616099188633018,-442
1712851733340,599616099196298958,-493
1712851733347,599616099203964898,-525
1712851733355,599616099211630838,-463
1712851733363,599616099219296778,-380
1712851733369,599616099226962718,-337
1712851733377,599616099234658786,-289
1712851733385,599616099242324308,-263
1712851733393,599616099249989830,-268
1712851733401,599616099257655352,-245
1712851733409,599616099265320874,-183
1712851733416,599616099272986396,-123
1712851733424,599616099280651918,-66
1712851733432,599616099288317440,-29
1712851733439,599616099295982962,-39
1712851733447,599616099303648484,-48
1712851733455,599616099311314006,-2
1712851733462,599616099318979528,68
1712851733470,599616099326645050,107
1712851733478,599616099334310572,61
1712851733485,599616099341976094,-57
1712851733493,599616099349641616,-107
1712851733501,599616099357307138,-50
1712851733508,599616099364972660,2
1712851733516,599616099372638182,25
1712851733524,599616099380303704,27
1712851733531,599616099387969226,-36
1712851733539,599616099395634748,-123
1712851733547,599616099403300270,-160
1712851733553,599616099410965792,-167
1712851733561,599616099418631314,-146
1712851733569,599616099426296836,-96
1712851733577,599616099433962358,-100
1712851733585,599616099441627880,-89
1712851733593,599616099449293402,133
1712851733600,599616099456958924,500
1712851733608,599616099464624446,598
1712851733616,599616099472289968,156
1712851733623,599616099479955490,-229
1712851733631,599616099487621012,-59
1712851733639,599616099495286534,66
1712851733646,599616099502952056,-71
1712851733654,599616099510617578,-13
1712851733662,599616099518283100,128
1712851733669,599616099525948622,55
1712851733677,599616099533614144,-91
1712851733685,599616099541279666,-121
1712851733692,599616099548945188,-45
1712851733700,599616099556610710,39
1712851733708,599616099564276232,59
1712851733715,599616099571941754,64
1712851733723,599616099579607276,89
1712851733731,599616099587272798,87
1712851733737,599616099594938320,94
1712851733745,599616099602603842,144
1712851733753,599616099610269364,181
1712851733761,599616099617934886,195
1712851733769,599616099625600408,195
1712851733777,599616099633265930,151
1712851733784,599616099640931452,112
1712851733792,599616099648596974,126
1712851733800,599616099656262496,105
1712851733807,599616099663928018,55
1712851733815,599616099671593540,27
1712851733823,599616099679259062,6
1712851733830,599616099686924584,2
1712851733838,599616099694590106,36
1712851733846,599616099702255628,50
1712851733853,599616099709921150,0
1712851733861,599616099717586672,-34
1712851733869,599616099725252194,-71
1712851733876,599616099732917716,-169
1712851733884,599616099740583238,-240
1712851733892,599616099748248760,-238
1712851733899,599616099755914282,-236
1712851733907,599616099763579804,-215
1712851733915,599616099771245326,-162
1712851733921,599616099778910848,-144
1712851733929,599616099786576370,-146
1712851733937,599616099794211824,-110
1712851733945,599616099801877764,-94
1712851733953,599616099809543704,-96
1712851733961,599616099817209644,-61
1712851733968,599616099824875584,-55
1712851733976,599616099832541524,-119
1712851733984,599616099840207464,-172
1712851733991,599616099847873404,-206
1712851733999,599616099855539344,-247
1712851734007,599616099863205284,-245
1712851734014,599616099870871224,-273
1712851734022,599616099878537164,-392
1712851734030,599616099886203104,-461
1712851734037,599616099893869044,-463
1712851734045,599616099901534984,-497
1712851734053,599616099909200924,-486
1712851734060,599616099916866864,-426
1712851734068,599616099924532804,-449
1712851734076,599616099932198744,-497
1712851734083,599616099939864684,-468
1712851734091,599616099947530624,-429
1712851734099,599616099955196564,-399
1712851734105,599616099962862504,-341
1712851734113,599616099970528444,-293
1712851734121,599616099978194384,-291
1712851734129,599616099985860324,-323
1712851734137,599616099993526264,-307
1712851734145,599616100001192204,-222
1712851734152,599616100008858144,-151
1712851734160,599616100016524084,-146
1712851734168,599616100024190024,-172
1712851734175,599616100031855964,-183
1712851734183,599616100039521904,-174
1712851734191,599616100047187844,-105
1712851734198,599616100054853784,100
1712851734206,599616100062519724,406
1712851734214,599616100070185664,486
1712851734221,599616100077851604,20
1712851734229,599616100085517544,-511
1712851734237,599616100093183484,-401
1712851734244,599616100100849424,-96
1712851734252,599616100108515364,-100
1712851734260,599616100116181304,-119
1712851734267,599616100123847244,-64
1712851734275,599616100131513184,-66
1712851734283,599616100139179124,-110
1712851734289,599616100146845064,-146
1712851734297,599616100154511004,-126
1712851734305,599616100162176944,-82
1712851734313,599616100169842884,-61
1712851734321,599616100177508824,-16
1712851734329,599616100185174764,48
1712851734336,599616100192840704,80
1712851734344,599616100200506644,119
1712851734352,599616100208172584,179
1712851734359,599616100215838524,183
1712851734367,599616100223504464,160
1712851734375,599616100231170404,185
1712851734382,599616100238836344,224
1712851734390,599616100246502284,243
1712851734398,599616100254168224,279
1712851734405,599616100261834164,273
1712851734413,599616100269500104,206
1712851734421,599616100277166044,213
1712851734428,599616100284831984,268
1712851734436,599616100292497924,277
1712851734444,599616100300163864,298
1712851734451,599616100307829804,332
1712851734459,599616100315495744,282
1712851734467,599616100323161684,215
1712851734473,599616100330827624,215
1712851734481,599616100338493564,222
1712851734489,599616100346159504,195
1712851734497,599616100353830516,172
1712851734505,599616100361496386,167
1712851734513,599616100369162256,176
1712851734520,599616100376828126,176
1712851734528,599616100384493996,78
1712851734536,599616100392159866,-50
1712851734543,599616100399825736,-48
1712851734551,599616100407491606,-41
1712851734559,599616100415157476,-165
1712851734566,599616100422823346,-227
1712851734574,599616100430489216,-172
1712851734582,599616100438155086,-183
1712851734589,599616100445820956,-199
1712851734597,599616100453486826,-130
1712851734605,599616100461152696,-144
1712851734612,599616100468818566,-234
1712851734620,599616100476484436,-201
1712851734628,599616100484150306,-135
1712851734635,599616100491816176,-160
1712851734643,599616100499482046,-135
1712851734651,599616100507147916,-45
1712851734657,599616100514813786,-16
1712851734665,599616100522479656,9
1712851734673,599616100530145526,50
1712851734681,599616100537811396,18
1712851734689,599616100545477266,-57
1712851734697,599616100553143136,-98
1712851734704,599616100560809006,-144
1712851734712,599616100568474876,-197
1712851734720,599616100576140746,-201
1712851734727,599616100583806616,-215
1712851734735,599616100591472486,-254
1712851734743,599616100599138356,-279
1712851734750,599616100606804226,-355
1712851734758,599616100614470096,-433
1712851734766,599616100622135966,-413
1712851734773,599616100629801836,-422
1712851734781,599616100637467706,-539
1712851734789,599616100645133576,-589
1712851734796,599616100652799446,-452
1712851734804,599616100660465316,-158
1712851734812,599616100668131186,-25
1712851734819,599616100675797056,-408
1712851734827,599616100683462926,-803
1712851734835,599616100691128796,-624
1712851734841,599616100698794666,-399
1712851734849,599616100706460536,-463
1712851734857,599616100714126406,-445
1712851734865,599616100721792276,-339
1712851734873,599616100729458146,-330
1712851734881,599616100737124016,-321
1712851734888,599616100744789886,-247
1712851734896,599616100752455756,-195
1712851734904,599616100760121626,-190
1712851734911,599616100767787496,-231
1712851734919,599616100775453366,-252
1712851734927,599616100783119236,-181
1712851734934,599616100790785106,-94
1712851734942,599616100798450976,-100
1712851734950,599616100806116846,-169
1712851734957,599616100813782716,-197
1712851734965,599616100821448586,-144
1712851734973,599616100829114456,-52
1712851734980,599616100836780326,41
1712851734988,599616100844446196,105
1712851734996,599616100852112066,119
1712851735003,599616100859777936,128
1712851735011,599616100867443806,190
1712851735019,599616100875109676,220
1712851735025,599616100882775546,142
1712851735033,599616100890441416,82
1712851735041,599616100898107286,114
1712851735049,599616100905773156,100
1712851735057,599616100913459096,48
1712851735065,599616100921124688,52
1712851735072,599616100928790280,73
1712851735080,599616100936455872,57
1712851735088,599616100944121464,4
1712851735095,599616100951787056,-80
1712851735103,599616100959452648,-117
1712851735111,599616100967118240,-64
1712851735118,599616100974783832,2
1712851735126,599616100982449424,43
1712851735134,599616100990115016,43
1712851735141,599616100997780608,-82
1712851735149,599616101005446200,-215
1712851735157,599616101013111792,-158
1712851735164,599616101020777384,-59
1712851735172,599616101028442976,-43
1712851735180,599616101036108568,-27
1712851735187,599616101043774160,-16
1712851735195,599616101051439752,-57
1712851735203,599616101059105344,-89
1712851735209,599616101066770936,-78
1712851735217,599616101074436528,-50
1712851735225,599616101082102120,-36
1712851735233,599616101089767712,-52
1712851735241,599616101097433304,-71
1712851735249,599616101105098896,-27
1712851735256,599616101112764488,43
1712851735264,599616101120430080,55
1712851735272,599616101128095672,-9
1712851735279,599616101135761264,-75
1712851735287,599616101143426856,-96
1712851735295,599616101151092448,-151
1712851735302,599616101158758040,-195
1712851735310,599616101166423632,-130
1712851735318,599616101174089224,-91
1712851735325,599616101181754816,-135
1712851735333,599616101189420408,-179
1712851735341,599616101197086000,-208
1712851735348,599616101204751592,-204
1712851735356,599616101212417184,-190
1712851735364,599616101220082776,-231
1712851735371,599616101227748368,-298
1712851735379,599616101235413960,-339
1712851735387,599616101243079552,-211
1712851735393,599616101250745144,153
1712851735401,599616101258410736,442
1712851735409,599616101266076328,114
1712851735417,599616101273741920,-525
1712851735425,599616101281407512,-511
1712851735433,599616101289073104,-172
1712851735440,599616101296738696,-197
1712851735448,599616101304404288,-245
1712851735456,599616101312069880,-142
1712851735463,599616101319735472,-133
1712851735471,599616101327401064,-165
1712851735479,599616101335066656,-179
1712851735486,599616101342732248,-257
1712851735494,599616101350397840,-277
1712851735502,599616101358063432,-176
1712851735509,599616101365729024,-135
1712851735517,599616101373394616,-185
1712851735525,599616101381060208,-208
1712851735532,599616101388725800,-188
1712851735540,599616101396391392,-165
1712851735547,599616101404056984,-121
1712851735555,599616101411722576,-87
1712851735563,599616101419388168,-64
1712851735569,599616101427053760,18
1712851735577,599616101434719352,112
1712851735585,599616101442384944,174
1712851735593,599616101450050536,215
1712851735601,599616101457716128,224
1712851735609,599616101465381720,270
1712851735616,599616101473047318,355
1712851735624,599616101480712910,335
1712851735632,599616101488378502,218
1712851735639,599616101496044094,183
1712851735647,599616101503709686,211
1712851735655,599616101511375278,199
1712851735662,599616101519040870,179
1712851735670,599616101526706462,162
1712851735678,599616101534372054,98
1712851735685,599616101542037646,20
1712851735693,599616101549703238,-11
1712851735701,599616101557368830,-9
1712851735708,599616101565034422,45
1712851735716,599616101572700014,100
1712851735724,599616101580365606,43
1712851735731,599616101588031198,-64
1712851735739,599616101595696790,-68
1712851735747,599616101603362382,-6
1712851735753,599616101611027974,32
1712851735761,599616101618693566,20
1712851735769,599616101626359158,-36
1712851735777,599616101634024750,-64
1712851735785,599616101641690342,-55
1712851735793,599616101649355934,-119
1712851735800,599616101657021526,-238
1712851735808,599616101664687118,-259
1712851735816,599616101672352710,-224
1712851735823,599616101680018302,-302
1712851735831,599616101687683894,-426
1712851735839,599616101695349486,-422
1712851735846,599616101703015078,-321
1712851735854,599616101710680670,-247
1712851735862,599616101718346262,-208
1712851735869,599616101726011854,-220
1712851735877,599616101733677446,-282
1712851735885,599616101741343038,-286
1712851735892,599616101749008630,-224
1712851735900,599616101756674222,-165
1712851735908,599616101764339814,-117
1712851735915,599616101772005406,-105
1712851735923,599616101779670998,-126
1712851735931,599616101787336590,-100
1712851735937,599616101795002182,-22
1712851735945,599616101802667774,27
1712851735953,599616101810333366,36
1712851735961,599616101817998958,27
1712851735969,599616101825664550,-16
1712851735977,599616101833330142,-36
1712851735984,599616101840995734,94
1712851735992,599616101848661326,362
1712851736000,599616101856326918,559
1712851736007,599616101863992510,263
1712851736015,599616101871658102,-408
1712851736023,599616101879323694,-582
1712851736030,599616101886989286,-316
1712851736038,599616101894654878,-316
1712851736046,599616101902320470,-397
1712851736053,599616101909986062,-309
1712851736061,599616101917651654,-289
1712851736069,599616101925317246,-339
1712851736076,599616101932982838,-298
1712851736084,599616101940648430,-234
1712851736092,599616101948314022,-220
1712851736099,599616101955979614,-197
1712851736107,599616101963645206,-190
1712851736115,599616101971310798,-215
1712851736121,599616101978976390,-195
1712851736129,599616101986641982,-114
1712851736137,599616101994307574,-61
1712851736145,599616102001973166,-50
1712851736153,599616102009638758,-45
1712851736161,599616102017304350,-84
1712851736168,599616102024969942,-156
1712851736176,599616102032615524,-133
1712851736184,599616102040281394,-34
1712851736191,599616102047947264,22
1712851736199,599616102055613134,27
1712851736207,599616102063279004,-9
1712851736214,599616102070944874,-112
1712851736222,599616102078610744,-179
1712851736230,599616102086276614,-123
1712851736237,599616102093942484,-71
1712851736245,599616102101608354,-96
1712851736253,599616102109274224,-146
1712851736260,599616102116940094,-224
1712851736268,599616102124605964,-289
1712851736276,599616102132271834,-273
1712851736283,599616102139937704,-245
1712851736291,599616102147603574,-309
1712851736299,599616102155269444,-415
1712851736305,599616102162935314,-458
1712851736313,599616102170601184,-429
1712851736321,599616102178267054,-378
1712851736329,599616102185932924,-332
1712851736337,599616102193598794,-314
1712851736345,599616102201264664,-307
1712851736352,599616102208930534,-296
1712851736360,599616102216596404,-351
1712851736368,599616102224262274,-413
1712851736375,599616102231928144,-376
1712851736383,599616102239594014,-321
1712851736391,599616102247259884,-300
1712851736398,599616102254925754,-282
1712851736406,599616102262591624,-277
1712851736414,599616102270257494,-257
1712851736421,599616102277923364,-211
1712851736429,599616102285589234,-204
1712851736437,599616102293255104,-211
1712851736444,599616102300920974,-160
1712851736452,599616102308586844,-112
1712851736460,599616102316252714,-149
1712851736467,599616102323918584,-206
1712851736475,599616102331584454,-204
1712851736483,599616102339250324,-135
1712851736489,599616102346916194,-32
1712851736497,599616102354582064,55
1712851736505,599616102362247934,57
1712851736513,599616102369913804,-36
1712851736521,599616102377579674,-160
1712851736529,599616102385245544,-153
1712851736536,599616102392911414,-89
1712851736544,599616102400577284,-204
1712851736552,599616102408243154,-367
1712851736559,599616102415909024,-410
1712851736567,599616102423574894,-358
1712851736575,599616102431240764,-238
1712851736582,599616102438906634,-45
1712851736590,599616102446572504,250
1712851736598,599616102454238374,527
1712851736605,599616102461904244,284
1712851736613,599616102469570114,-348
1712851736621,599616102477235984,-431
1712851736628,599616102484901854,-142
1712851736636,599616102492567724,-160
1712851736644,599616102500233594,-245
1712851736651,599616102507899464,-231
1712851736659,599616102515565334,-270
1712851736667,599616102523231204,-289
1712851736673,599616102530897074,-238
1712851736681,599616102538562944,-201
1712851736689,599616102546228814,-201
1712851736697,599616102553894684,-268
1712851736705,599616102561560554,-376
1712851736713,599616102569226424,-371
1712851736720,599616102576892294,-275
1712851736728,599616102584558164,-220
1712851736736,599616102592219050,-190
1712851736743,599616102599884990,-183
1712851736751,599616102607550930,-227
1712851736759,599616102615216870,-229
1712851736766,599616102622882810,-160
1712851736774,599616102630548750,-107
1712851736782,599616102638214690,-75
1712851736789,599616102645880630,-52
1712851736797,599616102653546570,-112
1712851736805,599616102661212510,-192
1712851736812,599616102668878450,-144
1712851736820,599616102676544390,-64
1712851736828,599616102684210330,-84
1712851736835,599616102691876270,-112
1712851736843,599616102699542210,-110
1712851736851,599616102707208150,-169
1712851736857,599616102714874090,-222
1712851736865,599616102722540030,-211
1712851736873,599616102730205970,-204
1712851736881,599616102737871910,-204
1712851736889,599616102745537850,-222
1712851736897,599616102753203790,-298
1712851736904,599616102760869730,-328
1712851736912,599616102768535670,-238
1712851736920,599616102776201610,-165
1712851736927,599616102783867550,-165
1712851736935,599616102791533490,-128
1712851736943,599616102799199430,-68
1712851736950,599616102806865370,-59
1712851736958,599616102814531310,-11
1712851736966,599616102822197250,91
1712851736973,599616102829863190,144
1712851736981,599616102837529130,167
1712851736989,599616102845195070,206
1712851736996,599616102852861010,181
1712851737004,599616102860526950,121
1712851737012,599616102868192890,158
1712851737019,599616102875858830,240
1712851737027,599616102883524770,257
1712851737035,599616102891190710,259
1712851737041,599616102898856650,279
1712851737049,599616102906522590,289
1712851737057,599616102914188530,298
1712851737065,599616102921854470,321
1712851737073,599616102929520410,325
1712851737081,599616102937186350,318
1712851737088,599616102944852290,270
1712851737096,599616102952518230,181
1712851737104,599616102960184170,133
1712851737111,599616102967850110,123
1712851737119,599616102975516050,117
1712851737127,599616102983181990,123
1712851737134,599616102990847930,142
1712851737142,599616102998513870,149
1712851737150,599616103006179810,146
1712851737157,599616103013845750,151
1712851737165,599616103021511690,139
1712851737173,599616103029177630,126
1712851737180,599616103036843570,190
1712851737188,599616103044509510,378
1712851737196,599616103052175450,651
1712851737203,599616103059841390,686
1712851737211,599616103067507330,218
1712851737219,599616103075173270,-128
1712851737225,599616103082839210,87
1712851737233,599616103090505150,238
1712851737241,599616103098171090,123
1712851737249,599616103105837030,110
1712851737257,599616103113502970,160
1712851737265,599616103121168910,126
1712851737272,599616103128834850,107
1712851737280,599616103136500790,100
1712851737288,599616103144166730,13
1712851737295,599616103151862798,-55
1712851737303,599616103159528320,-87
1712851737311,599616103167193842,-165
1712851737318,599616103174859364,-183
1712851737326,599616103182524886,-103
1712851737334,599616103190190408,-59
1712851737341,599616103197855930,-87
1712851737349,599616103205521452,-89
1712851737357,599616103213186974,-29
1712851737364,599616103220852496,32
1712851737372,599616103228518018,71
1712851737380,599616103236183540,75
1712851737387,599616103243849062,41
1712851737395,599616103251514584,43
1712851737403,599616103259180106,110
1712851737409,599616103266845628,169
1712851737417,599616103274511150,213
1712851737425,599616103282176672,236
1712851737433,599616103289842194,183
1712851737441,599616103297507716,87
1712851737449,599616103305173238,52
1712851737456,599616103312838760,94
1712851737464,599616103320504282,117
1712851737472,599616103328169804,89
1712851737479,599616103335835326,57
1712851737487,599616103343500848,4
1712851737495,599616103351166370,-36
1712851737502,599616103358831892,6
1712851737510,599616103366497414,75
1712851737518,599616103374162936,112
1712851737525,599616103381828458,133
1712851737533,599616103389493980,128
1712851737541,599616103397159502,133
1712851737548,599616103404825024,146
1712851737556,599616103412490546,156
1712851737564,599616103420156068,208
1712851737571,599616103427821590,261
1712851737579,599616103435487112,243
1712851737587,599616103443152634,215
1712851737593,599616103450818156,254
1712851737601,599616103458483678,321
1712851737609,599616103466149200,360
1712851737617,599616103473814722,376
1712851737625,599616103481480244,332
1712851737633,599616103489145766,259
1712851737640,599616103496811288,270
1712851737648,599616103504476810,335
1712851737656,599616103512142332,355
1712851737663,599616103519807854,383
1712851737671,599616103527473376,401
1712851737679,599616103535138898,360
1712851737686,599616103542804420,335
1712851737694,599616103550469942,374
1712851737702,599616103558135464,387
1712851737709,599616103565800986,321
1712851737717,599616103573466508,238
1712851737725,599616103581132030,224
1712851737732,599616103588797552,215
1712851737740,599616103596463074,144
1712851737748,599616103604128596,121
1712851737755,599616103611794118,153
1712851737763,599616103619459640,126
1712851737771,599616103627125162,4
1712851737777,599616103634790684,-119
1712851737785,599616103642456206,-36
1712851737793,599616103650121728,309
1712851737801,599616103657787250,651
1712851737809,599616103665452772,493
1712851737817,599616103673118294,-208
1712851737824,599616103680783816,-543
1712851737832,599616103688449338,-229
1712851737840,599616103696114860,-61
1712851737847,599616103703780382,-139
1712851737855,599616103711420876,-84
1712851737863,599616103719086746,-32
1712851737870,599616103726752616,-82
1712851737878,599616103734418486,-94
1712851737886,599616103742084356,-103
1712851737893,599616103749750226,-176
1712851737901,599616103757416096,-199
1712851737909,599616103765081966,-130
1712851737916,599616103772747836,-153
1712851737924,599616103780413706,-250
1712851737932,599616103788079576,-208
1712851737939,599616103795745446,-137
1712851737947,599616103803411316,-185
1712851737955,599616103811077186,-169
1712851737961,599616103818743056,-91
1712851737969,599616103826408926,-149
1712851737977,599616103834074796,-236
1712851737985,599616103841740666,-195
1712851737993,599616103849406536,-133
1712851738001,599616103857072406,-100
1712851738008,599616103864738276,-41
1712851738016,599616103872404146,11
1712851738024,599616103880070016,43
1712851738031,599616103887735886,91
1712851738039,599616103895401756,91
1712851738047,599616103903067626,64
1712851738054,599616103910733496,105
1712851738062,599616103918399366,126
1712851738070,599616103926065236,66
1712851738077,599616103933731106,50
1712851738085,599616103941396976,82
1712851738093,599616103949062846,68
1712851738100,599616103956728716,61
1712851738108,599616103964394586,94
1712851738116,599616103972060456,107
1712851738123,599616103979726326,100
1712851738131,599616103987392196,110
1712851738137,599616103995058066,135
1712851738145,599616104002723936,172
1712851738153,599616104010389806,204
1712851738161,599616104018055676,181
1712851738169,599616104025721546,114
1712851738177,599616104033387416,94
1712851738184,599616104041053286,121
1712851738192,599616104048719156,142
1712851738200,599616104056385026,153
1712851738207,599616104064050896,169
1712851738215,599616104071716766,160
1712851738223,599616104079382636,117
1712851738230,599616104087048506,89
1712851738238,599616104094714376,123
1712851738246,599616104102380246,190
1712851738253,599616104110046116,224
1712851738261,599616104117711986,218
1712851738269,599616104125377856,211
1712851738276,599616104133043726,252
1712851738284,599616104140709596,328
1712851738292,599616104148375466,371
1712851738299,599616104156041336,371
1712851738307,599616104163707206,318
1712851738315,599616104171373076,185
1712851738321,599616104179038946,80
1712851738329,599616104186704816,119
1712851738337,599616104194370686,183
1712851738345,599616104202036556,172
1712851738353,599616104209702426,114
1712851738361,599616104217368296,27
1712851738368,599616104225034166,2
1712851738376,599616104232700036,71
1712851738384,599616104240365906,117
1712851738391,599616104248031776,133
1712851738399,599616104255697646,137
1712851738407,599616104263363516,123
1712851738414,599616104271049456,270
1712851738422,599616104278715048,656
1712851738430,599616104286380640,945
1712851738437,599616104294046232,628
1712851738445,599616104301711824,6
1712851738453,599616104309377416,-84
1712851738460,599616104317043008,119
1712851738468,599616104324708600,45
1712851738476,599616104332374192,-87
1712851738483,599616104340039784,-73
1712851738491,599616104347705376,-64
1712851738499,599616104355370968,-176
1712851738505,599616104363036560,-325
1712851738513,599616104370702152,-335
1712851738521,599616104378367744,-243
1712851738529,599616104386033336,-206
1712851738537,599616104393698928,-206
1712851738545,599616104401364520,-176
1712851738552,599616104409030112,-146
1712851738560,599616104416695704,-117
1712851738568,599616104424361296,-50
1712851738575,599616104432026888,18
1712851738583,599616104439692480,59
1712851738591,599616104447358072,89
1712851738598,599616104455023664,119
1712851738606,599616104462689256,160
1712851738614,599616104470354848,211
1712851738621,599616104478020440,257
1712851738629,599616104485686032,302
1712851738637,599616104493351624,348
1712851738644,599616104501017216,362
1712851738652,599616104508682808,337
1712851738660,599616104516348400,321
1712851738667,599616104524013992,339
1712851738675,599616104531679584,337
1712851738683,599616104539345176,291
1712851738689,599616104547010768,247
1712851738697,599616104554676360,172
1712851738705,599616104562341952,68
1712851738713,599616104570007544,18
1712851738721,599616104577673136,-16
1712851738729,599616104585338728,-73
1712851738736,599616104593004320,-61
1712851738744,599616104600669912,-16
1712851738752,599616104608335504,-27
1712851738759,599616104616001096,-50
1712851738767,599616104623666688,-29
1712851738775,599616104631332280,16
1712851738782,599616104638997872,59
1712851738790,599616104646663464,71
1712851738798,599616104654329056,61
1712851738805,599616104661994648,89
1712851738813,599616104669660240,123
1712851738821,599616104677325832,48
1712851738828,599616104684991424,-75
1712851738836,599616104692657016,-87
1712851738844,599616104700322608,-89
1712851738851,599616104707988200,-181
1712851738859,599616104715653792,-211
1712851738867,599616104723319384,-144
1712851738873,599616104730984976,-80
1712851738881,599616104738650568,-32
1712851738889,599616104746316160,2
1712851738897,599616104753981752,13
1712851738905,599616104761647344,11
1712851738913,599616104769312936,-9
1712851738920,599616104776978528,-16
1712851738928,599616104784644120,11
1712851738936,599616104792309712,36
1712851738943,599616104799975304,25
1712851738951,599616104807640896,-4
1712851738959,599616104815306488,-27
1712851738966,599616104822972080,-41
1712851738974,599616104830637678,-39
1712851738982,599616104838303270,-20
1712851738989,599616104845968862,-25
1712851738997,599616104853634454,-52
1712851739005,599616104861300046,-75
1712851739012,599616104868965638,-55
1712851739020,599616104876631230,2
1712851739028,599616104884296822,32
1712851739035,599616104891962414,73
1712851739043,599616104899628006,218
1712851739051,599616104907293598,403
1712851739057,599616104914959190,208
1712851739065,599616104922624782,-364
1712851739073,599616104930290374,-468
1712851739081,599616104937955966,-190
1712851739089,599616104945621558,-266
1712851739097,599616104953287150,-403
1712851739104,599616104960952742,-309
1712851739112,599616104968618334,-268
1712851739120,599616104976283926,-273
1712851739127,599616104983949518,-206
1712851739135,599616104991615110,-185
1712851739143,599616104999280702,-220
1712851739150,599616105006946294,-188
1712851739158,599616105014611886,-117
1712851739166,599616105022277478,-66
1712851739173,599616105029943070,-25
1712851739181,599616105037608662,-34
1712851739189,599616105045274254,-87
1712851739196,599616105052939846,-78
1712851739204,599616105060605438,-9
1712851739212,599616105068271030,-4
1712851739219,599616105075936622,-22
1712851739227,599616105083602214,13
1712851739235,599616105091267806,-6
1712851739241,599616105098933398,-68
1712851739249,599616105106598990,-11
1712851739257,599616105114264582,91
1712851739265,599616105121930174,121
1712851739273,599616105129595766,137
1712851739281,599616105137261358,137
1712851739288,599616105144926950,98
1712851739296,599616105152592542,84
1712851739304,599616105160258134,107
1712851739311,599616105167923726,112
1712851739319,599616105175589318,89
1712851739327,599616105183254910,-2
1712851739334,599616105190920502,-133
1712851739342,599616105198586094,-162
1712851739350,599616105206251686,-114
1712851739357,599616105213917278,-87
1712851739365,599616105221582870,-50
1712851739373,599616105229248462,-20
1712851739380,599616105236914054,-89
1712851739388,599616105244579646,-204
1712851739396,599616105252245238,-190
1712851739403,599616105259910830,-68
1712851739411,599616105267576422,-36
1712851739419,599616105275242014,-71
1712851739425,599616105282907606,-48
1712851739433,599616105290573198,-25
1712851739441,599616105298238790,-16
1712851739449,599616105305904382,20
1712851739457,599616105313569974,-6
1712851739465,599616105321235566,-91
1712851739472,599616105328901158,-84
1712851739480,599616105336566750,-34
1712851739488,599616105344232342,-32
1712851739495,599616105351897934,-39
1712851739503,599616105359563526,-64
1712851739511,599616105367229118,-98
1712851739518,599616105374894710,-68
1712851739526,599616105382560302,-27
1712851739534,599616105390205884,-29
1712851739541,599616105397871754,-11
1712851739549,599616105405537624,-11
1712851739557,599616105413203494,-68
1712851739564,599616105420869364,-64
1712851739572,599616105428535234,-29
1712851739580,599616105436201104,-135
1712851739587,599616105443866974,-220
1712851739595,599616105451532844,-162
1712851739603,599616105459198714,-149
1712851739609,599616105466864584,-172
1712851739617,599616105474530454,-126
1712851739625,599616105482196324,-82
1712851739633,599616105489862194,-55
1712851739641,599616105497528064,-18
1712851739649,599616105505193934,-9
1712851739656,599616105512859804,-39
1712851739664,599616105520525674,-82
1712851739672,599616105528191544,-64
1712851739679,599616105535857414,103
1712851739687,599616105543523284,376
1712851739695,599616105551189154,399
1712851739702,599616105558855024,-149
1712851739710,599616105566520894,-649
1712851739718,599616105574186764,-534
1712851739725,599616105581852634,-417
1712851739733,599616105589518504,-537
1712851739741,599616105597184374,-497
1712851739748,599616105604850244,-385
1712851739756,599616105612516114,-339
1712851739764,599616105620181984,-284
1712851739771,599616105627847854,-259
1712851739779,599616105635513724,-270
1712851739787,599616105643179594,-247
1712851739793,599616105650845464,-199
1712851739801,599616105658511334,-149
1712851739809,599616105666177204,-96
1712851739817,599616105673843074,-61
1712851739825,599616105681508944,-64
1712851739833,599616105689174814,-107
1712851739840,599616105696840684,-162
1712851739848,599616105704506554,-158
1712851739856,599616105712172424,-80
1712851739863,599616105719838294,2
1712851739871,599616105727504164,27
1712851739879,599616105735170034,39
1712851739886,599616105742835904,114
1712851739894,599616105750501774,188
1712851739902,599616105758167644,172
1712851739909,599616105765833514,119
1712851739917,599616105773499384,91
1712851739925,599616105781165254,34
1712851739932,599616105788831124,-2
1712851739940,599616105796496994,34
1712851739948,599616105804162864,36
1712851739955,599616105811828734,-9
1712851739963,599616105819494604,-27
1712851739971,599616105827160474,-82
1712851739977,599616105834826344,-151
1712851739985,599616105842492214,-149
1712851739993,599616105850158084,-103
1712851740001,599616105857823954,-36
1712851740009,599616105865489824,-6
1712851740017,599616105873155694,-57
1712851740024,599616105880821564,-61
1712851740032,599616105888487434,11
1712851740040,599616105896153304,48
1712851740047,599616105903819174,68
1712851740055,599616105911485044,100
1712851740063,599616105919150914,71
1712851740070,599616105926816784,11
1712851740078,599616105934482654,0
1712851740086,599616105942148524,27
1712851740093,599616105949809410,32
1712851740101,599616105957475350,-20
1712851740109,599616105965141290,-117
1712851740116,599616105972807230,-195
1712851740124,599616105980473170,-213
1712851740132,599616105988139110,-201
1712851740139,599616105995805050,-160
1712851740147,599616106003470990,-105
1712851740155,599616106011136930,-119
1712851740161,599616106018802870,-215
1712851740169,599616106026468810,-275
1712851740177,599616106034134750,-240
1712851740185,599616106041800690,-185
1712851740193,599616106049466630,-165
1712851740201,599616106057132570,-190
1712851740208,599616106064798510,-247
1712851740216,599616106072464450,-268
1712851740224,599616106080130390,-234
1712851740231,599616106087796330,-229
1712851740239,599616106095462270,-247
1712851740247,599616106103128210,-236
1712851740254,599616106110794150,-277
1712851740262,599616106118460090,-417
1712851740270,599616106126126030,-484
1712851740277,599616106133791970,-447
1712851740285,599616106141457910,-456
1712851740293,599616106149123850,-479
1712851740300,599616106156789790,-468
1712851740308,599616106164455730,-484
1712851740316,599616106172121670,-491
1712851740323,599616106179787610,-341
1712851740331,599616106187453550,-45
1712851740339,599616106195119490,135
1712851740345,599616106202785430,-114
1712851740353,599616106210451370,-637
1712851740361,599616106218117310,-752
1712851740369,599616106225783250,-470
1712851740377,599616106233449190,-392
1712851740385,599616106241115130,-452
1712851740392,599616106248781070,-367
1712851740400,599616106256447010,-284
1712851740408,599616106264112950,-302
1712851740415,599616106271778890,-291
1712851740423,599616106279444830,-236
1712851740431,599616106287110770,-254
1712851740438,599616106294776710,-300
1712851740446,599616106302442650,-321
1712851740454,599616106310108590,-385
1712851740461,599616106317774530,-458
1712851740469,599616106325440470,-415
1712851740477,599616106333106410,-337
1712851740484,599616106340772350,-316
1712851740492,599616106348438290,-263
1712851740500,599616106356104230,-183
1712851740507,599616106363770170,-137
1712851740515,599616106371436110,-110
1712851740523,599616106379102050,-105
1712851740529,599616106386767990,-80
1712851740537,599616106394433930,6
1712851740545,599616106402099870,71
1712851740553,599616106409765810,94
1712851740561,599616106417431750,139
1712851740569,599616106425097690,162
1712851740576,599616106432763630,135
1712851740584,599616106440429570,158
1712851740592,599616106448095510,208
1712851740599,599616106455761450,204
1712851740607,599616106463427390,153
1712851740615,599616106471093330,89
1712851740622,599616106478759270,45
1712851740630,599616106486425210,39
1712851740638,599616106494091150,57
1712851740645,599616106501757090,39
1712851740653,599616106509453158,-66
1712851740661,599616106517118680,-153
1712851740668,599616106524784202,-112
1712851740676,599616106532449724,-48
1712851740684,599616106540115246,-55
1712851740691,599616106547780768,-128
1712851740699,599616106555446290,-238
1712851740707,599616106563111812,-300
1712851740713,599616106570777334,-257
1712851740721,599616106578442856,-213
1712851740729,599616106586108378,-199
1712851740737,599616106593773900,-153
1712851740745,599616106601439422,-190
1712851740753,599616106609104944,-328
1712851740760,599616106616770466,-328
1712851740768,599616106624435988,-229
1712851740776,599616106632101510,-215
1712851740783,599616106639767032,-229
1712851740791,599616106647432554,-261
1712851740799,599616106655098076,-358
1712851740806,599616106662763598,-367
1712851740814,599616106670429120,-279
1712851740822,599616106678094642,-252
1712851740829,599616106685760164,-240
1712851740837,599616106693425686,-213
1712851740845,599616106701091208,-298
1712851740852,599616106708756730,-413
1712851740860,599616106716422252,-408
1712851740868,599616106724087774,-378
1712851740875,599616106731753296,-410
1712851740883,599616106739418818,-465
1712851740891,599616106747084340,-504
1712851740897,599616106754749862,-495
1712851740905,599616106762415384,-429
1712851740913,599616106770080906,-362
1712851740921,599616106777746428,-344
1712851740929,599616106785411950,-392
1712851740937,599616106793077472,-481
1712851740944,599616106800742994,-429
1712851740952,599616106808408516,-128
1712851740960,599616106816074038,185
1712851740967,599616106823739560,39
1712851740975,599616106831405082,-468
1712851740983,599616106839070604,-587
1712851740990,599616106846736126,-406
1712851740998,599616106854401648,-447
1712851741006,599616106862067170,-484
1712851741013,599616106869732692,-364
1712851741021,599616106877398214,-330
1712851741029,599616106885063736,-341
1712851741036,599616106892729258,-293
1712851741044,599616106900394780,-270
1712851741052,599616106908060302,-252
1712851741059,599616106915725824,-183
1712851741067,599616106923391346,-135
1712851741073,599616106931056868,-133
1712851741081,599616106938722390,-105
1712851741089,599616106946387912,-82
1712851741097,599616106954053434,-100
1712851741105,599616106961718956,-73
1712851741113,599616106969384478,-2
1712851741120,599616106977050000,13
1712851741128,599616106984715522,29
1712851741136,599616106992381044,73
1712851741143,599616107000046566,78
1712851741151,599616107007712088,75
1712851741159,599616107015377610,130
1712851741166,599616107023043132,162
1712851741174,599616107030708654,142
1712851741182,599616107038374176,48
1712851741189,599616107046039698,-87
1712851741197,599616107053705220,-98
1712851741205,599616107061370742,-25
1712851741212,599616107069036292,-29
1712851741220,599616107076701814,-66
1712851741228,599616107084367336,-61
1712851741235,599616107092032858,-66
1712851741243,599616107099698380,-68
1712851741251,599616107107363902,-48
1712851741257,599616107115029424,-52
1712851741265,599616107122694946,-45
1712851741273,599616107130360468,4
1712851741281,599616107138025990,-27
1712851741289,599616107145691512,-142
1712851741297,599616107153357034,-158
1712851741304,599616107161022556,-139
1712851741312,599616107168688078,-176
1712851741320,599616107176353600,-179
1712851741327,599616107184019122,-204
1712851741335,599616107191684644,-275
1712851741343,599616107199350166,-282
1712851741350,599616107207015688,-330
1712851741358,599616107214681210,-440
1712851741366,599616107222346732,-401
1712851741373,599616107230012254,-302
1712851741381,599616107237677776,-339
1712851741389,599616107245343298,-367
1712851741396,599616107253008820,-316
1712851741404,599616107260674342,-286
1712851741412,599616107268339864,-257
1712851741419,599616107276005386,-206
1712851741427,599616107283670908,-201
1712851741435,599616107291336430,-250
1712851741441,599616107299001952,-257
1712851741449,599616107306667474,-227
1712851741457,599616107314332996,-211
1712851741465,599616107321998518,-211
1712851741473,599616107329664040,-238
1712851741481,599616107337329562,-309
1712851741488,599616107344995084,-383
1712851741496,599616107352660606,-387
1712851741504,599616107360326128,-344
1712851741511,599616107367991650,-309
1712851741519,599616107375657172,-266
1712851741527,599616107383322694,-289
1712851741534,599616107390988216,-376
1712851741542,599616107398653738,-348
1712851741550,599616107406319260,-268
1712851741557,599616107413984782,-243
1712851741565,599616107421650304,-121
1712851741573,599616107429315826,123
1712851741580,599616107436981348,337
1712851741588,599616107444646870,362
1712851741596,599616107452312392,52
1712851741603,599616107459977914,-259
1712851741611,599616107467643436,-149
1712851741619,599616107475308958,9
1712851741625,599616107482974480,-48
1712851741633,599616107490640002,-52
1712851741641,599616107498305524,27
1712851741649,599616107505971046,55
1712851741657,599616107513636568,80
1712851741665,599616107521302090,110
1712851741672,599616107528967612,41
1712851741680,599616107536633134,-59
1712851741688,599616107544298656,-36
1712851741695,599616107551964178,18
1712851741703,599616107559629700,22
1712851741711,599616107567295222,50
1712851741718,599616107574960744,18
1712851741726,599616107582626266,-114
1712851741734,599616107590291788,-142
1712851741741,599616107597957310,-43
1712851741749,599616107605622832,-4
1712851741757,599616107613288354,-2
1712851741764,599616107620953876,27
1712851741772,599616107628589330,13
1712851741780,599616107636255270,4
1712851741787,599616107643921210,84
1712851741795,599616107651587150,176
1712851741803,599616107659253090,179
1712851741809,599616107666919030,137
1712851741817,599616107674584970,78
1712851741825,599616107682250910,9
1712851741833,599616107689916850,4
1712851741841,599616107697582790,13
1712851741849,599616107705248730,-39
1712851741856,599616107712914670,-142
1712851741864,599616107720580610,-314
1712851741872,599616107728246550,-452
1712851741879,599616107735912490,-413
1712851741887,599616107743578430,-321
1712851741895,599616107751244370,-314
1712851741902,599616107758910310,-307
1712851741910,599616107766576250,-252
1712851741918,599616107774242190,-236
1712851741925,599616107781908130,-277
1712851741933,599616107789574070,-286
1712851741941,599616107797240010,-277
1712851741948,599616107804905950,-279
1712851741956,599616107812571890,-257
1712851741964,599616107820237830,-247
1712851741971,599616107827903770,-259
1712851741979,599616107835569710,-222
1712851741987,599616107843235650,-176
1712851741993,599616107850901590,-185
1712851742001,599616107858567530,-183
1712851742009,599616107866233470,-133
1712851742017,599616107873899410,-119
1712851742025,599616107881565350,-128
1712851742033,599616107889231290,-121
1712851742040,599616107896897230,-117
1712851742048,599616107904563170,-112
1712851742056,599616107912229110,-130
1712851742063,599616107919895050,-174
1712851742071,599616107927560990,-167
1712851742079,599616107935226930,-130
1712851742086,599616107942892870,-169
1712851742094,599616107950558810,-222
1712851742102,599616107958224750,-213
1712851742109,599616107965890690,-243
1712851742117,599616107973556630,-325
1712851742125,599616107981222570,-339
1712851742132,599616107988888510,-302
1712851742140,599616107996554450,-293
1712851742148,599616108004220390,-266
1712851742155,599616108011886330,-220
1712851742163,599616108019552270,-222
1712851742171,599616108027218210,-282
1712851742177,599616108034884150,-312
1712851742185,599616108042550090,-179
1712851742193,599616108050216030,89
1712851742201,599616108057881970,330
1712851742209,599616108065547910,222
1712851742217,599616108073213850,-314
1712851742224,599616108080879790,-594
1712851742232,599616108088545730,-344
1712851742240,599616108096211670,-183
1712851742247,599616108103877610,-231
1712851742255,599616108111543550,-165
1712851742263,599616108119209490,-96
1712851742270,599616108126875430,-135
1712851742278,599616108134541370,-130
1712851742286,599616108142207310,-68
1712851742293,599616108149873250,-9
1712851742301,599616108157539190,22
1712851742309,599616108165205130,-4
1712851742316,599616108172871070,-48
1712851742324,599616108180537010,-34
1712851742332,599616108188233078,29
1712851742339,599616108195898600,94
1712851742347,599616108203564122,142
1712851742355,599616108211229644,139
1712851742361,599616108218895166,52
1712851742369,599616108226560688,-20
1712851742377,599616108234226210,27
1712851742385,599616108241891732,78
1712851742393,599616108249557254,75
1712851742401,599616108257222776,110
1712851742408,599616108264888298,128
1712851742416,599616108272553820,80
1712851742424,599616108280219342,68
1712851742431,599616108287884864,110
1712851742439,599616108295550386,139
1712851742447,599616108303215908,123
1712851742454,599616108310881430,-2
1712851742462,599616108318546952,-149
1712851742470,599616108326212474,-158
1712851742477,599616108333877996,-121
1712851742485,599616108341543518,-123
1712851742493,599616108349209040,-137
1712851742500,599616108356874562,-190
1712851742508,599616108364540084,-224
1712851742516,599616108372205606,-156
1712851742523,599616108379871128,-52
1712851742531,599616108387536650,11
1712851742539,599616108395202172,43
1712851742545,599616108402867694,36
1712851742553,599616108410533216,-18
1712851742561,599616108418198738,-57
1712851742569,599616108425864260,-48
1712851742577,599616108433529782,-32
1712851742585,599616108441195304,-22
1712851742592,599616108448860826,-13
1712851742600,599616108456526348,-66
1712851742608,599616108464191870,-151
1712851742615,599616108471857392,-137
1712851742623,599616108479522914,-75
1712851742631,599616108487188436,-52
1712851742638,599616108494853958,-59
1712851742646,599616108502519480,-82
1712851742654,599616108510185002,-107
1712851742661,599616108517850524,-126
1712851742669,599616108525516046,-142
1712851742677,599616108533181568,-146
1712851742684,599616108540847090,-130
1712851742692,599616108548512612,-119
1712851742700,599616108556178134,-133
1712851742707,599616108563843656,-165
1712851742715,599616108571509178,-174
1712851742723,599616108579174700,-185
1712851742729,599616108586840222,-257
1712851742737,599616108594505744,-362
1712851742745,599616108602171266,-456
1712851742753,599616108609836788,-502
1712851742761,599616108617502310,-454
1712851742769,599616108625167832,-403
1712851742776,599616108632833354,-472
1712851742784,599616108640498876,-502
1712851742792,599616108648164398,-316
1712851742799,599616108655829920,-50
1712851742807,599616108663495442,94
1712851742815,599616108671160964,-78
1712851742822,599616108678826486,-475
1712851742830,599616108686492008,-539
1712851742838,599616108694157530,-323
1712851742845,599616108701823052,-284
1712851742853,599616108709488574,-307
1712851742861,599616108717154096,-250
1712851742868,599616108724819618,-259
1712851742876,599616108732485140,-341
1712851742884,599616108740150662,-351
1712851742891,599616108747816214,-286
1712851742899,599616108755481736,-263
1712851742907,599616108763147258,-314
1712851742913,599616108770812780,-346
1712851742921,599616108778478302,-293
1712851742929,599616108786143824,-227
1712851742937,599616108793809346,-277
1712851742945,599616108801474868,-415
1712851742953,599616108809140390,-429
1712851742960,599616108816805912,-323
1712851742968,599616108824471434,-263
1712851742976,599616108832136956,-211
1712851742983,599616108839802478,-135
1712851742991,599616108847468000,-80
1712851742999,599616108855133522,-27
1712851743006,599616108862799044,6
1712851743014,599616108870464566,22
1712851743022,599616108878130088,71
1712851743029,599616108885795610,119
1712851743037,599616108893461132,98
1712851743045,599616108901126654,87
1712851743052,599616108908792176,158
1712851743060,599616108916457698,197
1712851743068,599616108924123220,167
1712851743075,599616108931788742,162
1712851743083,599616108939454264,165
1712851743091,599616108947119786,119
1712851743097,599616108954785308,55
1712851743105,599616108962450830,20
1712851743113,599616108970116352,48
1712851743121,599616108977781874,100
1712851743129,599616108985447396,91
1712851743137,599616108993112918,-2
1712851743144,599616109000778440,-103
1712851743152,599616109008443962,-139
1712851743160,599616109016109484,-135
1712851743167,599616109023775006,-105
1712851743175,599616109031440528,-73
1712851743183,599616109039106050,-96
1712851743190,599616109046771572,-153
1712851743198,599616109054437094,-176
1712851743206,599616109062102616,-156
1712851743213,599616109069768138,-133
1712851743221,599616109077433660,-112
1712851743229,599616109085099182,-91
1712851743236,599616109092764704,-96
1712851743244,599616109100430226,-75
1712851743252,599616109108095748,-9
1712851743259,599616109115761270,36
1712851743267,599616109123426792,48
1712851743275,599616109131092314,27
1712851743281,599616109138757836,-78
1712851743289,599616109146423358,-169
1712851743297,599616109154088880,-135
1712851743305,599616109161754402,-94
1712851743313,599616109169419924,-103
1712851743321,599616109177085446,-98
1712851743328,599616109184750968,-114
1712851743336,599616109192416490,-130
1712851743344,599616109200082012,-80
1712851743351,599616109207747534,-52
1712851743359,599616109215413056,-112
1712851743367,599616109223078578,-192
1712851743374,599616109230744100,-266
1712851743382,599616109238409622,-261
1712851743390,599616109246075144,-48
1712851743397,599616109253740666,126
1712851743405,599616109261406188,-206
1712851743413,599616109269071710,-727
1712851743420,599616109276737232,-711
1712851743428,599616109284402754,-468
1712851743436,599616109292068276,-472
1712851743443,599616109299733798,-481
1712851743451,599616109307399348,-424
1712851743459,599616109315064870,-447
1712851743465,599616109322730392,-468
1712851743473,599616109330395914,-458
1712851743481,599616109338061436,-475
1712851743489,599616109345726958,-413
1712851743497,599616109353392480,-263
1712851743504,599616109361058002,-169
1712851743512,599616109368723524,-126
1712851743520,599616109376389046,-73
1712851743527,599616109384054568,-68
1712851743535,599616109391720090,-78
1712851743543,599616109399385612,-13
1712851743550,599616109407051134,39
1712851743558,599616109414716656,22
1712851743566,599616109422382178,20
1712851743573,599616109430047700,16
1712851743581,599616109437713222,-22
1712851743589,599616109445378744,-13
1712851743596,599616109453044266,43
1712851743604,599616109460709788,73
1712851743612,599616109468375310,89
1712851743619,599616109476040832,117
1712851743627,599616109483706354,112
1712851743635,599616109491371876,94
1712851743641,599616109499037398,59
1712851743649,599616109506702920,-20
1712851743657,599616109514368442,-71
1712851743665,599616109522033964,-96
1712851743673,599616109529699486,-213
1712851743681,599616109537365008,-316
1712851743688,599616109545030530,-296
1712851743696,599616109552696052,-282
1712851743704,599616109560361574,-314
1712851743711,599616109568027096,-286
1712851743719,599616109575692618,-245
1712851743727,599616109583358140,-245
1712851743734,599616109591023662,-224
1712851743742,599616109598689184,-181
1712851743750,599616109606354706,-176
1712851743757,599616109614020228,-169
1712851743765,599616109621685750,-103
1712851743773,599616109629351272,-61
1712851743780,599616109637016794,-87
1712851743788,599616109644682316,-78
1712851743796,599616109652347838,-27
1712851743803,599616109660013360,-16
1712851743811,599616109667678882,-41
1712851743819,599616109675344404,-91
1712851743825,599616109683009926,-130
1712851743833,599616109690675448,-117
1712851743841,599616109698340970,-121
1712851743849,599616109706006492,-142
1712851743857,599616109713672014,-107
1712851743865,599616109721337536,-91
1712851743872,599616109729003058,-156
1712851743880,599616109736668580,-238
1712851743888,599616109744334102,-332
1712851743895,599616109751999624,-413
1712851743903,599616109759665146,-401
1712851743911,599616109767330668,-332
1712851743918,599616109774996190,-307
1712851743926,599616109782661712,-337
1712851743934,599616109790327234,-337
1712851743941,599616109797992756,-298
1712851743949,599616109805658278,-236
1712851743957,599616109813323800,-45
1712851743964,599616109820989322,300
1712851743972,599616109828654844,509
1712851743980,599616109836320366,144
1712851743987,599616109843985888,-440
1712851743995,599616109851651410,-440
1712851744003,599616109859316932,-229
1712851744009,599616109866982482,-406
1712851744017,599616109874648004,-596
1712851744025,599616109882313526,-550
1712851744033,599616109889979048,-495
1712851744041,599616109897644570,-491
1712851744049,599616109905310092,-433
1712851744056,599616109912975614,-417
1712851744064,599616109920641136,-518
1712851744072,599616109928306658,-562
1712851744079,599616109935972180,-479
1712851744087,599616109943637702,-417
1712851744095,599616109951303224,-397
1712851744102,599616109958968746,-369
1712851744110,599616109966634268,-376
1712851744118,599616109974299790,-376
1712851744125,599616109981965312,-307
1712851744133,599616109989630834,-270
1712851744141,599616109997296356,-298
1712851744148,599616110004961878,-270
1712851744156,599616110012627400,-206
1712851744164,599616110020292922,-204
1712851744171,599616110027958444,-183
1712851744179,599616110035623966,-91
1712851744187,599616110043289488,-18
1712851744193,599616110050955010,-6
1712851744201,599616110058620532,-25
1712851744209,599616110066286054,-96
1712851744217,599616110073951576,-192
1712851744225,599616110081617098,-201
1712851744233,599616110089282620,-151
1712851744240,599616110096948142,-165
1712851744248,599616110104613664,-234
1712851744256,599616110112279186,-268
1712851744263,599616110119944708,-259
1712851744271,599616110127610230,-206
1712851744279,599616110135275752,-139
1712851744286,599616110142941274,-123
1712851744294,599616110150606796,-144
1712851744302,599616110158272318,-137
1712851744309,599616110165937840,-82
1712851744317,599616110173603362,0
1712851744325,599616110181268884,84
1712851744332,599616110188934406,139
1712851744340,599616110196599928,137
1712851744348,599616110204265450,94
1712851744355,599616110211930972,68
1712851744363,599616110219596494,50
1712851744371,599616110227262016,41
1712851744377,599616110234927538,13
1712851744385,599616110242593060,-84
1712851744393,599616110250258582,-158
1712851744401,599616110257924104,-114
1712851744409,599616110265589626,-66
1712851744417,599616110273255148,-55
1712851744424,599616110280920670,-36
1712851744432,599616110288586192,-27
1712851744440,599616110296251714,-11
1712851744447,599616110303917236,9
1712851744455,599616110311582758,13
1712851744463,599616110319248280,32
1712851744470,599616110326913802,18
1712851744478,599616110334579324,-20
1712851744486,599616110342244846,39
1712851744493,599616110349910368,130
1712851744501,599616110357575890,133
1712851744509,599616110365241412,133
1712851744516,599616110372906934,160
1712851744524,599616110380572456,201
1712851744532,599616110388237978,387
1712851744539,599616110395903500,716
1712851744547,599616110403569022,862
1712851744555,599616110411234544,440
1712851744561,599616110418900066,-139
1712851744569,599616110426565616,-84
1712851744577,599616110434231138,213
1712851744585,599616110441896660,197
1712851744593,599616110449562182,169
1712851744601,599616110457227704,247
1712851744608,599616110464893226,268
1712851744616,599616110472558748,273
1712851744624,599616110480224270,234
1712851744631,599616110487889792,103
1712851744639,599616110495555314,4
1712851744647,599616110503220836,-82
1712851744654,599616110510886358,-188
1712851744662,599616110518551880,-160
1712851744670,599616110526217402,-59
1712851744677,599616110533882924,-13
1712851744685,599616110541548446,-2
1712851744693,599616110549213968,-9
1712851744700,599616110556879490,11
1712851744708,599616110564545012,48
1712851744716,599616110572210534,84
1712851744723,599616110579876056,135
1712851744731,599616110587541578,199
1712851744739,599616110595207100,261
1712851744745,599616110602872622,245
1712851744753,599616110610538144,176
1712851744761,599616110618203666,215
1712851744769,599616110625869188,339
1712851744777,599616110633534710,378
1712851744785,599616110641200232,346
1712851744792,599616110648865754,351
1712851744800,599616110656531276,346
1712851744808,599616110664196798,298
1712851744815,599616110671862320,291
1712851744823,599616110679527842,346
1712851744831,599616110687193364,419
1712851744838,599616110694858886,419
1712851744846,599616110702524408,374
1712851744854,599616110710189930,390
1712851744861,599616110717855452,431
1712851744869,599616110725520974,429
1712851744877,599616110733186496,401
1712851744884,599616110740852018,263
1712851744892,599616110748517540,57
1712851744900,599616110756183062,11
1712851744907,599616110763848584,98
1712851744915,599616110771514106,142
1712851744923,599616110779179628,190
1712851744929,599616110786845150,279
1712851744937,599616110794510672,296
1712851744945,599616110802176194,252
1712851744953,599616110809841716,270
1712851744961,599616110817507238,339
1712851744969,599616110825172760,380
1712851744976,599616110832838282,394
1712851744984,599616110840503804,399
1712851744992,599616110848169326,408
1712851744999,599616110855834848,440
1712851745007,599616110863500370,484
1712851745015,599616110871165892,500
1712851745022,599616110878831414,509
1712851745030,599616110886496936,509
1712851745038,599616110894162458,465
1712851745045,599616110901827980,436
1712851745053,599616110909493502,452
1712851745061,599616110917159024,468
1712851745068,599616110924824546,481
1712851745076,599616110932490068,479
1712851745084,599616110940155590,401
1712851745091,599616110947821112,273
1712851745099,599616110955486634,213
1712851745107,599616110963152156,270
1712851745113,599616110970817678,442
1712851745121,599616110978483200,670
1712851745129,599616110986148750,761
1712851745137,599616110993814272,419
1712851745145,599616111001479794,-57
1712851745153,599616111009145316,-4
1712851745160,599616111016810838,245
1712851745168,599616111024476360,188
1712851745176,599616111032141882,112
1712851745183,599616111039807404,100
1712851745191,599616111047472926,9
1712851745199,599616111055138448,0
1712851745206,599616111062803970,73
1712851745214,599616111070469492,64
1712851745222,599616111078135014,50
1712851745229,599616111085800536,57
1712851745237,599616111093466058,-4
1712851745245,599616111101131580,-61
1712851745252,599616111108797102,-71
1712851745260,599616111116462624,-103
1712851745268,599616111124128146,-151
1712851745275,599616111131793668,-185
1712851745283,599616111139459190,-236
1712851745291,599616111147124712,-261
1712851745297,599616111154790234,-201
1712851745305,599616111162455756,-133
1712851745313,599616111170121278,-87
1712851745321,599616111177786800,-32
1712851745329,599616111185452322,-13
1712851745337,599616111193117844,-4
1712851745344,599616111200783366,34
1712851745352,599616111208448888,41
1712851745360,599616111216114410,27
1712851745367,599616111223779932,9
1712851745375,599616111231445454,-71
1712851745383,599616111239110976,-169
1712851745390,599616111246776498,-268
1712851745398,599616111254442020,-417
1712851745406,599616111262107542,-507
1712851745413,599616111269773064,-481
1712851745421,599616111277438586,-504
1712851745429,599616111285104108,-624
1712851745436,599616111292769630,-663
1712851745444,599616111300435152,-596
1712851745452,599616111308100674,-541
1712851745459,599616111315766196,-475
1712851745467,599616111323431718,-376
1712851745475,599616111331097240,-341
1712851745481,599616111338762762,-341
1712851745489,599616111346428284,-293
1712851745497,599616111354093806,-236
1712851745505,599616111361759328,-188
1712851745513,599616111369424850,-121
1712851745521,599616111377090372,-84
1712851745528,599616111384755894,-103
1712851745536,599616111392421416,-100
1712851745544,599616111400086938,-64
1712851745551,599616111407752460,-25
1712851745559,599616111415417982,9
1712851745567,599616111423083504,41
1712851745574,599616111430749026,43
1712851745582,599616111438414548,18
1712851745590,599616111446080070,6
1712851745597,599616111453745592,32
1712851745605,599616111461411114,57
1712851745613,599616111469076636,11
1712851745620,599616111476742158,-133
1712851745628,599616111484407680,-254
1712851745636,599616111492073202,-245
1712851745643,599616111499738724,-172
1712851745651,599616111507404246,-121
1712851745659,599616111515069768,-91
1712851745665,599616111522735290,-68
1712851745673,599616111530400812,-80
1712851745681,599616111538066334,-126
1712851745689,599616111545731884,-114
1712851745697,599616111553397406,29
1712851745705,599616111561062928,325
1712851745712,599616111568728450,628
1712851745720,599616111576393972,383
1712851745727,599616111584059494,-387
1712851745735,599616111591725016,-608
1712851745743,599616111599390538,-247
1712851745750,599616111607056060,-169
1712851745758,599616111614721582,-268
1712851745766,599616111622387104,-279
1712851745773,599616111630052626,-353
1712851745781,599616111637718148,-362
1712851745789,599616111645383670,-263
1712851745796,599616111653049192,-231
1712851745804,599616111660714714,-206
1712851745812,599616111668380236,-158
1712851745819,599616111676045758,-172
1712851745827,599616111683711280,-160
1712851745835,599616111691376802,-75
1712851745841,599616111699042324,-18
1712851745849,599616111706707846,-13
1712851745857,599616111714373368,-59
1712851745865,599616111722038890,-179
1712851745873,599616111729704412,-234
1712851745881,599616111737369934,-174
1712851745888,599616111745035456,-158
1712851745896,599616111752700978,-201
1712851745904,599616111760366500,-261
1712851745911,599616111768032022,-328
1712851745919,599616111775697544,-321
1712851745927,599616111783363066,-243
1712851745934,599616111791028588,-190
1712851745942,599616111798694110,-192
1712851745950,599616111806359632,-234
1712851745957,599616111814025154,-300
1712851745965,599616111821690676,-403
1712851745973,599616111829356198,-488
1712851745980,599616111837021720,-475
1712851745988,599616111844687242,-447
1712851745996,599616111852352764,-465
1712851746003,599616111860018286,-445
1712851746011,599616111867683808,-419
1712851746019,599616111875349330,-436
1712851746025,599616111883014852,-397
1712851746033,599616111890680374,-302
1712851746041,599616111898345896,-266
1712851746049,599616111906011418,-263
1712851746057,599616111913676940,-238
1712851746065,599616111921342462,-218
1712851746072,599616111929007984,-188
1712851746080,599616111936673506,-146
1712851746088,599616111944339028,-128
1712851746095,599616111952004550,-114
1712851746103,599616111959670072,-103
1712851746111,599616111967335594,-114
1712851746118,599616111975001116,-114
1712851746126,599616111982666638,-89
1712851746134,599616111990332160,-82
1712851746141,599616111997997682,-57
1712851746149,599616112005663204,-4
1712851746157,599616112013328726,-9
1712851746164,599616112020994248,-59
1712851746172,599616112028659770,-59
1712851746180,599616112036325292,-41
1712851746187,599616112043990814,-29
1712851746195,599616112051656336,6
1712851746203,599616112059321858,32
1712851746209,599616112066987380,13
1712851746217,599616112074652902,-4
1712851746225,599616112082318424,-4
1712851746233,599616112089983946,16
1712851746241,599616112097649468,55
1712851746249,599616112105284924,87
1712851746256,599616112112950864,98
1712851746264,599616112120616804,78
1712851746272,599616112128282744,29
1712851746279,599616112135948684,75
1712851746287,599616112143614624,358
1712851746295,599616112151280564,768
1712851746302,599616112158946504,782
1712851746310,599616112166612444,2
1712851746318,599616112174278384,-683
1712851746325,599616112181944324,-449
1712851746333,599616112189610264,-151
1712851746341,599616112197276204,-247
1712851746348,599616112204942144,-240
1712851746356,599616112212608084,-190
1712851746364,599616112220274024,-250
1712851746371,599616112227939964,-266
1712851746379,599616112235605904,-236
1712851746387,599616112243271844,-204
1712851746393,599616112250937784,-137
1712851746401,599616112258603724,-133
1712851746409,599616112266269664,-231
1712851746417,599616112273935604,-257
1712851746425,599616112281601544,-179
1712851746433,599616112289267484,-123
1712851746440,599616112296933424,-75
1712851746448,599616112304599364,-25
1712851746456,599616112312265304,-39
1712851746463,599616112319931244,-50
1712851746471,599616112327597184,-6
1712851746479,599616112335263124,13
1712851746486,599616112342929064,-2
1712851746494,599616112350595004,-41
1712851746502,599616112358260944,-103
1712851746509,599616112365926884,-121
1712851746517,599616112373592824,-100
1712851746525,599616112381258764,-98
1712851746532,599616112388924704,-68
1712851746540,599616112396590644,-45
1712851746548,599616112404256584,-119
1712851746555,599616112411922524,-188
1712851746563,599616112419588464,-169
1712851746571,599616112427254404,-162
1712851746577,599616112434920344,-204
1712851746585,599616112442586284,-222
1712851746593,599616112450252224,-257
1712851746601,599616112457918164,-367
1712851746609,599616112465584104,-429
1712851746617,599616112473250044,-355
1712851746624,599616112480915984,-270
1712851746632,599616112488581924,-263
1712851746640,599616112496247864,-291
1712851746647,599616112503913804,-314
1712851746655,599616112511579744,-316
1712851746663,599616112519245684,-282
1712851746670,599616112526911624,-220
1712851746678,599616112534577564,-204
1712851746686,599616112542243504,-240
1712851746693,599616112549909444,-305
1712851746701,599616112557575384,-346
1712851746709,599616112565241324,-296
1712851746716,599616112572907264,-227
1712851746724,599616112580573204,-218
1712851746732,599616112588239144,-201
1712851746739,599616112595905084,-158
1712851746747,599616112603571024,-144
1712851746755,599616112611236964,-133
1712851746761,599616112618902904,-68
1712851746769,599616112626568844,6
1712851746777,599616112634234784,9
1712851746785,599616112641900724,-11
1712851746793,599616112649566664,6
1712851746801,599616112657232604,18
1712851746808,599616112664928672,27
1712851746816,599616112672594194,61
1712851746824,599616112680259716,73
1712851746831,599616112687925238,50
1712851746839,599616112695590760,9
1712851746847,599616112703256282,-68
1712851746854,599616112710921804,-100
1712851746862,599616112718587326,-29
1712851746870,599616112726252848,-20
1712851746877,599616112733918370,-87
1712851746885,599616112741583892,-80
1712851746893,599616112749249414,-16
1712851746900,599616112756914936,149
1712851746908,599616112764580458,364
1712851746916,599616112772245980,119
1712851746923,599616112779911502,-484
1712851746931,599616112787577024,-608
1712851746939,599616112795242546,-472
1712851746945,599616112802908068,-585
1712851746953,599616112810573590,-605
1712851746961,599616112818239112,-475
1712851746969,599616112825904634,-433
1712851746977,599616112833570156,-406
1712851746985,599616112841235678,-364
1712851746992,599616112848901200,-348
1712851747000,599616112856566722,-321
1712851747008,599616112864232244,-279
1712851747015,599616112871897766,-252
1712851747023,599616112879563288,-206
1712851747031,599616112887228810,-185
1712851747038,599616112894894332,-245
1712851747046,599616112902559854,-277
1712851747054,599616112910225376,-245
1712851747061,599616112917890898,-247
1712851747069,599616112925556420,-245
1712851747077,599616112933221942,-208
1712851747084,599616112940887464,-227
1712851747092,599616112948552986,-277
1712851747100,599616112956218508,-277
1712851747107,599616112963884030,-211
1712851747115,599616112971549552,-130
1712851747123,599616112979215074,-100
1712851747129,599616112986880596,-137
1712851747137,599616112994546118,-190
1712851747145,599616113002211640,-195
1712851747153,599616113009877162,-201
1712851747161,599616113017542684,-222
1712851747169,599616113025208206,-199
1712851747176,599616113032873728,-204
1712851747184,599616113040539250,-286
1712851747192,599616113048204772,-355
1712851747199,599616113055870294,-339
1712851747207,599616113063535816,-282
1712851747215,599616113071201338,-234
1712851747222,599616113078866860,-192
1712851747230,599616113086532382,-240
1712851747238,599616113094197904,-367
1712851747245,599616113101863426,-353
1712851747253,599616113109528948,-243
1712851747261,599616113117194470,-206
1712851747268,599616113124859992,-183
1712851747276,599616113132525514,-144
1712851747284,599616113140191036,-153
1712851747291,599616113147856558,-126
1712851747299,599616113155522080,-36
1712851747307,599616113163187602,9
1712851747313,599616113170853124,36
1712851747321,599616113178518646,55
1712851747329,599616113186184168,16
1712851747337,599616113193849690,-39
1712851747345,599616113201515212,-52
1712851747353,599616113209180734,-9
1712851747360,599616113216846256,39
1712851747368,599616113224511806,20
