phoneTimestamp,sensorTimestamp,ecg
1711359517572,599616081203440068,12114
1711359517579,599616081211106356,12037
1711359517587,599616081218772644,12327
1711359517593,599616081226438932,12496
1711359517601,599616081234105220,12365
1711359517609,599616081241771508,12234
1711359517617,599616081249437796,12255
1711359517625,599616081257104084,12280
1711359517633,599616081264770372,12297
1711359517640,599616081272436660,12348
1711359517648,599616081280102948,12325
1711359517656,599616081287769236,12210
1711359517663,599616081295435524,12138
1711359517671,599616081303101812,12201
1711359517679,599616081310768100,12381
1711359517686,599616081318434388,12316
1711359517694,599616081326100676,11944
1711359517702,599616081333766964,11777
1711359517709,599616081341433252,11782
1711359517717,599616081349099540,11689
1711359517725,599616081356765828,11656
1711359517732,599616081364432116,11665
1711359517740,599616081372098404,11600
1711359517748,599616081379764692,11529
1711359517755,599616081387430980,11438
1711359517763,599616081395097268,11338
1711359517771,599616081402763556,11331
1711359517777,599616081410429844,11317
1711359517785,599616081418096132,11258
1711359517793,599616081425762420,11214
1711359517801,599616081433428708,11033
1711359517809,599616081441094996,10823
1711359517817,599616081448761284,10792
1711359517824,599616081456427572,10739
1711359517832,599616081464093860,10544
1711359517840,599616081471760148,10449
1711359517847,599616081479426436,10402
1711359517855,599616081487092724,10250
1711359517863,599616081494759012,10156
1711359517870,599616081502425300,10116
1711359517878,599616081510091588,9981
1711359517886,599616081517757876,9901
1711359517893,599616081525424164,9887
1711359517901,599616081533090452,9765
1711359517909,599616081540756740,9655
1711359517916,599616081548423028,9609
1711359517924,599616081556089316,9482
1711359517932,599616081563755604,9384
1711359517939,599616081571421892,9414
1711359517947,599616081579088180,9328
1711359517955,599616081586754468,9082
1711359517961,599616081594420756,8914
1711359517969,599616081602087044,8841
1711359517977,599616081609753332,8766
1711359517985,599616081617419620,8666
1711359517993,599616081625085908,8516
1711359518001,599616081632752196,8364
1711359518008,599616081640418484,8167
1711359518016,599616081648084772,7940
1711359518024,599616081655751060,7823
1711359518031,599616081663417348,7800
1711359518039,599616081671083636,7720
1711359518047,599616081678749924,7524
1711359518054,599616081686416212,7318
1711359518062,599616081694082500,7203
1711359518070,599616081701748788,7161
1711359518077,599616081709415076,7138
1711359518085,599616081717081364,7112
1711359518093,599616081724747652,7028
1711359518100,599616081732413940,6855
1711359518108,599616081740080228,6717
1711359518116,599616081747746516,6658
1711359518123,599616081755412804,6604
1711359518131,599616081763089160,6574
1711359518139,599616081770755309,6539
1711359518145,599616081778421458,6415
1711359518153,599616081786087607,6282
1711359518161,599616081793753756,6235
1711359518169,599616081801419905,6207
1711359518177,599616081809086054,6214
1711359518185,599616081816752203,6174
1711359518192,599616081824418352,5917
1711359518200,599616081832084501,5790
1711359518208,599616081839750650,6073
1711359518215,599616081847416799,6352
1711359518223,599616081855082948,6151
1711359518231,599616081862749097,5594
1711359518238,599616081870415246,5198
1711359518246,599616081878081395,5144
1711359518254,599616081885747544,5191
1711359518261,599616081893413693,5156
1711359518269,599616081901079842,5102
1711359518277,599616081908745991,5114
1711359518284,599616081916412140,5086
1711359518292,599616081924078289,4918
1711359518300,599616081931744438,4777
1711359518307,599616081939410587,4777
1711359518315,599616081947076736,4801
1711359518323,599616081954742885,4782
1711359518329,599616081962409034,4733
1711359518337,599616081970075183,4625
1711359518345,599616081977741332,4541
1711359518353,599616081985407481,4527
1711359518361,599616081993073630,4513
1711359518369,599616082000739779,4492
1711359518376,599616082008405928,4475
1711359518384,599616082016072077,4403
1711359518392,599616082023738226,4312
1711359518399,599616082031404375,4281
1711359518407,599616082039070524,4267
1711359518415,599616082046736673,4241
1711359518422,599616082054402822,4213
1711359518430,599616082062068971,4145
1711359518438,599616082069735120,4054
1711359518445,599616082077401269,4014
1711359518453,599616082085067418,4010
1711359518461,599616082092733567,3993
1711359518468,599616082100399716,3949
1711359518476,599616082108065865,3872
1711359518484,599616082115732014,3764
1711359518491,599616082123398163,3680
1711359518499,599616082131064312,3642
1711359518507,599616082138730461,3621
1711359518513,599616082146396610,3568
1711359518521,599616082154062759,3495
1711359518529,599616082161728908,3444
1711359518537,599616082169395057,3355
1711359518545,599616082177061206,3256
1711359518553,599616082184727355,3242
1711359518560,599616082192393504,3212
1711359518568,599616082200059653,3090
1711359518576,599616082207725802,2990
1711359518583,599616082215391951,2938
1711359518591,599616082223058100,2894
1711359518599,599616082230724249,2823
1711359518606,599616082238390398,2711
1711359518614,599616082246056547,2613
1711359518622,599616082253722696,2519
1711359518629,599616082261388845,2402
1711359518637,599616082269054994,2332
1711359518645,599616082276721143,2318
1711359518652,599616082284387292,2274
1711359518660,599616082292053441,2220
1711359518668,599616082299719590,2201
1711359518675,599616082307385739,2178
1711359518683,599616082315051888,2096
1711359518691,599616082322687974,1955
1711359518697,599616082330354541,1831
1711359518705,599616082338021108,1796
1711359518713,599616082345687675,1799
1711359518721,599616082353354242,1775
1711359518729,599616082361020809,1764
1711359518737,599616082368687376,1794
1711359518744,599616082376353943,1815
1711359518752,599616082384020510,1792
1711359518760,599616082391687077,1771
1711359518767,599616082399353644,1773
1711359518775,599616082407020211,1764
1711359518783,599616082414686778,1703
1711359518790,599616082422353345,1635
1711359518798,599616082430019912,1628
1711359518806,599616082437686479,1656
1711359518813,599616082445353046,1658
1711359518821,599616082453019613,1579
1711359518829,599616082460686180,1452
1711359518836,599616082468352747,1413
1711359518844,599616082476019314,1441
1711359518852,599616082483685881,1450
1711359518859,599616082491352448,1511
1711359518867,599616082499019015,1717
1711359518875,599616082506685582,2028
1711359518881,599616082514352149,2152
1711359518889,599616082522018716,1757
1711359518897,599616082529685283,1218
1711359518905,599616082537351850,1214
1711359518913,599616082545018417,1490
1711359518921,599616082552684984,1509
1711359518928,599616082560351551,1417
1711359518936,599616082568018118,1445
1711359518944,599616082575684685,1490
1711359518951,599616082583351252,1492
1711359518959,599616082591017819,1513
1711359518967,599616082598684386,1520
1711359518974,599616082606350953,1478
1711359518982,599616082614017520,1457
1711359518990,599616082621684087,1485
1711359518997,599616082629350654,1506
1711359519005,599616082637017221,1525
1711359519013,599616082644683788,1537
1711359519020,599616082652350355,1471
1711359519028,599616082660016922,1354
1711359519036,599616082667683489,1310
1711359519043,599616082675350056,1349
1711359519051,599616082683016623,1375
1711359519059,599616082690683190,1373
1711359519065,599616082698349757,1349
1711359519073,599616082706016324,1324
1711359519081,599616082713682891,1335
1711359519089,599616082721349458,1371
1711359519097,599616082729016025,1394
1711359519105,599616082736682592,1406
1711359519112,599616082744349159,1380
1711359519120,599616082752015726,1333
1711359519128,599616082759682293,1333
1711359519135,599616082767348860,1357
1711359519143,599616082775015427,1349
1711359519151,599616082782681994,1326
1711359519158,599616082790348561,1272
1711359519166,599616082798015128,1193
1711359519174,599616082805681695,1165
1711359519181,599616082813348262,1151
1711359519189,599616082821014829,1013
1711359519197,599616082828681396,821
1711359519204,599616082836347963,744
1711359519212,599616082844014530,729
1711359519220,599616082851681097,694
1711359519227,599616082859347664,664
1711359519235,599616082867014231,641
1711359519243,599616082874680798,598
1711359519249,599616082882332356,519
1711359519257,599616082889999132,439
1711359519265,599616082897665908,388
1711359519273,599616082905332684,320
1711359519281,599616082912999460,271
1711359519289,599616082920666236,280
1711359519296,599616082928333012,276
1711359519304,599616082935999788,198
1711359519312,599616082943666564,107
1711359519319,599616082951333340,93
1711359519327,599616082959000116,145
1711359519335,599616082966666892,170
1711359519342,599616082974333668,173
1711359519350,599616082982000444,187
1711359519358,599616082989667220,194
1711359519365,599616082997333996,194
1711359519373,599616083005000772,245
1711359519381,599616083012667548,315
1711359519388,599616083020334324,350
1711359519396,599616083028001100,372
1711359519404,599616083035667876,369
1711359519411,599616083043334652,332
1711359519419,599616083051001428,339
1711359519427,599616083058668204,388
1711359519433,599616083066334980,400
1711359519441,599616083074001756,409
1711359519449,599616083081668532,435
1711359519457,599616083089335308,423
1711359519465,599616083097002084,423
1711359519473,599616083104668860,467
1711359519480,599616083112335636,486
1711359519488,599616083120002412,498
1711359519496,599616083127669188,521
1711359519503,599616083135335964,526
1711359519511,599616083143002740,591
1711359519519,599616083150669516,823
1711359519526,599616083158336292,1101
1711359519534,599616083166003068,1064
1711359519542,599616083173669844,556
1711359519549,599616083181336620,88
1711359519557,599616083189003396,86
1711359519565,599616083196670172,198
1711359519572,599616083204336948,145
1711359519580,599616083212003724,119
1711359519588,599616083219670500,182
1711359519595,599616083227337276,187
1711359519603,599616083235004052,133
1711359519611,599616083242670828,119
1711359519617,599616083250337604,119
1711359519625,599616083258004380,116
1711359519633,599616083265671156,159
1711359519641,599616083273337932,201
1711359519649,599616083281004708,182
1711359519657,599616083288671484,149
1711359519664,599616083296338260,142
1711359519672,599616083304005036,154
1711359519680,599616083311671812,166
1711359519687,599616083319338588,98
1711359519695,599616083327005364,-37
1711359519703,599616083334672140,-79
1711359519710,599616083342338916,-44
1711359519718,599616083350005692,-30
1711359519726,599616083357672468,2
1711359519733,599616083365339244,46
1711359519741,599616083373006020,37
1711359519749,599616083380672796,7
1711359519756,599616083388339572,-7
1711359519764,599616083396006348,-39
1711359519772,599616083403673124,-81
1711359519779,599616083411339900,-70
1711359519787,599616083419006676,-49
1711359519795,599616083426673452,-88
1711359519801,599616083434340228,-138
1711359519809,599616083442007044,-140
1711359519817,599616083449673820,-149
1711359519825,599616083457340596,-182
1711359519833,599616083465007372,-194
1711359519841,599616083472674148,-212
1711359519848,599616083480340924,-287
1711359519856,599616083488007700,-339
1711359519864,599616083495674476,-341
1711359519871,599616083503341252,-383
1711359519879,599616083511008028,-465
1711359519887,599616083518674804,-526
1711359519894,599616083526341580,-608
1711359519902,599616083534008356,-664
1711359519910,599616083541675132,-636
1711359519917,599616083549341908,-617
1711359519925,599616083557008684,-605
1711359519933,599616083564675460,-582
1711359519940,599616083572342236,-652
1711359519948,599616083580009012,-748
1711359519956,599616083587675788,-715
1711359519963,599616083595342564,-643
1711359519971,599616083603009340,-603
1711359519979,599616083610676116,-561
1711359519985,599616083618342892,-549
1711359519993,599616083626009668,-568
1711359520001,599616083633676444,-561
1711359520009,599616083641343220,-570
1711359520017,599616083649009996,-589
1711359520025,599616083656676772,-531
1711359520032,599616083664343548,-467
1711359520040,599616083672010324,-460
1711359520048,599616083679677100,-439
1711359520055,599616083687343876,-390
1711359520063,599616083695010652,-341
1711359520071,599616083702677428,-304
1711359520078,599616083710344204,-297
1711359520086,599616083718010980,-306
1711359520094,599616083725677756,-306
1711359520101,599616083733344532,-290
1711359520109,599616083741011308,-245
1711359520117,599616083748678084,-201
1711359520124,599616083756344860,-182
1711359520132,599616083764011636,-219
1711359520140,599616083771678412,-297
1711359520147,599616083779345188,-276
1711359520155,599616083787011964,-39
1711359520163,599616083794678740,325
1711359520169,599616083802345516,512
1711359520177,599616083810012292,196
1711359520185,599616083817679068,-376
1711359520193,599616083825345844,-547
1711359520201,599616083833012620,-301
1711359520209,599616083840679396,-182
1711359520216,599616083848346172,-245
1711359520224,599616083856012948,-222
1711359520232,599616083863679724,-168
1711359520239,599616083871346500,-177
1711359520247,599616083879013276,-156
1711359520255,599616083886680052,-135
1711359520262,599616083894346828,-212
1711359520270,599616083902013604,-257
1711359520278,599616083909680380,-252
1711359520285,599616083917347156,-311
1711359520293,599616083925013932,-313
1711359520301,599616083932680708,-226
1711359520308,599616083940347484,-210
1711359520316,599616083948014260,-222
1711359520324,599616083955681036,-161
1711359520331,599616083963347812,-121
1711359520339,599616083971014588,-105
1711359520347,599616083978681364,-42
1711359520353,599616083986348140,18
1711359520361,599616083994014916,51
1711359520369,599616084001676692,107
1711359520377,599616084009343538,116
1711359520385,599616084017010384,88
1711359520393,599616084024677230,112
1711359520400,599616084032344076,126
1711359520408,599616084040010922,126
1711359520416,599616084047677768,180
1711359520423,599616084055344614,161
1711359520431,599616084063011460,14
1711359520439,599616084070678306,-100
1711359520446,599616084078345152,-145
1711359520454,599616084086011998,-194
1711359520462,599616084093678844,-217
1711359520469,599616084101345690,-229
1711359520477,599616084109012536,-315
1711359520485,599616084116679382,-423
1711359520492,599616084124346228,-474
1711359520500,599616084132013074,-552
1711359520508,599616084139679920,-662
1711359520515,599616084147346766,-680
1711359520523,599616084155013612,-645
1711359520531,599616084162680458,-671
1711359520537,599616084170347304,-694
1711359520545,599616084178014150,-627
1711359520553,599616084185680996,-552
1711359520561,599616084193347842,-552
1711359520569,599616084201014688,-573
1711359520577,599616084208681534,-552
1711359520584,599616084216348380,-503
1711359520592,599616084224015226,-439
1711359520600,599616084231682072,-414
1711359520607,599616084239348918,-414
1711359520615,599616084247015764,-374
1711359520623,599616084254682610,-343
1711359520630,599616084262349456,-374
1711359520638,599616084270016302,-393
1711359520646,599616084277683148,-346
1711359520653,599616084285349994,-240
1711359520661,599616084293016840,-152
1711359520669,599616084300683686,-161
1711359520676,599616084308350532,-283
1711359520684,599616084316017378,-407
1711359520692,599616084323684224,-477
1711359520699,599616084331351070,-486
1711359520707,599616084339017916,-393
1711359520715,599616084346684762,-327
1711359520721,599616084354351608,-388
1711359520729,599616084362018454,-421
1711359520737,599616084369685300,-343
1711359520745,599616084377352146,-301
1711359520753,599616084385018992,-334
1711359520761,599616084392685838,-332
1711359520768,599616084400352684,-287
1711359520776,599616084408019530,-217
1711359520784,599616084415686376,-7
1711359520791,599616084423353222,367
1711359520799,599616084431020068,528
1711359520807,599616084438686914,91
1711359520814,599616084446353760,-488
1711359520822,599616084454020606,-514
1711359520830,599616084461687452,-257
1711359520837,599616084469354298,-217
1711359520845,599616084477021144,-229
1711359520853,599616084484687990,-126
1711359520860,599616084492354836,-100
1711359520868,599616084500021682,-142
1711359520876,599616084507688528,-114
1711359520883,599616084515355374,-25
1711359520891,599616084523022220,44
1711359520899,599616084530689066,65
1711359520905,599616084538355912,70
1711359520913,599616084546022758,77
1711359520921,599616084553689604,86
1711359520929,599616084561356468,124
1711359520937,599616084569023314,177
1711359520945,599616084576690160,219
1711359520952,599616084584357006,240
1711359520960,599616084592023852,203
1711359520968,599616084599690698,88
1711359520975,599616084607357544,21
1711359520983,599616084615024390,63
1711359520991,599616084622691236,91
1711359520998,599616084630358082,35
1711359521006,599616084638024928,-9
1711359521014,599616084645691774,-53
1711359521021,599616084653358620,-138
1711359521029,599616084661025466,-128
1711359521037,599616084668692312,-53
1711359521044,599616084676359158,-35
1711359521052,599616084684026004,-44
1711359521060,599616084691692850,-56
1711359521067,599616084699359696,-51
1711359521075,599616084707026542,-21
1711359521083,599616084714693388,-35
1711359521089,599616084722360234,-79
1711359521097,599616084730027080,-51
1711359521105,599616084737693926,-7
1711359521113,599616084745360772,-63
1711359521121,599616084753027618,-109
1711359521129,599616084760694464,-74
1711359521136,599616084768361310,-88
1711359521144,599616084776028156,-133
1711359521152,599616084783695002,-131
1711359521159,599616084791361848,-168
1711359521167,599616084799028694,-276
1711359521175,599616084806695540,-350
1711359521182,599616084814362386,-386
1711359521190,599616084822029232,-453
1711359521198,599616084829696078,-526
1711359521205,599616084837362924,-573
1711359521213,599616084845029770,-636
1711359521221,599616084852696616,-657
1711359521228,599616084860363462,-617
1711359521236,599616084868030308,-634
1711359521244,599616084875697154,-692
1711359521251,599616084883364000,-678
1711359521259,599616084891030846,-622
1711359521267,599616084898697692,-582
1711359521273,599616084906364538,-519
1711359521281,599616084914031384,-458
1711359521289,599616084921698230,-439
1711359521297,599616084929365076,-404
1711359521305,599616084937031922,-379
1711359521313,599616084944698768,-379
1711359521320,599616084952365614,-355
1711359521328,599616084960032460,-306
1711359521336,599616084967699306,-269
1711359521343,599616084975366152,-257
1711359521351,599616084983032998,-292
1711359521359,599616084990699844,-360
1711359521366,599616084998366690,-381
1711359521374,599616085006033536,-339
1711359521382,599616085013700382,-294
1711359521389,599616085021367228,-180
1711359521397,599616085029034074,124
1711359521405,599616085036700920,458
1711359521412,599616085044367766,423
1711359521420,599616085052034612,-37
1711359521428,599616085059701458,-353
1711359521435,599616085067368304,-198
1711359521443,599616085075035150,7
1711359521451,599616085082701996,-42
1711359521457,599616085090368842,-95
1711359521465,599616085098035688,-25
1711359521473,599616085105702534,30
1711359521481,599616085113369380,44
1711359521489,599616085121036242,9
1711359521497,599616085128703088,-63
1711359521504,599616085136369934,-91
1711359521512,599616085144036780,-70
1711359521520,599616085151703626,-46
1711359521527,599616085159370472,-25
1711359521535,599616085167037318,16
1711359521543,599616085174704164,18
1711359521550,599616085182371010,-102
1711359521558,599616085190037856,-231
1711359521566,599616085197704702,-210
1711359521573,599616085205371548,-116
1711359521581,599616085213038394,-72
1711359521589,599616085220705240,-67
1711359521596,599616085228372086,-51
1711359521604,599616085236038932,-14
1711359521612,599616085243705778,42
1711359521619,599616085251372624,88
1711359521627,599616085259039470,124
1711359521635,599616085266706316,168
1711359521641,599616085274373162,147
1711359521649,599616085282040008,98
1711359521657,599616085289706854,166
1711359521665,599616085297373700,248
1711359521673,599616085305040546,182
1711359521681,599616085312707392,107
1711359521688,599616085320374238,95
1711359521696,599616085328041084,16
1711359521704,599616085335707930,-95
1711359521711,599616085343374776,-102
1711359521719,599616085351041622,-30
1711359521727,599616085358708468,-9
1711359521734,599616085366375314,-86
1711359521742,599616085374042160,-196
1711359521750,599616085381709006,-283
1711359521757,599616085389375852,-290
1711359521765,599616085397042698,-205
1711359521773,599616085404709544,-154
1711359521780,599616085412376390,-187
1711359521788,599616085420043236,-219
1711359521796,599616085427710082,-219
1711359521803,599616085435376928,-226
1711359521811,599616085443043774,-248
1711359521819,599616085450710620,-243
1711359521825,599616085458377466,-262
1711359521833,599616085466044312,-367
1711359521841,599616085473711158,-446
1711359521849,599616085481378004,-421
1711359521857,599616085489044850,-367
1711359521865,599616085496711696,-346
1711359521872,599616085504378542,-334
1711359521880,599616085512045388,-311
1711359521888,599616085519712234,-355
1711359521895,599616085527379080,-479
1711359521903,599616085535045926,-531
1711359521911,599616085542712772,-498
1711359521918,599616085550379618,-479
1711359521926,599616085558046464,-430
1711359521934,599616085565713310,-343
1711359521941,599616085573380156,-334
1711359521949,599616085581047002,-336
1711359521957,599616085588713848,-273
1711359521964,599616085596380694,-273
1711359521972,599616085604047540,-315
1711359521980,599616085611714386,-311
1711359521987,599616085619381232,-313
1711359521995,599616085627048078,-222
1711359522003,599616085634714924,133
1711359522009,599616085642381770,465
1711359522017,599616085650048616,290
1711359522025,599616085657715462,-219
1711359522033,599616085665382308,-386
1711359522041,599616085673049154,-198
1711359522049,599616085680716016,-109
1711359522056,599616085688382862,-154
1711359522064,599616085696049708,-161
1711359522072,599616085703716554,-98
1711359522079,599616085711383400,-88
1711359522087,599616085719050246,-196
1711359522095,599616085726717092,-229
1711359522102,599616085734383938,-154
1711359522110,599616085742050784,-138
1711359522118,599616085749717630,-133
1711359522125,599616085757384476,-65
1711359522133,599616085765051322,-67
1711359522141,599616085772718168,-175
1711359522148,599616085780385014,-224
1711359522156,599616085788051860,-175
1711359522164,599616085795718706,-126
1711359522171,599616085803385552,-70
1711359522179,599616085811052398,9
1711359522187,599616085818719244,30
1711359522193,599616085826386090,-25
1711359522201,599616085834052936,-98
1711359522209,599616085841719782,-124
1711359522217,599616085849386628,-84
1711359522225,599616085857053474,-140
1711359522233,599616085864720320,-343
1711359522240,599616085872387166,-416
1711359522248,599616085880054012,-283
1711359522256,599616085887720858,-194
1711359522263,599616085895387704,-180
1711359522271,599616085903054550,-135
1711359522279,599616085910721396,-133
1711359522286,599616085918388242,-194
1711359522294,599616085926055088,-210
1711359522302,599616085933721934,-152
1711359522309,599616085941388780,-77
1711359522317,599616085949055626,-28
1711359522325,599616085956722472,-23
1711359522332,599616085964389318,-25
1711359522340,599616085972056164,4
1711359522348,599616085979723010,37
1711359522355,599616085987389856,65
1711359522363,599616085995056702,109
1711359522371,599616086002723548,147
1711359522377,599616086010390394,138
1711359522385,599616086018057240,156
1711359522393,599616086025724086,222
1711359522401,599616086033390932,224
1711359522409,599616086041057778,196
1711359522417,599616086048724624,184
1711359522424,599616086056391470,98
1711359522432,599616086064058316,-37
1711359522440,599616086071725162,-124
1711359522447,599616086079392008,-161
1711359522455,599616086087058854,-107
1711359522463,599616086094725700,-32
1711359522470,599616086102392546,-84
1711359522478,599616086110059392,-210
1711359522486,599616086117726238,-280
1711359522493,599616086125393084,-308
1711359522501,599616086133059930,-313
1711359522509,599616086140726776,-311
1711359522516,599616086148393622,-353
1711359522524,599616086156060468,-397
1711359522532,599616086163727314,-364
1711359522539,599616086171394160,-292
1711359522547,599616086179061006,-252
1711359522555,599616086186727852,-245
1711359522561,599616086194394698,-248
1711359522569,599616086202061544,-273
1711359522577,599616086209728390,-304
1711359522585,599616086217395236,-248
1711359522593,599616086225062082,-46
1711359522601,599616086232728928,294
1711359522608,599616086240420918,505
1711359522616,599616086248087415,140
1711359522624,599616086255753912,-488
1711359522631,599616086263420409,-570
1711359522639,599616086271086906,-269
1711359522647,599616086278753403,-189
1711359522654,599616086286419900,-217
1711359522662,599616086294086397,-154
1711359522670,599616086301752894,-203
1711359522677,599616086309419391,-318
1711359522685,599616086317085888,-264
1711359522693,599616086324752385,-196
1711359522700,599616086332418882,-308
1711359522708,599616086340085379,-414
1711359522716,599616086347751876,-357
1711359522723,599616086355418373,-327
1711359522731,599616086363084870,-374
1711359522739,599616086370751367,-334
1711359522745,599616086378417864,-250
1711359522753,599616086386084361,-203
1711359522761,599616086393750858,-189
1711359522769,599616086401417355,-243
1711359522777,599616086409083852,-290
1711359522785,599616086416750349,-236
1711359522792,599616086424416846,-182
1711359522800,599616086432083343,-161
1711359522808,599616086439749840,-102
1711359522815,599616086447416337,-25
1711359522823,599616086455082834,18
1711359522831,599616086462749331,46
1711359522838,599616086470415828,77
1711359522846,599616086478082325,102
1711359522854,599616086485748822,138
1711359522861,599616086493415319,159
1711359522869,599616086501081816,135
1711359522877,599616086508748313,116
1711359522884,599616086516414810,109
1711359522892,599616086524081307,112
1711359522900,599616086531747804,154
1711359522907,599616086539414301,177
1711359522915,599616086547080798,138
1711359522923,599616086554747295,112
1711359522929,599616086562413792,140
1711359522937,599616086570080289,159
1711359522945,599616086577746786,163
1711359522953,599616086585413283,175
1711359522961,599616086593079780,184
1711359522969,599616086600746277,149
1711359522976,599616086608412774,109
1711359522984,599616086616079271,128
1711359522992,599616086623745768,182
1711359522999,599616086631412265,222
1711359523007,599616086639078762,217
1711359523015,599616086646745259,124
1711359523022,599616086654411756,21
1711359523030,599616086662078253,28
1711359523038,599616086669744750,84
1711359523045,599616086677411247,121
1711359523053,599616086685077744,173
1711359523061,599616086692744241,208
1711359523068,599616086700410738,182
1711359523076,599616086708077235,149
1711359523084,599616086715743732,135
1711359523091,599616086723410229,102
1711359523099,599616086731076726,77
1711359523107,599616086738743223,72
1711359523113,599616086746409720,23
1711359523121,599616086754076217,-53
1711359523129,599616086761742714,-102
1711359523137,599616086769409211,-116
1711359523145,599616086777075708,-154
1711359523153,599616086784742205,-250
1711359523160,599616086792408702,-376
1711359523168,599616086800055174,-442
1711359523176,599616086807721950,-404
1711359523183,599616086815388726,-259
1711359523191,599616086823055502,42
1711359523199,599616086830722278,306
1711359523206,599616086838389054,2
1711359523214,599616086846055830,-722
1711359523222,599616086853722606,-926
1711359523229,599616086861389382,-591
1711359523237,599616086869056158,-439
1711359523245,599616086876722934,-488
1711359523252,599616086884389710,-517
1711359523260,599616086892056486,-568
1711359523268,599616086899723262,-577
1711359523275,599616086907390038,-486
1711359523283,599616086915056814,-404
1711359523291,599616086922723590,-374
1711359523297,599616086930390366,-409
1711359523305,599616086938057142,-500
1711359523313,599616086945723918,-526
1711359523321,599616086953390694,-439
1711359523329,599616086961057470,-350
1711359523337,599616086968724246,-308
1711359523344,599616086976391022,-283
1711359523352,599616086984057798,-264
1711359523360,599616086991724574,-238
1711359523367,599616086999391350,-187
1711359523375,599616087007058126,-116
1711359523383,599616087014724902,-63
1711359523390,599616087022391678,-35
1711359523398,599616087030058454,-23
1711359523406,599616087037725230,-16
1711359523413,599616087045392006,25
1711359523421,599616087053058782,91
1711359523429,599616087060725558,128
1711359523436,599616087068392334,138
1711359523444,599616087076059110,152
1711359523452,599616087083725886,159
1711359523459,599616087091392662,98
1711359523467,599616087099059438,25
1711359523475,599616087106726214,-2
1711359523481,599616087114392990,-30
1711359523489,599616087122059766,-51
1711359523497,599616087129726542,-86
1711359523505,599616087137393318,-163
1711359523513,599616087145060094,-163
1711359523521,599616087152726870,-98
1711359523528,599616087160393646,-79
1711359523536,599616087168060422,-67
1711359523544,599616087175727198,-30
1711359523551,599616087183393974,-11
1711359523559,599616087191060750,9
1711359523567,599616087198727526,53
1711359523574,599616087206394302,74
1711359523582,599616087214061078,84
1711359523590,599616087221727854,124
1711359523597,599616087229394630,147
1711359523605,599616087237061406,147
1711359523613,599616087244728182,159
1711359523620,599616087252394958,166
1711359523628,599616087260061734,166
1711359523636,599616087267728510,191
1711359523643,599616087275395286,224
1711359523651,599616087283062062,243
1711359523659,599616087290728838,243
1711359523665,599616087298395614,224
1711359523673,599616087306062390,201
1711359523681,599616087313729166,205
1711359523689,599616087321395942,194
1711359523697,599616087329062718,77
1711359523705,599616087336729494,-102
1711359523712,599616087344396270,-203
1711359523720,599616087352063046,-187
1711359523728,599616087359724822,-184
1711359523735,599616087367391668,-236
1711359523743,599616087375058514,-248
1711359523751,599616087382725360,-236
1711359523758,599616087390392206,-273
1711359523766,599616087398059052,-343
1711359523774,599616087405725898,-311
1711359523781,599616087413392744,-95
1711359523789,599616087421059590,142
1711359523797,599616087428726436,112
1711359523804,599616087436393282,-348
1711359523812,599616087444060128,-804
1711359523820,599616087451726974,-732
1711359523827,599616087459393820,-481
1711359523835,599616087467060666,-533
1711359523843,599616087474727512,-697
1711359523849,599616087482394358,-706
1711359523857,599616087490061204,-629
1711359523865,599616087497728050,-575
1711359523873,599616087505394896,-519
1711359523881,599616087513061742,-463
1711359523889,599616087520728588,-458
1711359523896,599616087528395434,-472
1711359523904,599616087536062280,-421
1711359523912,599616087543729126,-343
1711359523919,599616087551395972,-304
1711359523927,599616087559062818,-266
1711359523935,599616087566729664,-219
1711359523942,599616087574396510,-229
1711359523950,599616087582063356,-280
1711359523958,599616087589730202,-280
1711359523965,599616087597397048,-229
1711359523973,599616087605063894,-175
1711359523981,599616087612730740,-138
1711359523988,599616087620397586,-126
1711359523996,599616087628064432,-105
1711359524004,599616087635731278,-39
1711359524011,599616087643398124,7
1711359524019,599616087651064970,25
1711359524027,599616087658731816,42
1711359524033,599616087666398662,-7
1711359524041,599616087674065508,-105
1711359524049,599616087681732354,-119
1711359524057,599616087689399200,-79
1711359524065,599616087697066046,-67
1711359524073,599616087704732892,-67
1711359524080,599616087712399738,-86
1711359524088,599616087720066584,-116
1711359524096,599616087727733430,-86
1711359524103,599616087735400276,-23
1711359524111,599616087743067122,7
1711359524119,599616087750733968,32
1711359524126,599616087758400814,46
1711359524134,599616087766067660,32
1711359524142,599616087773734506,39
1711359524149,599616087781401352,93
1711359524157,599616087789068198,142
1711359524165,599616087796735044,166
1711359524172,599616087804401890,170
1711359524180,599616087812068736,159
1711359524188,599616087819735582,131
1711359524195,599616087827402428,77
1711359524203,599616087835069274,23
1711359524211,599616087842736120,-53
1711359524217,599616087850402966,-170
1711359524225,599616087858069812,-255
1711359524233,599616087865736658,-318
1711359524241,599616087873403504,-348
1711359524249,599616087881070350,-266
1711359524257,599616087888737196,-163
1711359524264,599616087896404042,-138
1711359524272,599616087904070888,-128
1711359524280,599616087911737734,-121
1711359524287,599616087919404598,-128
1711359524295,599616087927071444,-100
1711359524303,599616087934738290,-51
1711359524310,599616087942405136,-42
1711359524318,599616087950071982,-37
1711359524326,599616087957738828,-56
1711359524333,599616087965405674,-131
1711359524341,599616087973072520,-142
1711359524349,599616087980739366,-95
1711359524356,599616087988406212,-126
1711359524364,599616087996073058,-189
1711359524372,599616088003739904,-231
1711359524379,599616088011406750,-301
1711359524387,599616088019073596,-243
1711359524395,599616088026740442,58
1711359524401,599616088034407288,269
1711359524409,599616088042074134,-65
1711359524417,599616088049740980,-678
1711359524425,599616088057407826,-828
1711359524433,599616088065074672,-608
1711359524441,599616088072741518,-594
1711359524448,599616088080408364,-706
1711359524456,599616088088075210,-657
1711359524464,599616088095742056,-554
1711359524471,599616088103408902,-554
1711359524479,599616088111075748,-566
1711359524487,599616088118742594,-519
1711359524494,599616088126409440,-474
1711359524502,599616088134076286,-444
1711359524510,599616088141743132,-390
1711359524517,599616088149409978,-343
1711359524525,599616088157076824,-334
1711359524533,599616088164743670,-322
1711359524540,599616088172410516,-301
1711359524548,599616088180077362,-285
1711359524556,599616088187744208,-238
1711359524563,599616088195411054,-194
1711359524571,599616088203077900,-229
1711359524579,599616088210744746,-292
1711359524585,599616088218411592,-276
1711359524593,599616088226078438,-201
1711359524601,599616088233745284,-131
1711359524609,599616088241412130,-72
1711359524617,599616088249078976,-37
1711359524625,599616088256745822,-25
1711359524632,599616088264412668,-11
1711359524640,599616088272079514,28
1711359524648,599616088279746360,84
1711359524655,599616088287413206,107
1711359524663,599616088295080052,100
1711359524671,599616088302746898,67
1711359524678,599616088310413744,7
1711359524686,599616088318080590,-46
1711359524694,599616088325747436,-67
1711359524701,599616088333414282,-72
1711359524709,599616088341081128,-105
1711359524717,599616088348747974,-219
1711359524724,599616088356414820,-336
1711359524732,599616088364081666,-311
1711359524740,599616088371748512,-212
1711359524747,599616088379415358,-166
1711359524755,599616088387082204,-124
1711359524763,599616088394749050,-107
1711359524769,599616088402415896,-191
1711359524777,599616088410082742,-231
1711359524785,599616088417749588,-147
1711359524793,599616088425416434,-74
1711359524801,599616088433083280,-49
1711359524809,599616088440750126,-7
1711359524816,599616088448416972,-9
1711359524824,599616088456083818,-37
1711359524832,599616088463750664,11
1711359524839,599616088471417510,100
1711359524847,599616088479084372,142
1711359524855,599616088486751218,154
1711359524862,599616088494418064,145
1711359524870,599616088502084910,128
1711359524878,599616088509751756,147
1711359524885,599616088517418602,196
1711359524893,599616088525085448,236
1711359524901,599616088532752294,262
1711359524908,599616088540419140,201
1711359524916,599616088548085986,11
1711359524924,599616088555752832,-131
1711359524931,599616088563419678,-135
1711359524939,599616088571086524,-142
1711359524947,599616088578753370,-161
1711359524953,599616088586420216,-142
1711359524961,599616088594087062,-161
1711359524969,599616088601753908,-219
1711359524977,599616088609420754,-212
1711359524985,599616088617087600,-152
1711359524993,599616088624754446,-138
1711359525000,599616088632421292,-180
1711359525008,599616088640088138,-250
1711359525016,599616088647754984,-311
1711359525023,599616088655421830,-301
1711359525031,599616088663088676,-105
1711359525039,599616088670755522,269
1711359525046,599616088678422368,451
1711359525054,599616088686089214,70
1711359525062,599616088693756060,-467
1711359525069,599616088701422906,-503
1711359525077,599616088709089752,-290
1711359525085,599616088716756598,-278
1711359525092,599616088724423444,-304
1711359525100,599616088732090290,-255
1711359525108,599616088739757136,-301
1711359525115,599616088747423982,-388
1711359525123,599616088755090828,-329
1711359525131,599616088762757674,-250
1711359525137,599616088770424520,-259
1711359525145,599616088778091366,-236
1711359525153,599616088785758212,-184
1711359525161,599616088793425058,-184
1711359525169,599616088801091904,-196
1711359525177,599616088808758750,-201
1711359525184,599616088816425596,-231
1711359525192,599616088824092442,-224
1711359525200,599616088831759288,-147
1711359525207,599616088839426134,-128
1711359525215,599616088847092980,-226
1711359525223,599616088854759826,-297
1711359525230,599616088862426672,-264
1711359525238,599616088870093518,-219
1711359525246,599616088877760364,-175
1711359525253,599616088885427210,-131
1711359525261,599616088893094056,-102
1711359525269,599616088900760902,-86
1711359525276,599616088908427748,-84
1711359525284,599616088916094594,-42
1711359525292,599616088923761440,42
1711359525299,599616088931428286,42
1711359525307,599616088939095132,-60
1711359525315,599616088946761978,-126
1711359525321,599616088954428824,-126
1711359525329,599616088962095670,-119
1711359525337,599616088969762516,-74
1711359525345,599616088977429362,-28
1711359525353,599616088985096208,-53
1711359525361,599616088992763054,-74
1711359525368,599616089000429900,-9
1711359525376,599616089008096746,102
1711359525384,599616089015763592,124
1711359525391,599616089023430438,63
1711359525399,599616089031097284,74
1711359525407,599616089038764146,145
1711359525414,599616089046430992,147
1711359525422,599616089054097838,72
1711359525430,599616089061764684,16
1711359525437,599616089069431530,14
1711359525445,599616089077098376,-7
1711359525453,599616089084765222,-105
1711359525460,599616089092432068,-182
1711359525468,599616089100098914,-135
1711359525476,599616089107765760,-30
1711359525483,599616089115432606,39
1711359525491,599616089123099452,56
1711359525499,599616089130766298,-23
1711359525505,599616089138433144,-128
1711359525513,599616089146099990,-102
1711359525521,599616089153766836,-9
1711359525529,599616089161433682,21
1711359525537,599616089169100528,39
1711359525545,599616089176767374,81
1711359525552,599616089184434220,102
1711359525560,599616089192101066,116
1711359525568,599616089199767912,124
1711359525575,599616089207434758,79
1711359525583,599616089215101604,49
1711359525591,599616089222768450,25
1711359525598,599616089230435296,-56
1711359525606,599616089238102142,-116
1711359525614,599616089245768988,-119
1711359525621,599616089253435834,-133
1711359525629,599616089261102680,-189
1711359525637,599616089268769526,-248
1711359525644,599616089276436372,-327
1711359525652,599616089284103218,-404
1711359525660,599616089291770064,-390
1711359525667,599616089299436910,-381
1711359525675,599616089307103756,-432
1711359525683,599616089314770602,-353
1711359525689,599616089322437448,-95
1711359525697,599616089330104294,140
1711359525705,599616089337771140,84
1711359525713,599616089345437986,-299
1711359525721,599616089353104832,-605
1711359525729,599616089360771678,-603
1711359525736,599616089368438524,-542
1711359525744,599616089376105370,-547
1711359525752,599616089383772216,-512
1711359525759,599616089391439062,-432
1711359525767,599616089399105908,-372
1711359525775,599616089406772754,-329
1711359525782,599616089414439600,-301
1711359525790,599616089422106446,-297
1711359525798,599616089429773292,-292
1711359525806,599616089437440138,-243
1711359525813,599616089445106984,-163
1711359525821,599616089452773830,-109
1711359525829,599616089460440676,-91
1711359525836,599616089468107522,-119
1711359525844,599616089475774368,-173
1711359525852,599616089483441214,-159
1711359525859,599616089491108060,-84
1711359525867,599616089498774906,-39
1711359525875,599616089506441752,-21
1711359525881,599616089514108598,25
1711359525889,599616089521775444,67
1711359525897,599616089529442290,84
1711359525905,599616089537109136,124
1711359525913,599616089544775982,177
1711359525921,599616089552442828,154
1711359525928,599616089560109674,100
1711359525936,599616089567776520,100
1711359525944,599616089575443366,128
1711359525951,599616089583110212,145
1711359525959,599616089590777058,149
1711359525967,599616089598443920,105
1711359525974,599616089606110766,28
1711359525982,599616089613777612,-37
1711359525990,599616089621444458,-121
1711359525997,599616089629111304,-177
1711359526005,599616089636778150,-149
1711359526013,599616089644444996,-116
1711359526020,599616089652111842,-107
1711359526028,599616089659778688,-91
1711359526036,599616089667445534,-124
1711359526043,599616089675112380,-175
1711359526051,599616089682779226,-142
1711359526059,599616089690446072,-91
1711359526065,599616089698112918,-65
1711359526073,599616089705779764,-16
1711359526081,599616089713446610,28
1711359526089,599616089721113456,32
1711359526097,599616089728780302,51
1711359526105,599616089736447148,86
1711359526112,599616089744113994,116
1711359526120,599616089751780840,152
1711359526128,599616089759447686,184
1711359526135,599616089767114532,182
1711359526143,599616089774781378,170
1711359526151,599616089782448224,168
1711359526158,599616089790115070,142
1711359526166,599616089797781916,70
1711359526174,599616089805448762,-32
1711359526181,599616089813115608,-133
1711359526189,599616089820782454,-217
1711359526197,599616089828449300,-266
1711359526204,599616089836116146,-287
1711359526212,599616089843782992,-273
1711359526220,599616089851449838,-273
1711359526227,599616089859116684,-381
1711359526235,599616089866783530,-531
1711359526243,599616089874450376,-570
1711359526249,599616089882117222,-517
1711359526257,599616089889784068,-467
1711359526265,599616089897450914,-432
1711359526273,599616089905117760,-404
1711359526281,599616089912784606,-411
1711359526289,599616089920451452,-421
1711359526296,599616089928118298,-376
1711359526304,599616089935785144,-318
1711359526312,599616089943451990,-278
1711359526319,599616089951118836,-266
1711359526327,599616089958785682,-348
1711359526335,599616089966452528,-449
1711359526342,599616089974119374,-301
1711359526350,599616089981786220,93
1711359526358,599616089989453066,425
1711359526365,599616089997119912,273
1711359526373,599616090004786758,-297
1711359526381,599616090012453604,-540
1711359526388,599616090020120450,-297
1711359526396,599616090027787296,-133
1711359526404,599616090035454142,-149
1711359526411,599616090043120988,-149
1711359526419,599616090050787834,-170
1711359526427,599616090058454680,-222
1711359526433,599616090066121526,-201
1711359526441,599616090073788372,-131
1711359526449,599616090081455218,-77
1711359526457,599616090089122064,-30
1711359526465,599616090096788910,11
1711359526473,599616090104455756,7
1711359526480,599616090112122602,-7
1711359526488,599616090119789448,35
1711359526496,599616090127456294,88
1711359526503,599616090135123140,109
1711359526511,599616090142789986,112
1711359526519,599616090150456832,63
1711359526526,599616090158153790,-32
1711359526534,599616090165820218,-44
1711359526542,599616090173486646,39
1711359526549,599616090181153074,102
1711359526557,599616090188819502,140
1711359526565,599616090196485930,145
1711359526572,599616090204152358,79
1711359526580,599616090211818786,30
1711359526588,599616090219485214,81
1711359526595,599616090227151642,152
1711359526603,599616090234818070,180
1711359526611,599616090242484498,177
1711359526617,599616090250150926,140
1711359526625,599616090257817354,93
1711359526633,599616090265483782,91
1711359526641,599616090273150210,131
1711359526649,599616090280816638,154
1711359526657,599616090288483066,98
1711359526664,599616090296149494,4
1711359526672,599616090303815922,-25
1711359526680,599616090311482350,4
1711359526687,599616090319148778,18
1711359526695,599616090326815206,23
1711359526703,599616090334481634,46
1711359526710,599616090342148062,49
1711359526718,599616090349814490,-16
1711359526726,599616090357480918,-93
1711359526733,599616090365147346,-121
1711359526741,599616090372813774,-170
1711359526749,599616090380480202,-233
1711359526756,599616090388146630,-255
1711359526764,599616090395813058,-280
1711359526772,599616090403479486,-294
1711359526779,599616090411145914,-250
1711359526787,599616090418812342,-224
1711359526795,599616090426478770,-262
1711359526801,599616090434145198,-287
1711359526809,599616090441811626,-301
1711359526817,599616090449478054,-353
1711359526825,599616090457144482,-367
1711359526833,599616090464810910,-325
1711359526841,599616090472477338,-320
1711359526848,599616090480143766,-329
1711359526856,599616090487810194,-332
1711359526864,599616090495476622,-395
1711359526871,599616090503143050,-437
1711359526879,599616090510809478,-367
1711359526887,599616090518475906,-315
1711359526894,599616090526142334,-339
1711359526902,599616090533808762,-364
1711359526910,599616090541475190,-404
1711359526917,599616090549141618,-435
1711359526925,599616090556808046,-400
1711359526933,599616090564474474,-350
1711359526940,599616090572140902,-318
1711359526948,599616090579807330,-264
1711359526956,599616090587473758,-212
1711359526963,599616090595140186,-194
1711359526971,599616090602806614,-170
1711359526979,599616090610473042,-135
1711359526985,599616090618139470,-112
1711359526993,599616090625805898,-65
1711359527001,599616090633472326,77
1711359527009,599616090641138754,376
1711359527017,599616090648805182,708
1711359527025,599616090656471610,678
1711359527032,599616090664138038,168
1711359527040,599616090671804466,-205
1711359527048,599616090679470894,-63
1711359527055,599616090687137322,67
1711359527063,599616090694803750,-95
1711359527071,599616090702470178,-177
1711359527078,599616090710136606,-84
1711359527086,599616090717772952,-30
1711359527093,599616090725439798,-7
1711359527101,599616090733106644,42
1711359527109,599616090740773490,39
1711359527117,599616090748440336,14
1711359527124,599616090756107182,46
1711359527132,599616090763774028,105
1711359527140,599616090771440874,140
1711359527147,599616090779107720,128
1711359527155,599616090786774566,4
1711359527163,599616090794441412,-135
1711359527169,599616090802108258,-119
1711359527177,599616090809775104,-32
1711359527185,599616090817441950,11
1711359527193,599616090825108796,60
1711359527201,599616090832775642,105
1711359527209,599616090840442488,88
1711359527216,599616090848109334,79
1711359527224,599616090855776180,126
1711359527232,599616090863443026,163
1711359527239,599616090871109872,114
1711359527247,599616090878776718,11
1711359527255,599616090886443564,-77
1711359527262,599616090894110410,-119
1711359527270,599616090901777256,-102
1711359527278,599616090909444102,-72
1711359527285,599616090917110948,-63
1711359527293,599616090924777794,-60
1711359527301,599616090932444640,-88
1711359527308,599616090940111486,-126
1711359527316,599616090947778332,-102
1711359527324,599616090955445178,-56
1711359527331,599616090963112024,-18
1711359527339,599616090970778870,18
1711359527347,599616090978445716,0
1711359527353,599616090986112562,-79
1711359527361,599616090993779408,-105
1711359527369,599616091001446254,-58
1711359527377,599616091009113100,-32
1711359527385,599616091016779946,-81
1711359527393,599616091024446792,-201
1711359527400,599616091032113638,-327
1711359527408,599616091039780484,-400
1711359527416,599616091047447330,-407
1711359527423,599616091055114176,-381
1711359527431,599616091062781022,-353
1711359527439,599616091070447868,-353
1711359527446,599616091078114714,-414
1711359527454,599616091085781560,-493
1711359527462,599616091093448406,-486
1711359527469,599616091101115252,-432
1711359527477,599616091108782098,-423
1711359527485,599616091116448944,-423
1711359527492,599616091124115790,-402
1711359527500,599616091131782636,-372
1711359527508,599616091139449482,-341
1711359527515,599616091147116328,-304
1711359527523,599616091154783174,-271
1711359527531,599616091162450020,-262
1711359527537,599616091170116866,-233
1711359527545,599616091177783712,-173
1711359527553,599616091185450558,-114
1711359527561,599616091193117404,-63
1711359527569,599616091200784250,-60
1711359527577,599616091208451096,-98
1711359527584,599616091216117942,-107
1711359527592,599616091223784788,-131
1711359527600,599616091231451634,-217
1711359527607,599616091239118480,-231
1711359527615,599616091246785326,-149
1711359527623,599616091254452172,-116
1711359527630,599616091262119018,-114
1711359527638,599616091269785864,-77
1711359527645,599616091277432712,-79
1711359527653,599616091285099836,-109
1711359527661,599616091292766960,-88
1711359527668,599616091300434084,-77
1711359527676,599616091308101208,-37
1711359527684,599616091315768332,205
1711359527691,599616091323435456,538
1711359527699,599616091331102580,580
1711359527707,599616091338769704,152
1711359527713,599616091346436828,-308
1711359527721,599616091354103952,-283
1711359527729,599616091361771076,-25
1711359527737,599616091369438200,11
1711359527745,599616091377105324,-107
1711359527753,599616091384772448,-203
1711359527760,599616091392439572,-208
1711359527768,599616091400106696,-154
1711359527776,599616091407773820,-95
1711359527784,599616091415440944,-74
1711359527791,599616091423108068,-105
1711359527799,599616091430775192,-149
1711359527807,599616091438442316,-159
1711359527814,599616091446109440,-128
1711359527822,599616091453776564,-77
1711359527830,599616091461443688,-25
1711359527837,599616091469110812,21
1711359527845,599616091476777936,49
1711359527853,599616091484445060,42
1711359527860,599616091492112184,53
1711359527868,599616091499779308,116
1711359527876,599616091507446432,175
1711359527883,599616091515113556,191
1711359527891,599616091522780680,168
1711359527899,599616091530447804,128
1711359527905,599616091538114928,145
1711359527913,599616091545782052,203
1711359527921,599616091553449176,243
1711359527929,599616091561116300,250
1711359527937,599616091568783424,168
1711359527945,599616091576450548,37
1711359527952,599616091584117672,18
1711359527960,599616091591784796,42
1711359527968,599616091599451920,-44
1711359527975,599616091607119044,-98
1711359527983,599616091614786168,-88
1711359527991,599616091622453292,-163
1711359527998,599616091630120416,-259
1711359528006,599616091637787540,-273
1711359528014,599616091645454664,-283
1711359528021,599616091653121788,-318
1711359528029,599616091660788912,-327
1711359528037,599616091668456036,-343
1711359528044,599616091676123160,-367
1711359528052,599616091683790284,-348
1711359528060,599616091691457408,-299
1711359528067,599616091699124532,-243
1711359528075,599616091706791656,-215
1711359528083,599616091714458780,-259
1711359528089,599616091722125904,-294
1711359528097,599616091729793028,-243
1711359528105,599616091737460152,-196
1711359528113,599616091745127276,-187
1711359528121,599616091752794400,-170
1711359528129,599616091760461524,-180
1711359528136,599616091768128648,-219
1711359528144,599616091775795772,-240
1711359528152,599616091783462896,-215
1711359528159,599616091791130020,-166
1711359528167,599616091798797144,-135
1711359528175,599616091806464268,-166
1711359528182,599616091814131392,-250
1711359528190,599616091821798516,-276
1711359528198,599616091829465640,-210
1711359528205,599616091837187984,-156
1711359528213,599616091844854342,-133
1711359528221,599616091852520700,-135
1711359528228,599616091860187058,-159
1711359528236,599616091867853416,-156
1711359528244,599616091875519774,-131
1711359528251,599616091883186132,-168
1711359528259,599616091890852490,-219
1711359528267,599616091898518848,-224
1711359528273,599616091906185206,-283
1711359528281,599616091913851564,-395
1711359528289,599616091921517922,-418
1711359528297,599616091929184280,-348
1711359528305,599616091936850638,-292
1711359528313,599616091944516996,-264
1711359528320,599616091952183354,-264
1711359528328,599616091959849712,-327
1711359528336,599616091967516070,-355
1711359528343,599616091975182428,-271
1711359528351,599616091982848786,-203
1711359528359,599616091990515144,-208
1711359528366,599616091998181502,-191
1711359528374,599616092005847860,-112
1711359528382,599616092013514218,25
1711359528389,599616092021180576,273
1711359528397,599616092028846934,596
1711359528405,599616092036513292,575
1711359528412,599616092044179650,51
1711359528420,599616092051846008,-304
1711359528428,599616092059512366,-175
1711359528435,599616092067178724,-44
1711359528443,599616092074845082,-72
1711359528451,599616092082511440,-63
1711359528457,599616092090177798,-28
1711359528465,599616092097844156,-46
1711359528473,599616092105510514,-126
1711359528481,599616092113176872,-196
1711359528489,599616092120843230,-175
1711359528497,599616092128509588,-128
1711359528504,599616092136175946,-95
1711359528512,599616092143842304,-51
1711359528520,599616092151508662,-7
1711359528527,599616092159175020,21
1711359528535,599616092166841378,39
1711359528543,599616092174507736,51
1711359528550,599616092182174094,77
1711359528558,599616092189840452,124
1711359528566,599616092197506810,154
1711359528573,599616092205173168,156
1711359528581,599616092212839526,152
1711359528589,599616092220505884,166
1711359528596,599616092228172242,187
1711359528604,599616092235838600,184
1711359528612,599616092243504958,166
1711359528619,599616092251171316,152
1711359528627,599616092258837674,102
1711359528635,599616092266504032,-21
1711359528641,599616092274170390,-119
1711359528649,599616092281836748,-133
1711359528657,599616092289503106,-180
1711359528665,599616092297169464,-334
1711359528673,599616092304835822,-477
1711359528681,599616092312502180,-510
1711359528688,599616092320168538,-496
1711359528696,599616092327834896,-488
1711359528704,599616092335501254,-453
1711359528711,599616092343167612,-421
1711359528719,599616092350833970,-442
1711359528727,599616092358500328,-463
1711359528734,599616092366166686,-425
1711359528742,599616092373833044,-372
1711359528750,599616092381499402,-346
1711359528757,599616092389165760,-390
1711359528765,599616092396802058,-484
1711359528773,599616092404468834,-507
1711359528780,599616092412135610,-446
1711359528788,599616092419802386,-386
1711359528796,599616092427469162,-334
1711359528803,599616092435135938,-278
1711359528811,599616092442802714,-276
1711359528819,599616092450469490,-320
1711359528825,599616092458136266,-304
1711359528833,599616092465803042,-233
1711359528841,599616092473469818,-187
1711359528849,599616092481136594,-147
1711359528857,599616092488803370,-161
1711359528865,599616092496470146,-311
1711359528872,599616092504136922,-460
1711359528880,599616092511803698,-472
1711359528888,599616092519470474,-416
1711359528895,599616092527137250,-350
1711359528903,599616092534804026,-299
1711359528911,599616092542470802,-306
1711359528918,599616092550137578,-320
1711359528926,599616092557804354,-248
1711359528934,599616092565471130,-145
1711359528941,599616092573137906,-77
1711359528949,599616092580804682,-11
1711359528957,599616092588471458,21
1711359528964,599616092596138234,7
1711359528972,599616092603805010,18
1711359528980,599616092611471786,51
1711359528987,599616092619138562,91
1711359528995,599616092626805338,128
1711359529003,599616092634472114,86
1711359529009,599616092642138890,-28
1711359529017,599616092649805666,-84
1711359529025,599616092657472442,-32
1711359529033,599616092665139218,23
1711359529041,599616092672805994,56
1711359529049,599616092680472770,84
1711359529056,599616092688139546,74
1711359529064,599616092695806322,56
1711359529072,599616092703473098,88
1711359529079,599616092711139874,196
1711359529087,599616092718806650,444
1711359529095,599616092726473426,783
1711359529102,599616092734140202,800
1711359529110,599616092741806978,273
1711359529118,599616092749473754,-173
1711359529125,599616092757140530,-91
1711359529133,599616092764807306,58
1711359529141,599616092772474082,30
1711359529148,599616092780140858,35
1711359529156,599616092787807634,72
1711359529164,599616092795474410,72
1711359529171,599616092803141186,84
1711359529179,599616092810807962,119
1711359529187,599616092818474738,135
1711359529193,599616092826141514,128
1711359529201,599616092833808290,79
1711359529209,599616092841475066,2
1711359529217,599616092849141842,16
1711359529225,599616092856808618,88
1711359529233,599616092864475394,100
1711359529240,599616092872142170,102
1711359529248,599616092879808946,133
1711359529256,599616092887475722,100
1711359529263,599616092895142498,-30
1711359529271,599616092902809274,-152
1711359529279,599616092910476050,-168
1711359529286,599616092918142826,-140
1711359529294,599616092925809602,-161
1711359529302,599616092933476378,-210
1711359529309,599616092941143154,-224
1711359529317,599616092948809930,-240
1711359529325,599616092956476746,-273
1711359529332,599616092964143522,-245
1711359529340,599616092971810298,-182
1711359529348,599616092979477074,-198
1711359529355,599616092987143850,-266
1711359529363,599616092994810626,-329
1711359529371,599616093002477402,-428
1711359529377,599616093010144178,-503
1711359529385,599616093017810954,-470
1711359529393,599616093025477730,-491
1711359529401,599616093033144506,-664
1711359529409,599616093040811282,-765
1711359529417,599616093048478058,-699
1711359529424,599616093056144834,-631
1711359529432,599616093063811610,-594
1711359529440,599616093071478386,-535
1711359529447,599616093079145162,-498
1711359529455,599616093086811938,-479
1711359529463,599616093094478714,-435
1711359529470,599616093102145490,-379
1711359529478,599616093109812266,-313
1711359529486,599616093117479042,-236
1711359529493,599616093125145818,-198
1711359529501,599616093132812594,-208
1711359529509,599616093140479370,-203
1711359529516,599616093148146146,-152
1711359529524,599616093155812922,-93
1711359529532,599616093163479698,-65
1711359529539,599616093171146474,-100
1711359529547,599616093178813250,-198
1711359529555,599616093186480026,-266
1711359529561,599616093194146802,-226
1711359529569,599616093201813578,-161
1711359529577,599616093209480354,-128
1711359529585,599616093217147130,-81
1711359529593,599616093224813906,-46
1711359529601,599616093232480682,-77
1711359529608,599616093240147458,-95
1711359529616,599616093247814234,-107
1711359529624,599616093255481010,-133
1711359529631,599616093263147786,-102
1711359529639,599616093270814562,-42
1711359529647,599616093278481338,-28
1711359529654,599616093286148114,-11
1711359529662,599616093293814890,44
1711359529670,599616093301481666,74
1711359529677,599616093309148442,74
1711359529685,599616093316815218,86
1711359529693,599616093324481994,77
1711359529700,599616093332148770,60
1711359529708,599616093339815546,81
1711359529716,599616093347482322,102
1711359529723,599616093355149098,119
1711359529731,599616093362815874,135
1711359529739,599616093370482650,74
1711359529745,599616093378149426,-18
1711359529753,599616093385816202,-7
1711359529761,599616093393482978,25
1711359529769,599616093401149754,-65
1711359529777,599616093408816530,-98
1711359529785,599616093416483306,131
1711359529792,599616093424150082,472
1711359529800,599616093431816858,531
1711359529808,599616093439483634,102
1711359529815,599616093447150410,-287
1711359529823,599616093454817186,-175
1711359529831,599616093462483962,16
1711359529838,599616093470150738,-2
1711359529846,599616093477817514,4
1711359529854,599616093485484290,70
1711359529861,599616093493151066,42
1711359529869,599616093500817842,-14
1711359529877,599616093508484618,-2
1711359529884,599616093516151434,2
1711359529892,599616093523818210,-23
1711359529900,599616093531484986,-4
1711359529907,599616093539151762,44
1711359529915,599616093546818538,35
1711359529923,599616093554485314,-32
1711359529929,599616093562152090,-112
1711359529937,599616093569818866,-238
1711359529945,599616093577485642,-334
1711359529953,599616093585152418,-322
1711359529961,599616093592819194,-318
1711359529969,599616093600485970,-362
1711359529976,599616093608152746,-395
1711359529984,599616093615819522,-409
1711359529992,599616093623486298,-397
1711359529999,599616093631153074,-343
1711359530007,599616093638819850,-276
1711359530015,599616093646486626,-238
1711359530022,599616093654153402,-217
1711359530030,599616093661820178,-198
1711359530038,599616093669486954,-184
1711359530045,599616093677153730,-163
1711359530053,599616093684820506,-147
1711359530061,599616093692487282,-163
1711359530068,599616093700154058,-194
1711359530076,599616093707820834,-240
1711359530084,599616093715487610,-332
1711359530091,599616093723154386,-381
1711359530099,599616093730821162,-362
1711359530107,599616093738487938,-397
1711359530113,599616093746154714,-442
1711359530121,599616093753821490,-395
1711359530129,599616093761488266,-348
1711359530137,599616093769155042,-339
1711359530145,599616093776821818,-292
1711359530153,599616093784488594,-240
1711359530160,599616093792155370,-203
1711359530168,599616093799822146,-142
1711359530176,599616093807488922,-88
1711359530183,599616093815155698,-60
1711359530191,599616093822822474,-25
1711359530199,599616093830489250,4
1711359530206,599616093838156026,32
1711359530214,599616093845822802,81
1711359530222,599616093853489578,119
1711359530229,599616093861156354,121
1711359530237,599616093868823130,112
1711359530245,599616093876489906,102
1711359530252,599616093884156682,98
1711359530260,599616093891823458,109
1711359530268,599616093899490234,51
1711359530275,599616093907157010,-119
1711359530283,599616093914823786,-236
1711359530291,599616093922490562,-219
1711359530297,599616093930157338,-166
1711359530305,599616093937824114,-109
1711359530313,599616093945490890,-49
1711359530321,599616093953157666,-25
1711359530329,599616093960824442,-39
1711359530337,599616093968491218,-37
1711359530344,599616093976157994,21
1711359530352,599616093983824770,56
1711359530360,599616093991491546,30
1711359530367,599616093999158322,9
1711359530375,599616094006825098,-14
1711359530383,599616094014491874,-21
1711359530390,599616094022158650,39
1711359530398,599616094029825426,91
1711359530406,599616094037492202,93
1711359530413,599616094045158978,107
1711359530421,599616094052825754,42
1711359530429,599616094060492530,-102
1711359530436,599616094068159306,-112
1711359530444,599616094075821082,-7
1711359530452,599616094083487928,44
1711359530459,599616094091154774,67
1711359530467,599616094098821620,79
1711359530475,599616094106488466,72
1711359530481,599616094114155312,236
1711359530489,599616094121822158,662
1711359530497,599616094129489004,987
1711359530505,599616094137155850,729
1711359530513,599616094144822696,142
1711359530521,599616094152489542,-93
1711359530528,599616094160156388,0
1711359530536,599616094167823234,58
1711359530544,599616094175490080,84
1711359530551,599616094183156926,156
1711359530559,599616094190823772,208
1711359530567,599616094198490618,184
1711359530574,599616094206157464,138
1711359530582,599616094213824310,112
1711359530590,599616094221491156,112
1711359530597,599616094229158002,74
1711359530605,599616094236824848,-39
1711359530613,599616094244491694,-180
1711359530620,599616094252158540,-297
1711359530628,599616094259825386,-357
1711359530636,599616094267492232,-372
1711359530643,599616094275159078,-372
1711359530651,599616094282825924,-362
1711359530659,599616094290492770,-362
1711359530665,599616094298159616,-379
1711359530673,599616094305826462,-360
1711359530681,599616094313493308,-299
1711359530689,599616094321160154,-240
1711359530697,599616094328827000,-196
1711359530705,599616094336493846,-166
1711359530712,599616094344160692,-147
1711359530720,599616094351827538,-126
1711359530728,599616094359494384,-77
1711359530735,599616094367161230,-14
1711359530743,599616094374828076,11
1711359530751,599616094382494922,-9
1711359530758,599616094390161768,-39
1711359530766,599616094397828614,-84
1711359530774,599616094405495460,-177
1711359530781,599616094413162306,-306
1711359530789,599616094420829152,-353
1711359530797,599616094428495998,-332
1711359530804,599616094436162844,-336
1711359530812,599616094443829690,-390
1711359530820,599616094451496536,-432
1711359530827,599616094459163382,-390
1711359530835,599616094466830228,-332
1711359530843,599616094474497074,-367
1711359530849,599616094482163920,-418
1711359530857,599616094489830766,-400
1711359530865,599616094497497612,-360
1711359530873,599616094505164458,-322
1711359530881,599616094512831304,-264
1711359530889,599616094520498150,-212
1711359530896,599616094528164996,-180
1711359530904,599616094535831842,-147
1711359530912,599616094543498688,-119
1711359530919,599616094551165534,-95
1711359530927,599616094558832380,-67
1711359530935,599616094566499226,-51
1711359530942,599616094574166072,-16
1711359530950,599616094581832918,21
1711359530958,599616094589499764,-49
1711359530965,599616094597166610,-166
1711359530973,599616094604833456,-166
1711359530981,599616094612500302,-121
1711359530988,599616094620167148,-114
1711359530996,599616094627833994,-100
1711359531004,599616094635500858,-70
1711359531011,599616094643167704,-42
1711359531019,599616094650834550,-11
1711359531027,599616094658501396,14
1711359531033,599616094666168242,25
1711359531041,599616094673835088,35
1711359531049,599616094681501934,11
1711359531057,599616094689168780,-70
1711359531065,599616094696835626,-138
1711359531073,599616094704502472,-135
1711359531080,599616094712169318,-95
1711359531088,599616094719836164,-72
1711359531096,599616094727503010,-102
1711359531103,599616094735169856,-133
1711359531111,599616094742836702,-121
1711359531119,599616094750503548,-107
1711359531126,599616094758170394,-70
1711359531134,599616094765837240,-7
1711359531142,599616094773504086,28
1711359531149,599616094781170932,70
1711359531157,599616094788837778,233
1711359531165,599616094796504624,563
1711359531172,599616094804171470,734
1711359531180,599616094811838316,334
1711359531188,599616094819505162,-168
1711359531195,599616094827172008,-119
1711359531203,599616094834838854,93
1711359531211,599616094842505700,49
1711359531217,599616094850172546,14
1711359531225,599616094857839392,105
1711359531233,599616094865506238,159
1711359531241,599616094873173084,177
1711359531249,599616094880839930,175
1711359531257,599616094888506776,100
1711359531264,599616094896173622,44
1711359531272,599616094903840468,65
1711359531280,599616094911507314,28
1711359531287,599616094919174160,-119
1711359531295,599616094926841006,-226
1711359531303,599616094934507852,-266
1711359531310,599616094942174698,-334
1711359531318,599616094949841544,-374
1711359531326,599616094957508390,-339
1711359531333,599616094965175236,-327
1711359531341,599616094972842082,-414
1711359531349,599616094980508928,-535
1711359531356,599616094988175774,-559
1711359531364,599616094995842620,-474
1711359531372,599616095003509466,-404
1711359531379,599616095011176312,-357
1711359531387,599616095018843158,-301
1711359531395,599616095026510004,-292
1711359531401,599616095034176850,-304
1711359531409,599616095041843696,-250
1711359531417,599616095049510542,-182
1711359531425,599616095057177388,-147
1711359531433,599616095064844234,-126
1711359531441,599616095072511080,-156
1711359531448,599616095080177926,-215
1711359531456,599616095087844772,-224
1711359531464,599616095095511618,-191
1711359531471,599616095103178464,-147
1711359531479,599616095110845310,-107
1711359531487,599616095118512156,-131
1711359531494,599616095126179002,-224
1711359531502,599616095133845848,-292
1711359531510,599616095141512694,-250
1711359531517,599616095149179540,-180
1711359531525,599616095156846386,-154
1711359531533,599616095164513232,-128
1711359531540,599616095172180078,-102
1711359531548,599616095179846924,-100
1711359531556,599616095187513770,-74
1711359531563,599616095195195680,2
1711359531571,599616095202862317,56
1711359531579,599616095210528954,23
1711359531585,599616095218195591,-53
1711359531593,599616095225862228,-91
1711359531601,599616095233528865,-72
1711359531609,599616095241195502,-35
1711359531617,599616095248862139,0
1711359531625,599616095256528776,18
1711359531632,599616095264195413,28
1711359531640,599616095271862050,-23
1711359531648,599616095279528687,-128
1711359531655,599616095287195324,-121
1711359531663,599616095294861961,-49
1711359531671,599616095302528598,-86
1711359531678,599616095310195235,-119
1711359531686,599616095317861872,-81
1711359531694,599616095325528509,-114
1711359531701,599616095333195146,-128
1711359531709,599616095340861783,-49
1711359531717,599616095348528420,-21
1711359531724,599616095356195057,-53
1711359531732,599616095363861694,-32
1711359531740,599616095371528331,9
1711359531747,599616095379194968,37
1711359531755,599616095386861605,74
1711359531763,599616095394528242,93
1711359531769,599616095402194879,100
1711359531777,599616095409861516,121
1711359531785,599616095417528153,63
1711359531793,599616095425194790,-32
1711359531801,599616095432861427,-18
1711359531809,599616095440528064,37
1711359531816,599616095448194701,39
1711359531824,599616095455861338,70
1711359531832,599616095463527975,217
1711359531839,599616095471194612,491
1711359531847,599616095478861249,662
1711359531855,599616095486527886,313
1711359531862,599616095494194523,-257
1711359531870,599616095501861160,-306
1711359531878,599616095509527797,-56
1711359531885,599616095517194434,-88
1711359531893,599616095524861071,-231
1711359531901,599616095532527708,-198
1711359531908,599616095540194345,-126
1711359531916,599616095547860982,-102
1711359531924,599616095555527619,-63
1711359531931,599616095563194256,-30
1711359531939,599616095570860893,-46
1711359531947,599616095578527530,-63
1711359531953,599616095586194167,-63
1711359531961,599616095593860804,-84
1711359531969,599616095601527441,-91
1711359531977,599616095609194078,-63
1711359531985,599616095616860715,-79
1711359531993,599616095624527352,-154
1711359532000,599616095632193989,-189
1711359532008,599616095639860626,-182
1711359532016,599616095647527263,-215
1711359532023,599616095655193900,-280
1711359532031,599616095662860537,-360
1711359532039,599616095670527174,-432
1711359532046,599616095678193811,-409
1711359532054,599616095685860448,-318
1711359532062,599616095693527085,-266
1711359532069,599616095701193722,-243
1711359532077,599616095708860359,-257
1711359532085,599616095716526996,-290
1711359532092,599616095724193633,-262
1711359532100,599616095731860270,-196
1711359532108,599616095739526907,-166
1711359532115,599616095747193544,-140
1711359532123,599616095754860196,-152
1711359532131,599616095762526833,-269
1711359532137,599616095770193470,-348
1711359532145,599616095777860107,-283
1711359532153,599616095785526744,-219
1711359532161,599616095793193381,-217
1711359532169,599616095800860018,-219
1711359532177,599616095808526655,-287
1711359532184,599616095816193292,-367
1711359532192,599616095823859929,-318
1711359532200,599616095831526566,-259
1711359532207,599616095839193203,-278
1711359532215,599616095846859840,-248
1711359532223,599616095854526477,-240
1711359532230,599616095862193114,-329
1711359532238,599616095869859751,-327
1711359532246,599616095877526388,-215
1711359532253,599616095885193025,-154
1711359532261,599616095892859662,-121
1711359532269,599616095900526299,-102
1711359532276,599616095908192936,-128
1711359532284,599616095915859573,-145
1711359532292,599616095923526210,-187
1711359532299,599616095931192847,-238
1711359532307,599616095938859484,-203
1711359532315,599616095946526121,-159
1711359532321,599616095954192758,-208
1711359532329,599616095961859395,-273
1711359532337,599616095969526032,-236
1711359532345,599616095977192669,-156
1711359532353,599616095984859306,-107
1711359532361,599616095992525943,-67
1711359532368,599616096000192580,-37
1711359532376,599616096007859217,-42
1711359532384,599616096015525854,-53
1711359532391,599616096023192491,-44
1711359532399,599616096030859128,-21
1711359532407,599616096038525765,-9
1711359532414,599616096046192402,-28
1711359532422,599616096053859039,-93
1711359532430,599616096061525676,-145
1711359532437,599616096069192313,-107
1711359532445,599616096076858950,-53
1711359532453,599616096084525587,-39
1711359532460,599616096092192224,-4
1711359532468,599616096099858861,35
1711359532476,599616096107525498,37
1711359532483,599616096115192135,51
1711359532491,599616096122858772,166
1711359532499,599616096130525409,451
1711359532505,599616096138192046,851
1711359532513,599616096145858683,938
1711359532521,599616096153525320,421
1711359532529,599616096161191957,-37
1711359532537,599616096168858594,67
1711359532545,599616096176525231,229
1711359532552,599616096184191868,166
1711359532560,599616096191858505,133
1711359532568,599616096199525142,131
1711359532575,599616096207191779,86
1711359532583,599616096214858416,91
1711359532591,599616096222525053,109
1711359532598,599616096230191690,100
1711359532606,599616096237858327,135
1711359532614,599616096245524964,142
1711359532621,599616096253191601,42
1711359532629,599616096260858238,-14
1711359532637,599616096268524875,30
1711359532644,599616096276191512,63
1711359532652,599616096283858149,63
1711359532660,599616096291524786,35
1711359532667,599616096299191423,-2
1711359532675,599616096306858060,2
1711359532683,599616096314534790,4
1711359532689,599616096322201287,-25
1711359532697,599616096329867784,-49
1711359532705,599616096337534281,-58
1711359532713,599616096345200778,-98
1711359532721,599616096352867275,-140
1711359532729,599616096360533772,-142
1711359532736,599616096368200269,-145
1711359532744,599616096375866766,-149
1711359532752,599616096383533263,-126
1711359532759,599616096391199760,-191
1711359532767,599616096398866257,-390
1711359532775,599616096406532754,-496
1711359532782,599616096414199251,-437
1711359532790,599616096421865748,-418
1711359532798,599616096429532245,-512
1711359532805,599616096437198742,-620
1711359532813,599616096444865239,-669
1711359532821,599616096452531736,-687
1711359532828,599616096460198233,-671
1711359532836,599616096467864730,-591
1711359532844,599616096475531227,-510
1711359532851,599616096483197724,-463
1711359532859,599616096490864221,-451
1711359532867,599616096498530718,-451
1711359532873,599616096506197215,-411
1711359532881,599616096513863712,-339
1711359532889,599616096521530209,-280
1711359532897,599616096529196706,-226
1711359532905,599616096536863203,-196
1711359532913,599616096544529700,-219
1711359532920,599616096552196197,-229
1711359532928,599616096559862694,-182
1711359532936,599616096567529191,-138
1711359532943,599616096575195688,-98
1711359532951,599616096582862185,-79
1711359532959,599616096590528682,-149
1711359532966,599616096598195179,-212
1711359532974,599616096605861676,-159
1711359532982,599616096613528173,-81
1711359532989,599616096621194670,-49
1711359532997,599616096628861167,-18
1711359533005,599616096636527664,-11
1711359533012,599616096644194161,-7
1711359533020,599616096651860658,58
1711359533028,599616096659527155,133
1711359533035,599616096667193652,152
1711359533043,599616096674860149,149
1711359533051,599616096682526646,152
1711359533057,599616096690193143,142
1711359533065,599616096697859640,107
1711359533073,599616096705526137,100
1711359533081,599616096713192634,152
1711359533089,599616096720859131,180
1711359533097,599616096728525628,133
1711359533104,599616096736192125,35
1711359533112,599616096743858622,-25
1711359533120,599616096751525119,9
1711359533127,599616096759191616,63
1711359533135,599616096766858113,77
1711359533143,599616096774524610,88
1711359533150,599616096782191107,201
1711359533158,599616096789857604,512
1711359533166,599616096797524101,875
1711359533173,599616096805190598,802
1711359533181,599616096812857095,208
1711359533189,599616096820523592,-152
1711359533196,599616096828190089,11
1711359533204,599616096835856586,145
1711359533212,599616096843523083,100
1711359533219,599616096851189580,128
1711359533227,599616096858856077,182
1711359533235,599616096866522574,177
1711359533241,599616096874169046,182
1711359533249,599616096881835822,191
1711359533257,599616096889502598,168
1711359533265,599616096897169374,180
1711359533273,599616096904836150,201
1711359533281,599616096912502926,175
1711359533288,599616096920169702,163
1711359533296,599616096927836478,177
1711359533304,599616096935503254,86
1711359533311,599616096943170030,-72
1711359533319,599616096950836806,-112
1711359533327,599616096958503582,-60
1711359533334,599616096966170358,-39
1711359533342,599616096973837134,-63
1711359533350,599616096981503910,-198
1711359533357,599616096989170686,-357
1711359533365,599616096996837462,-339
1711359533373,599616097004504238,-262
1711359533380,599616097012171014,-257
1711359533388,599616097019837790,-252
1711359533396,599616097027504566,-273
1711359533403,599616097035171342,-332
1711359533411,599616097042838118,-367
1711359533419,599616097050504894,-383
1711359533425,599616097058171670,-388
1711359533433,599616097065838446,-388
1711359533441,599616097073505222,-414
1711359533449,599616097081171998,-463
1711359533457,599616097088838774,-491
1711359533465,599616097096505550,-500
1711359533472,599616097104172326,-484
1711359533480,599616097111839102,-437
1711359533488,599616097119505878,-435
1711359533495,599616097127172654,-512
1711359533503,599616097134839430,-547
1711359533511,599616097142506206,-505
1711359533518,599616097150172982,-479
1711359533526,599616097157839758,-435
1711359533534,599616097165506534,-334
1711359533541,599616097173173310,-301
1711359533549,599616097180840086,-372
1711359533557,599616097188506862,-437
1711359533564,599616097196173638,-435
1711359533572,599616097203840414,-372
1711359533580,599616097211507190,-304
1711359533587,599616097219173966,-264
1711359533595,599616097226840742,-243
1711359533603,599616097234507518,-224
1711359533609,599616097242174294,-189
1711359533617,599616097249841070,-138
1711359533625,599616097257507846,-109
1711359533633,599616097265174622,-133
1711359533641,599616097272841398,-224
1711359533649,599616097280508174,-306
1711359533656,599616097288174950,-264
1711359533664,599616097295841726,-161
1711359533672,599616097303508502,-91
1711359533679,599616097311175278,-46
1711359533687,599616097318842054,-53
1711359533695,599616097326508830,-93
1711359533702,599616097334175606,-77
1711359533710,599616097341842382,-11
1711359533718,599616097349509158,35
1711359533725,599616097357175934,65
1711359533733,599616097364842710,86
1711359533741,599616097372509486,74
1711359533748,599616097380176262,70
1711359533756,599616097387843038,114
1711359533764,599616097395509814,170
1711359533771,599616097403176590,196
1711359533779,599616097410843366,194
1711359533787,599616097418510142,161
1711359533793,599616097426176918,212
1711359533801,599616097433838694,458
1711359533809,599616097441505540,758
1711359533817,599616097449172386,732
1711359533825,599616097456839232,182
1711359533833,599616097464506078,-390
1711359533840,599616097472172924,-481
1711359533848,599616097479839770,-336
1711359533856,599616097487506616,-280
1711359533863,599616097495173462,-257
1711359533871,599616097502840308,-180
1711359533879,599616097510507154,-142
1711359533886,599616097518174000,-156
1711359533894,599616097525840846,-128
1711359533902,599616097533507692,-67
1711359533909,599616097541174538,-21
1711359533917,599616097548841384,23
1711359533925,599616097556508230,46
1711359533932,599616097564175076,35
1711359533940,599616097571841922,46
1711359533948,599616097579508768,91
1711359533955,599616097587175614,121
1711359533963,599616097594842460,140
1711359533971,599616097602509306,166
1711359533977,599616097610176152,170
1711359533985,599616097617842998,154
1711359533993,599616097625509844,166
1711359534001,599616097633176690,208
1711359534009,599616097640843536,250
1711359534017,599616097648510382,269
1711359534024,599616097656177228,252
1711359534032,599616097663844074,196
1711359534040,599616097671510920,147
1711359534047,599616097679177766,124
1711359534055,599616097686844612,58
1711359534063,599616097694511458,-23
1711359534070,599616097702178304,-49
1711359534078,599616097709845150,-74
1711359534086,599616097717511996,-140
1711359534093,599616097725178842,-194
1711359534101,599616097732845688,-226
1711359534109,599616097740512534,-294
1711359534116,599616097748179380,-374
1711359534124,599616097755846226,-390
1711359534132,599616097763513072,-376
1711359534139,599616097771179918,-362
1711359534147,599616097778846764,-339
1711359534155,599616097786513610,-343
1711359534161,599616097794180456,-364
1711359534169,599616097801847302,-379
1711359534177,599616097809514148,-442
1711359534185,599616097817180994,-519
1711359534193,599616097824847840,-514
1711359534201,599616097832514686,-474
1711359534208,599616097840181532,-446
1711359534216,599616097847848378,-400
1711359534224,599616097855515224,-353
1711359534231,599616097863182070,-329
1711359534239,599616097870848916,-308
1711359534247,599616097878515762,-290
1711359534254,599616097886182608,-252
1711359534262,599616097893849454,-187
1711359534270,599616097901516300,-156
1711359534277,599616097909183146,-166
1711359534285,599616097916849992,-168
1711359534293,599616097924516838,-210
1711359534300,599616097932183684,-273
1711359534308,599616097939850530,-273
1711359534316,599616097947517376,-283
1711359534323,599616097955184222,-339
1711359534331,599616097962851068,-357
1711359534339,599616097970517914,-362
1711359534345,599616097978184760,-362
1711359534353,599616097985851606,-304
1711359534361,599616097993528550,-236
1711359534369,599616098001195256,-266
1711359534377,599616098008861962,-353
1711359534385,599616098016528668,-348
1711359534392,599616098024195374,-278
1711359534400,599616098031862080,-236
1711359534408,599616098039528786,-194
1711359534415,599616098047195492,-168
1711359534423,599616098054862198,-236
1711359534431,599616098062528904,-306
1711359534438,599616098070195610,-264
1711359534446,599616098077862316,-91
1711359534454,599616098085529022,292
1711359534461,599616098093195728,755
1711359534469,599616098100862434,765
1711359534477,599616098108529140,166
1711359534484,599616098116195846,-269
1711359534492,599616098123862552,-145
1711359534500,599616098131529258,14
1711359534507,599616098139195964,-18
1711359534515,599616098146862670,-18
1711359534523,599616098154529376,0
1711359534529,599616098162196082,-30
1711359534537,599616098169862788,-46
1711359534545,599616098177529494,-56
1711359534553,599616098185196200,-49
1711359534561,599616098192862906,-44
1711359534569,599616098200529612,-114
1711359534576,599616098208196318,-163
1711359534584,599616098215863024,-105
1711359534592,599616098223529730,-39
1711359534599,599616098231196436,-7
1711359534607,599616098238863142,39
1711359534615,599616098246529848,44
1711359534622,599616098254196554,14
1711359534630,599616098261863260,53
1711359534638,599616098269529966,128
1711359534645,599616098277196672,175
1711359534653,599616098284863378,222
1711359534661,599616098292530084,243
1711359534668,599616098300196790,236
1711359534676,599616098307863496,262
1711359534684,599616098315530202,320
1711359534691,599616098323196908,353
1711359534699,599616098330863614,348
1711359534707,599616098338530320,308
1711359534713,599616098346197026,210
1711359534721,599616098353863732,112
1711359534729,599616098361530438,63
1711359534737,599616098369197144,37
1711359534745,599616098376863850,9
1711359534753,599616098384530556,-51
1711359534760,599616098392197262,-140
1711359534768,599616098399863968,-205
1711359534776,599616098407530674,-233
1711359534783,599616098415197380,-308
1711359534791,599616098422864086,-432
1711359534799,599616098430530792,-472
1711359534806,599616098438197498,-423
1711359534814,599616098445864204,-432
1711359534822,599616098453530910,-526
1711359534829,599616098461197616,-559
1711359534837,599616098468864322,-512
1711359534845,599616098476531028,-488
1711359534852,599616098484197734,-488
1711359534860,599616098491864440,-465
1711359534868,599616098499531146,-435
1711359534875,599616098507197852,-411
1711359534883,599616098514864558,-388
1711359534891,599616098522531264,-364
1711359534897,599616098530197970,-341
1711359534905,599616098537864676,-372
1711359534913,599616098545531382,-439
1711359534921,599616098553193112,-409
1711359534929,599616098560859888,-334
1711359534937,599616098568526664,-336
1711359534944,599616098576193440,-327
1711359534952,599616098583860216,-266
1711359534960,599616098591526992,-222
1711359534967,599616098599193768,-166
1711359534975,599616098606860544,-100
1711359534983,599616098614527320,-91
1711359534990,599616098622194096,-100
1711359534998,599616098629860872,-100
1711359535006,599616098637527648,-149
1711359535013,599616098645194424,-203
1711359535021,599616098652861200,-170
1711359535029,599616098660527976,-149
1711359535036,599616098668194752,-203
1711359535044,599616098675861528,-212
1711359535052,599616098683528304,-238
1711359535059,599616098691195080,-341
1711359535067,599616098698861856,-346
1711359535075,599616098706528632,-262
1711359535081,599616098714195408,-240
1711359535089,599616098721862184,-212
1711359535097,599616098729528960,-77
1711359535105,599616098737195736,191
1711359535113,599616098744862512,561
1711359535121,599616098752529288,676
1711359535128,599616098760196064,240
1711359535136,599616098767862840,-208
1711359535144,599616098775529616,-121
1711359535151,599616098783196392,74
1711359535159,599616098790863168,28
1711359535167,599616098798529944,-2
1711359535174,599616098806196720,70
1711359535182,599616098813863496,102
1711359535190,599616098821530272,116
1711359535197,599616098829197048,142
1711359535205,599616098836863824,138
1711359535213,599616098844530600,128
1711359535220,599616098852197376,142
1711359535228,599616098859864152,156
1711359535236,599616098867530928,175
1711359535243,599616098875197704,175
1711359535251,599616098882864480,102
1711359535259,599616098890531256,25
1711359535265,599616098898198032,46
1711359535273,599616098905864808,79
1711359535281,599616098913531584,35
1711359535289,599616098921198360,7
1711359535297,599616098928865136,16
1711359535305,599616098936531912,-7
1711359535312,599616098944198688,-11
1711359535320,599616098951865464,-7
1711359535328,599616098959532240,-72
1711359535335,599616098967199016,-91
1711359535343,599616098974865792,-28
1711359535351,599616098982532568,-18
1711359535358,599616098990199344,-30
1711359535366,599616098997866120,30
1711359535374,599616099005532896,84
1711359535381,599616099013199672,93
1711359535389,599616099020866448,86
1711359535397,599616099028533224,18
1711359535404,599616099036200000,-98
1711359535412,599616099043866776,-152
1711359535420,599616099051533552,-133
1711359535427,599616099059200328,-112
1711359535435,599616099066867104,-135
1711359535443,599616099074533880,-266
1711359535449,599616099082200656,-421
1711359535457,599616099089867432,-456
1711359535465,599616099097534208,-442
1711359535473,599616099105200984,-437
1711359535481,599616099112867800,-430
1711359535489,599616099120534576,-446
1711359535496,599616099128201352,-463
1711359535504,599616099135868128,-432
1711359535512,599616099143534904,-381
1711359535519,599616099151201680,-355
1711359535527,599616099158868456,-386
1711359535535,599616099166535232,-474
1711359535542,599616099174202008,-570
1711359535550,599616099181868784,-596
1711359535558,599616099189535560,-528
1711359535565,599616099197202336,-446
1711359535573,599616099204869112,-414
1711359535581,599616099212535888,-414
1711359535588,599616099220202664,-484
1711359535596,599616099227869440,-575
1711359535604,599616099235536216,-549
1711359535611,599616099243202992,-446
1711359535619,599616099250869768,-369
1711359535627,599616099258536544,-313
1711359535633,599616099266203320,-266
1711359535641,599616099273870096,-259
1711359535649,599616099281536872,-257
1711359535657,599616099289203648,-205
1711359535665,599616099296870424,-145
1711359535673,599616099304537200,-126
1711359535680,599616099312203976,-105
1711359535688,599616099319870752,-70
1711359535696,599616099327537528,-46
1711359535703,599616099335204304,-9
1711359535711,599616099342871080,39
1711359535719,599616099350537856,60
1711359535726,599616099358204632,79
1711359535734,599616099365871408,102
1711359535742,599616099373538184,107
1711359535749,599616099381204960,156
1711359535757,599616099388871736,362
1711359535765,599616099396538512,692
1711359535772,599616099404205288,837
1711359535780,599616099411872064,409
1711359535788,599616099419538840,-252
1711359535795,599616099427205616,-364
1711359535803,599616099434872392,-102
1711359535811,599616099442539168,-46
1711359535817,599616099450205944,-102
1711359535825,599616099457872720,-128
1711359535833,599616099465539496,-205
1711359535841,599616099473206272,-229
1711359535849,599616099480873048,-156
1711359535857,599616099488539824,-126
1711359535864,599616099496206600,-112
1711359535872,599616099503873376,-49
1711359535880,599616099511540152,-4
1711359535887,599616099519206928,-2
1711359535895,599616099526873704,21
1711359535903,599616099534540480,60
1711359535910,599616099542207256,84
1711359535918,599616099549874032,114
1711359535926,599616099557540808,154
1711359535933,599616099565207584,163
1711359535941,599616099572874360,145
1711359535949,599616099580541136,131
1711359535956,599616099588207912,156
1711359535964,599616099595874688,217
1711359535972,599616099603541464,259
1711359535979,599616099611208240,217
1711359535987,599616099618875016,126
1711359535995,599616099626541792,107
1711359536001,599616099634208568,170
1711359536009,599616099641875344,208
1711359536017,599616099649542120,184
1711359536025,599616099657208896,126
1711359536033,599616099664875672,65
1711359536041,599616099672572584,18
1711359536048,599616099680238942,9
1711359536056,599616099687905300,39
1711359536064,599616099695571658,53
1711359536071,599616099703238016,16
1711359536079,599616099710904374,-37
1711359536087,599616099718570732,-67
1711359536094,599616099726237090,-56
1711359536102,599616099733903448,-49
1711359536110,599616099741569806,-77
1711359536117,599616099749236164,-133
1711359536125,599616099756902522,-308
1711359536133,599616099764568880,-517
1711359536140,599616099772235238,-528
1711359536148,599616099779901596,-439
1711359536156,599616099787567954,-414
1711359536163,599616099795234312,-388
1711359536171,599616099802900670,-372
1711359536179,599616099810567028,-402
1711359536185,599616099818233386,-409
1711359536193,599616099825899744,-367
1711359536201,599616099833566102,-329
1711359536209,599616099841232460,-283
1711359536217,599616099848898818,-236
1711359536225,599616099856565176,-240
1711359536232,599616099864231534,-252
1711359536240,599616099871897892,-215
1711359536248,599616099879564250,-177
1711359536255,599616099887230608,-161
1711359536263,599616099894896966,-173
1711359536271,599616099902563324,-226
1711359536278,599616099910229682,-219
1711359536286,599616099917896040,-154
1711359536294,599616099925562398,-152
1711359536301,599616099933228756,-159
1711359536309,599616099940895114,-116
1711359536317,599616099948561472,-140
1711359536324,599616099956227830,-280
1711359536332,599616099963894188,-418
1711359536340,599616099971560546,-432
1711359536347,599616099979226904,-348
1711359536355,599616099986893262,-283
1711359536363,599616099994559620,-262
1711359536369,599616100002225978,-226
1711359536377,599616100009892336,-189
1711359536385,599616100017558694,-175
1711359536393,599616100025225052,-135
1711359536401,599616100032891410,37
1711359536409,599616100040557768,409
1711359536416,599616100048224126,790
1711359536424,599616100055890484,680
1711359536432,599616100063556842,88
1711359536439,599616100071223200,-177
1711359536447,599616100078889558,39
1711359536455,599616100086555916,131
1711359536462,599616100094222274,60
1711359536470,599616100101888632,67
1711359536478,599616100109554990,79
1711359536485,599616100117221348,70
1711359536493,599616100124887706,100
1711359536501,599616100132554064,119
1711359536508,599616100140220422,67
1711359536516,599616100147886780,-51
1711359536524,599616100155553138,-126
1711359536531,599616100163219496,-81
1711359536539,599616100170885854,-39
1711359536547,599616100178552212,-46
1711359536553,599616100186218570,-25
1711359536561,599616100193884928,11
1711359536569,599616100201551286,25
1711359536577,599616100209217644,67
1711359536585,599616100216884002,121
1711359536593,599616100224550360,126
1711359536600,599616100232186658,128
1711359536608,599616100239853434,168
1711359536616,599616100247520210,194
1711359536623,599616100255186986,210
1711359536631,599616100262853762,248
1711359536639,599616100270520538,259
1711359536646,599616100278187314,250
1711359536654,599616100285854090,245
1711359536662,599616100293520866,133
1711359536669,599616100301187642,-46
1711359536677,599616100308854418,-98
1711359536685,599616100316521194,-79
1711359536692,599616100324187970,-100
1711359536700,599616100331854746,-93
1711359536708,599616100339521522,-67
1711359536715,599616100347188298,-79
1711359536723,599616100354855074,-95
1711359536731,599616100362521850,-109
1711359536737,599616100370188626,-133
1711359536745,599616100377855402,-133
1711359536753,599616100385522178,-149
1711359536761,599616100393188954,-240
1711359536769,599616100400855730,-329
1711359536777,599616100408522506,-348
1711359536784,599616100416189282,-367
1711359536792,599616100423856058,-381
1711359536800,599616100431522834,-334
1711359536807,599616100439189610,-315
1711359536815,599616100446856386,-343
1711359536823,599616100454523162,-332
1711359536830,599616100462189938,-341
1711359536838,599616100469856714,-465
1711359536846,599616100477523490,-547
1711359536853,599616100485190266,-517
1711359536861,599616100492857042,-573
1711359536869,599616100500523818,-645
1711359536876,599616100508190594,-568
1711359536884,599616100515857370,-491
1711359536892,599616100523524146,-470
1711359536899,599616100531190922,-411
1711359536907,599616100538857698,-355
1711359536915,599616100546524474,-339
1711359536921,599616100554191250,-285
1711359536929,599616100561858026,-224
1711359536937,599616100569524802,-212
1711359536945,599616100577191578,-201
1711359536953,599616100584858354,-189
1711359536961,599616100592525130,-198
1711359536968,599616100600191906,-175
1711359536976,599616100607858682,-133
1711359536984,599616100615525458,-86
1711359536991,599616100623192234,-25
1711359536999,599616100630859010,-32
1711359537007,599616100638525786,-119
1711359537014,599616100646192562,-161
1711359537022,599616100653859338,-105
1711359537030,599616100661526114,-42
1711359537037,599616100669192890,16
1711359537045,599616100676859666,170
1711359537053,599616100684526442,416
1711359537060,599616100692193218,629
1711359537068,599616100699859994,493
1711359537076,599616100707526770,-7
1711359537083,599616100715193546,-222
1711359537091,599616100722860322,2
1711359537099,599616100730527098,116
1711359537105,599616100738193874,35
1711359537113,599616100745860650,51
1711359537121,599616100753527426,145
1711359537129,599616100761194202,191
1711359537137,599616100768860978,212
1711359537145,599616100776527754,208
1711359537152,599616100784194530,180
1711359537160,599616100791861346,201
1711359537168,599616100799528122,264
1711359537175,599616100807194898,292
1711359537183,599616100814861674,269
1711359537191,599616100822528450,226
1711359537198,599616100830195226,91
1711359537206,599616100837862002,-63
1711359537214,599616100845528778,-35
1711359537221,599616100853195554,35
1711359537229,599616100860862330,9
1711359537237,599616100868529106,39
1711359537244,599616100876195882,84
1711359537252,599616100883862658,49
1711359537260,599616100891529434,60
1711359537267,599616100899196210,133
1711359537275,599616100906862986,156
1711359537283,599616100914529762,173
1711359537289,599616100922196538,208
1711359537297,599616100929863314,208
1711359537305,599616100937530090,189
1711359537313,599616100945196866,224
1711359537321,599616100952863642,252
1711359537329,599616100960530418,196
1711359537336,599616100968197194,102
1711359537344,599616100975863970,-25
1711359537352,599616100983530746,-131
1711359537359,599616100991197522,-109
1711359537367,599616100998864298,-100
1711359537375,599616101006531074,-205
1711359537382,599616101014197850,-259
1711359537390,599616101021864626,-248
1711359537398,599616101029531402,-327
1711359537405,599616101037198178,-416
1711359537413,599616101044864954,-418
1711359537421,599616101052531730,-428
1711359537428,599616101060198506,-460
1711359537436,599616101067865282,-477
1711359537444,599616101075532058,-474
1711359537451,599616101083198834,-463
1711359537459,599616101090865610,-449
1711359537467,599616101098532386,-439
1711359537473,599616101106199162,-404
1711359537481,599616101113865938,-350
1711359537489,599616101121532714,-322
1711359537497,599616101129199490,-343
1711359537505,599616101136866266,-369
1711359537513,599616101144533042,-360
1711359537520,599616101152199818,-334
1711359537528,599616101159866594,-304
1711359537536,599616101167533370,-283
1711359537543,599616101175200146,-264
1711359537551,599616101182866922,-219
1711359537559,599616101190533698,-168
1711359537566,599616101198200474,-131
1711359537574,599616101205867250,-105
1711359537582,599616101213534026,-109
1711359537589,599616101221200802,-175
1711359537597,599616101228867578,-259
1711359537605,599616101236534354,-269
1711359537612,599616101244201130,-212
1711359537620,599616101251867906,-156
1711359537628,599616101259534682,-116
1711359537635,599616101267201458,-100
1711359537643,599616101274868234,-112
1711359537651,599616101282535010,-100
1711359537657,599616101290201786,-53
1711359537665,599616101297868562,-16
1711359537673,599616101305535338,7
1711359537681,599616101313202114,86
1711359537689,599616101320868890,285
1711359537697,599616101328535666,627
1711359537704,599616101336202442,861
1711359537712,599616101343869218,563
1711359537720,599616101351566132,25
1711359537727,599616101359232490,-60
1711359537735,599616101366898848,112
1711359537743,599616101374565206,65
1711359537750,599616101382231564,-18
1711359537758,599616101389897922,28
1711359537766,599616101397564280,70
1711359537773,599616101405230638,98
1711359537781,599616101412896996,65
1711359537789,599616101420563354,-102
1711359537796,599616101428229712,-184
1711359537804,599616101435896070,-86
1711359537812,599616101443562428,-16
1711359537819,599616101451228786,0
1711359537827,599616101458895144,35
1711359537835,599616101466561502,18
1711359537841,599616101474227860,-37
1711359537849,599616101481894218,-98
1711359537857,599616101489560576,-138
1711359537865,599616101497226934,-91
1711359537873,599616101504893292,-25
1711359537881,599616101512559650,-39
1711359537888,599616101520226008,-44
1711359537896,599616101527892366,21
1711359537904,599616101535558724,60
1711359537911,599616101543225082,79
1711359537919,599616101550891440,133
1711359537927,599616101558557798,112
1711359537934,599616101566224156,-9
1711359537942,599616101573890514,-42
1711359537950,599616101581556872,44
1711359537957,599616101589223230,95
1711359537965,599616101596889588,79
1711359537973,599616101604555946,63
1711359537980,599616101612222304,46
1711359537988,599616101619888662,-7
1711359537996,599616101627555020,-63
1711359538003,599616101635221378,-46
1711359538011,599616101642887736,-7
1711359538019,599616101650554094,-30
1711359538025,599616101658220452,-100
1711359538033,599616101665886810,-124
1711359538041,599616101673553168,-63
1711359538049,599616101681219526,-35
1711359538057,599616101688885884,-116
1711359538065,599616101696552242,-184
1711359538072,599616101704218600,-201
1711359538080,599616101711884958,-259
1711359538088,599616101719551316,-301
1711359538095,599616101727217674,-243
1711359538103,599616101734884032,-205
1711359538111,599616101742550390,-222
1711359538118,599616101750216748,-217
1711359538126,599616101757883106,-252
1711359538134,599616101765549464,-322
1711359538141,599616101773215822,-297
1711359538149,599616101780882180,-243
1711359538157,599616101788548538,-259
1711359538164,599616101796214896,-264
1711359538172,599616101803881254,-233
1711359538180,599616101811547612,-203
1711359538187,599616101819213970,-147
1711359538195,599616101826880328,-102
1711359538203,599616101834546686,-126
1711359538209,599616101842213044,-154
1711359538217,599616101849879402,-147
1711359538225,599616101857545760,-154
1711359538233,599616101865212118,-205
1711359538241,599616101872878476,-255
1711359538249,599616101880544834,-259
1711359538256,599616101888211192,-248
1711359538264,599616101895877550,-257
1711359538272,599616101903543908,-318
1711359538279,599616101911180206,-379
1711359538287,599616101918846982,-350
1711359538295,599616101926513758,-299
1711359538302,599616101934180534,-273
1711359538310,599616101941847310,-173
1711359538318,599616101949514086,60
1711359538325,599616101957180862,395
1711359538333,599616101964847638,603
1711359538341,599616101972514414,264
1711359538348,599616101980181190,-336
1711359538356,599616101987847966,-477
1711359538364,599616101995514742,-357
1711359538371,599616102003181518,-414
1711359538379,599616102010848294,-479
1711359538387,599616102018515070,-439
1711359538393,599616102026181846,-388
1711359538401,599616102033848622,-346
1711359538409,599616102041515398,-287
1711359538417,599616102049182174,-248
1711359538425,599616102056848950,-231
1711359538433,599616102064515726,-224
1711359538440,599616102072182502,-203
1711359538448,599616102079849278,-147
1711359538456,599616102087516054,-84
1711359538463,599616102095182830,-98
1711359538471,599616102102849606,-201
1711359538479,599616102110516382,-283
1711359538486,599616102118183158,-285
1711359538494,599616102125849934,-240
1711359538502,599616102133516710,-166
1711359538509,599616102141183486,-93
1711359538517,599616102148850262,-67
1711359538525,599616102156517038,-58
1711359538532,599616102164183814,0
1711359538540,599616102171850590,74
1711359538548,599616102179517366,138
1711359538555,599616102187184142,203
1711359538563,599616102194850918,233
1711359538571,599616102202517694,210
1711359538577,599616102210184470,217
1711359538585,599616102217851246,264
1711359538593,599616102225518022,269
1711359538601,599616102233184798,236
1711359538609,599616102240851574,203
1711359538617,599616102248518350,142
1711359538624,599616102256185126,102
1711359538632,599616102263851902,128
1711359538640,599616102271518678,163
1711359538647,599616102279185454,180
1711359538655,599616102286852230,168
1711359538663,599616102294519006,72
1711359538670,599616102302185782,-28
1711359538678,599616102309852558,-44
1711359538686,599616102317519334,-44
1711359538693,599616102325186110,-42
1711359538701,599616102332852886,-21
1711359538709,599616102340519662,-67
1711359538716,599616102348186438,-145
1711359538724,599616102355853214,-180
1711359538732,599616102363519990,-248
1711359538739,599616102371186766,-301
1711359538747,599616102378853542,-273
1711359538755,599616102386520318,-273
1711359538761,599616102394187094,-311
1711359538769,599616102401853870,-290
1711359538777,599616102409520646,-245
1711359538785,599616102417187422,-233
1711359538793,599616102424854198,-240
1711359538801,599616102432520974,-266
1711359538808,599616102440187750,-327
1711359538816,599616102447854526,-374
1711359538824,599616102455521302,-346
1711359538831,599616102463188078,-294
1711359538839,599616102470884990,-285
1711359538847,599616102478551348,-285
1711359538854,599616102486217706,-271
1711359538862,599616102493884064,-308
1711359538870,599616102501550422,-400
1711359538877,599616102509216780,-404
1711359538885,599616102516883138,-336
1711359538893,599616102524549496,-332
1711359538900,599616102532215854,-367
1711359538908,599616102539882212,-383
1711359538916,599616102547548570,-390
1711359538923,599616102555214928,-355
1711359538931,599616102562881286,-280
1711359538939,599616102570547644,-142
1711359538945,599616102578214002,163
1711359538953,599616102585880360,474
1711359538961,599616102593546718,297
1711359538969,599616102601213076,-322
1711359538977,599616102608879434,-620
1711359538985,599616102616545792,-409
1711359538992,599616102624212150,-236
1711359539000,599616102631878508,-285
1711359539008,599616102639544866,-357
1711359539015,599616102647211224,-320
1711359539023,599616102654877582,-243
1711359539031,599616102662543940,-217
1711359539038,599616102670210298,-187
1711359539046,599616102677876656,-128
1711359539054,599616102685543014,-102
1711359539061,599616102693209372,-79
1711359539069,599616102700875730,-16
1711359539077,599616102708542088,14
1711359539084,599616102716208446,44
1711359539092,599616102723874804,121
1711359539100,599616102731541162,154
1711359539107,599616102739207520,147
1711359539115,599616102746873878,182
1711359539123,599616102754540236,226
1711359539129,599616102762206594,250
1711359539137,599616102769872952,287
1711359539145,599616102777539310,269
1711359539153,599616102785205668,166
1711359539161,599616102792872026,128
1711359539169,599616102800538384,189
1711359539176,599616102808204742,224
1711359539184,599616102815871100,240
1711359539192,599616102823537458,280
1711359539199,599616102831203816,290
1711359539207,599616102838870174,262
1711359539215,599616102846536532,210
1711359539222,599616102854202890,109
1711359539230,599616102861869248,46
1711359539238,599616102869535606,65
1711359539245,599616102877201964,56
1711359539253,599616102884868322,4
1711359539261,599616102892534680,-7
1711359539268,599616102900201038,11
1711359539276,599616102907867396,35
1711359539284,599616102915533754,84
1711359539291,599616102923200112,126
1711359539299,599616102930866470,114
1711359539307,599616102938532828,95
1711359539313,599616102946199186,105
1711359539321,599616102953865544,102
1711359539329,599616102961531902,56
1711359539337,599616102969198260,-16
1711359539345,599616102976864618,-109
1711359539353,599616102984530976,-203
1711359539360,599616102992197334,-252
1711359539368,599616102999863692,-336
1711359539376,599616103007530050,-442
1711359539383,599616103015196408,-479
1711359539391,599616103022862766,-533
1711359539399,599616103030499064,-615
1711359539406,599616103038165840,-608
1711359539414,599616103045832616,-545
1711359539422,599616103053499392,-491
1711359539429,599616103061166168,-414
1711359539437,599616103068832944,-353
1711359539445,599616103076499720,-374
1711359539452,599616103084166496,-400
1711359539460,599616103091833272,-388
1711359539468,599616103099500048,-414
1711359539475,599616103107166824,-437
1711359539483,599616103114833600,-428
1711359539491,599616103122500376,-493
1711359539497,599616103130167152,-573
1711359539505,599616103137833928,-542
1711359539513,599616103145500704,-470
1711359539521,599616103153167480,-421
1711359539529,599616103160834256,-374
1711359539537,599616103168501032,-400
1711359539544,599616103176167808,-486
1711359539552,599616103183834584,-472
1711359539560,599616103191501360,-325
1711359539567,599616103199168136,-35
1711359539575,599616103206834912,388
1711359539583,599616103214501688,510
1711359539590,599616103222168464,14
1711359539598,599616103229835240,-446
1711359539606,599616103237502016,-334
1711359539613,599616103245168792,-119
1711359539621,599616103252835568,-124
1711359539629,599616103260502344,-124
1711359539636,599616103268169120,-72
1711359539644,599616103275835896,-56
1711359539652,599616103283502672,-35
1711359539659,599616103291169448,23
1711359539667,599616103298836224,67
1711359539675,599616103306503000,81
1711359539681,599616103314169776,39
1711359539689,599616103321836552,-53
1711359539697,599616103329503328,-67
1711359539705,599616103337170104,-7
1711359539713,599616103344836880,-35
1711359539721,599616103352503656,-107
1711359539728,599616103360170432,-91
1711359539736,599616103367837208,-53
1711359539744,599616103375503984,-35
1711359539751,599616103383170760,37
1711359539759,599616103390837536,100
1711359539767,599616103398504312,105
1711359539774,599616103406171088,133
1711359539782,599616103413837864,182
1711359539790,599616103421504640,201
1711359539797,599616103429171416,219
1711359539805,599616103436838192,259
1711359539813,599616103444504968,280
1711359539820,599616103452171744,306
1711359539828,599616103459838520,325
1711359539836,599616103467505296,287
1711359539843,599616103475172072,259
1711359539851,599616103482838848,273
1711359539859,599616103490505624,222
1711359539865,599616103498172400,77
1711359539873,599616103505839176,-72
1711359539881,599616103513505952,-166
1711359539889,599616103521172728,-203
1711359539897,599616103528839504,-180
1711359539905,599616103536506280,-140
1711359539912,599616103544173056,-112
1711359539920,599616103551839832,-79
1711359539928,599616103559506608,-53
1711359539935,599616103567173384,-39
1711359539943,599616103574840160,-18
1711359539951,599616103582506936,-21
1711359539958,599616103590203848,-72
1711359539966,599616103597870206,-107
1711359539974,599616103605536564,-114
1711359539981,599616103613202922,-149
1711359539989,599616103620869280,-177
1711359539997,599616103628535638,-163
1711359540004,599616103636201996,-161
1711359540012,599616103643868354,-189
1711359540020,599616103651534712,-250
1711359540027,599616103659201070,-379
1711359540035,599616103666867428,-526
1711359540043,599616103674533786,-559
1711359540049,599616103682200144,-474
1711359540057,599616103689866502,-400
1711359540065,599616103697532860,-374
1711359540073,599616103705199218,-432
1711359540081,599616103712865576,-547
1711359540089,599616103720531934,-575
1711359540096,599616103728198292,-496
1711359540104,599616103735864650,-421
1711359540112,599616103743531008,-381
1711359540119,599616103751197366,-341
1711359540127,599616103758863724,-320
1711359540135,599616103766530082,-334
1711359540142,599616103774196440,-318
1711359540150,599616103781862798,-250
1711359540158,599616103789529156,-189
1711359540165,599616103797195514,-168
1711359540173,599616103804861872,-175
1711359540181,599616103812528230,-147
1711359540188,599616103820194588,44
1711359540196,599616103827860946,416
1711359540204,599616103835527304,603
1711359540211,599616103843193662,191
1711359540219,599616103850860020,-456
1711359540227,599616103858526378,-634
1711359540233,599616103866192736,-418
1711359540241,599616103873859094,-301
1711359540249,599616103881525452,-294
1711359540257,599616103889191810,-229
1711359540265,599616103896858168,-156
1711359540273,599616103904524526,-149
1711359540280,599616103912190884,-138
1711359540288,599616103919857242,-81
1711359540296,599616103927523600,-23
1711359540303,599616103935189958,18
1711359540311,599616103942856316,51
1711359540319,599616103950522674,51
1711359540326,599616103958189032,32
1711359540334,599616103965855390,74
1711359540342,599616103973521748,154
1711359540349,599616103981188106,198
1711359540357,599616103988854464,215
1711359540365,599616103996520822,187
1711359540372,599616104004187180,86
1711359540380,599616104011853538,44
1711359540388,599616104019519896,107
1711359540395,599616104027186254,147
1711359540403,599616104034852612,145
1711359540411,599616104042518970,145
1711359540417,599616104050185328,81
1711359540425,599616104057851686,23
1711359540433,599616104065518044,86
1711359540441,599616104073184402,159
1711359540449,599616104080850760,133
1711359540457,599616104088517118,60
1711359540464,599616104096183476,11
1711359540472,599616104103849834,-4
1711359540480,599616104111516192,-4
1711359540487,599616104119182550,4
1711359540495,599616104126848908,18
1711359540503,599616104134515266,16
1711359540510,599616104142181624,-2
1711359540518,599616104149817922,-16
1711359540526,599616104157484698,0
1711359540533,599616104165151474,44
1711359540541,599616104172818250,70
1711359540549,599616104180485026,72
1711359540556,599616104188151802,56
1711359540564,599616104195818578,-14
1711359540572,599616104203485354,-102
1711359540579,599616104211152130,-91
1711359540587,599616104218818906,-35
1711359540595,599616104226485682,-30
1711359540601,599616104234152458,-28
1711359540609,599616104241819234,-60
1711359540617,599616104249486010,-173
1711359540625,599616104257152786,-231
1711359540633,599616104264819562,-196
1711359540641,599616104272486338,-182
1711359540648,599616104280153114,-203
1711359540656,599616104287819890,-238
1711359540664,599616104295486666,-294
1711359540671,599616104303153442,-315
1711359540679,599616104310820218,-304
1711359540687,599616104318486994,-311
1711359540694,599616104326153770,-346
1711359540702,599616104333820546,-409
1711359540710,599616104341487322,-449
1711359540717,599616104349154098,-421
1711359540725,599616104356820874,-390
1711359540733,599616104364487650,-388
1711359540740,599616104372154426,-367
1711359540748,599616104379821202,-341
1711359540756,599616104387487978,-404
1711359540763,599616104395154754,-491
1711359540771,599616104402821530,-474
1711359540779,599616104410488306,-416
1711359540785,599616104418155082,-390
1711359540793,599616104425821858,-343
1711359540801,599616104433488634,-297
1711359540809,599616104441155410,-219
1711359540817,599616104448822186,63
1711359540825,599616104456488962,470
1711359540832,599616104464155738,512
1711359540840,599616104471822514,-7
1711359540848,599616104479489290,-416
1711359540855,599616104487156066,-273
1711359540863,599616104494822842,-88
1711359540871,599616104502489618,-149
1711359540878,599616104510156394,-236
1711359540886,599616104517823170,-245
1711359540894,599616104525489946,-203
1711359540901,599616104533156722,-161
1711359540909,599616104540823498,-154
1711359540917,599616104548490274,-147
1711359540924,599616104556157050,-116
1711359540932,599616104563823826,-86
1711359540940,599616104571490602,-84
1711359540947,599616104579157378,-140
1711359540955,599616104586824154,-243
1711359540963,599616104594490930,-285
1711359540969,599616104602157706,-222
1711359540977,599616104609824482,-147
1711359540985,599616104617491258,-88
1711359540993,599616104625158034,-25
1711359541001,599616104632824810,0
1711359541009,599616104640491586,-4
1711359541016,599616104648158362,42
1711359541024,599616104655825138,126
1711359541032,599616104663491914,187
1711359541039,599616104671158690,240
1711359541047,599616104678825466,276
1711359541055,599616104686492242,264
1711359541062,599616104694159018,271
1711359541070,599616104701825794,325
1711359541078,599616104709512700,362
1711359541085,599616104717179197,372
1711359541093,599616104724845694,334
1711359541101,599616104732512191,182
1711359541108,599616104740178688,28
1711359541116,599616104747845185,30
1711359541124,599616104755511682,81
1711359541131,599616104763178179,84
1711359541139,599616104770844676,81
1711359541147,599616104778511173,25
1711359541153,599616104786177670,-74
1711359541161,599616104793844167,-65
1711359541169,599616104801510664,7
1711359541177,599616104809177161,30
1711359541185,599616104816843658,21
1711359541193,599616104824510155,-37
1711359541200,599616104832176652,-93
1711359541208,599616104839843149,-51
1711359541216,599616104847509646,25
1711359541223,599616104855176143,63
1711359541231,599616104862842640,93
1711359541239,599616104870509137,109
1711359541246,599616104878175634,98
1711359541254,599616104885842131,95
1711359541262,599616104893508628,84
1711359541269,599616104901175125,53
1711359541277,599616104908841622,44
1711359541285,599616104916508119,21
1711359541292,599616104924174616,-98
1711359541300,599616104931841113,-233
1711359541308,599616104939507610,-238
1711359541315,599616104947174107,-229
1711359541323,599616104954840604,-318
1711359541331,599616104962507101,-367
1711359541337,599616104970173598,-341
1711359541345,599616104977840095,-350
1711359541353,599616104985506592,-348
1711359541361,599616104993173089,-299
1711359541369,599616105000839586,-294
1711359541377,599616105008506083,-381
1711359541384,599616105016172580,-463
1711359541392,599616105023839077,-453
1711359541400,599616105031505574,-418
1711359541407,599616105039172071,-390
1711359541415,599616105046838568,-362
1711359541423,599616105054505065,-334
1711359541430,599616105062171562,-184
1711359541438,599616105069838059,177
1711359541446,599616105077504556,507
1711359541453,599616105085171053,327
1711359541461,599616105092837550,-255
1711359541469,599616105100504047,-510
1711359541476,599616105108170544,-341
1711359541484,599616105115837041,-276
1711359541492,599616105123503538,-386
1711359541499,599616105131170035,-402
1711359541507,599616105138836532,-334
1711359541515,599616105146503029,-313
1711359541521,599616105154169526,-283
1711359541529,599616105161836023,-219
1711359541537,599616105169502520,-194
1711359541545,599616105177169017,-184
1711359541553,599616105184835514,-135
1711359541561,599616105192502011,-79
1711359541568,599616105200168508,-42
1711359541576,599616105207835005,4
1711359541584,599616105215501502,37
1711359541591,599616105223167999,42
1711359541599,599616105230834496,63
1711359541607,599616105238500993,100
1711359541614,599616105246167490,135
1711359541622,599616105253833987,184
1711359541630,599616105261500484,236
1711359541637,599616105269156962,245
1711359541645,599616105276823599,224
1711359541653,599616105284490236,231
1711359541660,599616105292156873,271
1711359541668,599616105299823510,311
1711359541676,599616105307490147,334
1711359541683,599616105315156784,315
1711359541691,599616105322823421,276
1711359541699,599616105330490058,252
1711359541705,599616105338156695,245
1711359541713,599616105345823332,243
1711359541721,599616105353489969,245
1711359541729,599616105361156606,166
1711359541737,599616105368823243,-44
1711359541745,599616105376489880,-177
1711359541752,599616105384156517,-131
1711359541760,599616105391823154,-67
1711359541768,599616105399489791,-46
1711359541775,599616105407156428,-21
1711359541783,599616105414823065,-25
1711359541791,599616105422489702,-39
1711359541798,599616105430156339,9
1711359541806,599616105437822976,79
1711359541814,599616105445489613,109
1711359541821,599616105453156250,102
1711359541829,599616105460822887,42
1711359541837,599616105468489524,-49
1711359541844,599616105476156161,-49
1711359541852,599616105483822798,16
1711359541860,599616105491489435,44
1711359541867,599616105499156072,72
1711359541875,599616105506822709,67
1711359541883,599616105514489346,-53
1711359541889,599616105522155983,-168
1711359541897,599616105529822620,-180
1711359541905,599616105537489257,-152
1711359541913,599616105545155894,-114
1711359541921,599616105552822531,-86
1711359541929,599616105560489168,-152
1711359541936,599616105568155805,-252
1711359541944,599616105575822442,-306
1711359541952,599616105583489079,-339
1711359541959,599616105591155716,-343
1711359541967,599616105598822353,-332
1711359541975,599616105606488990,-364
1711359541982,599616105614155627,-379
1711359541990,599616105621822264,-339
1711359541998,599616105629488901,-320
1711359542005,599616105637155538,-311
1711359542013,599616105644822175,-269
1711359542021,599616105652488812,-294
1711359542028,599616105660155449,-397
1711359542036,599616105667822086,-411
1711359542044,599616105675488723,-308
1711359542051,599616105683155360,-109
1711359542059,599616105690821997,245
1711359542067,599616105698488634,531
1711359542073,599616105706155271,259
1711359542081,599616105713821908,-322
1711359542089,599616105721488545,-428
1711359542097,599616105729155182,-156
1711359542105,599616105736821819,-93
1711359542113,599616105744488456,-159
1711359542120,599616105752155093,-133
1711359542128,599616105759821730,-102
1711359542136,599616105767488367,-88
1711359542143,599616105775155004,-37
1711359542151,599616105782821641,11
