phoneTimestamp,sensorTimestamp,ecg
1711622308543,599616046207371634,-381
1711622308550,599616046215038410,-453
1711622308558,599616046222705186,-465
1711622308566,599616046230371962,-435
1711622308573,599616046238038738,-409
1711622308581,599616046245705514,-359
1711622308589,599616046253372290,-293
1711622308596,599616046261039066,-171
1711622308604,599616046268705842,96
1711622308612,599616046276372618,437
1711622308619,599616046284039394,540
1711622308627,599616046291706170,141
1711622308635,599616046299372946,-359
1711622308641,599616046307039722,-293
1711622308649,599616046314706498,-98
1711622308657,599616046322373274,-301
1711622308665,599616046330040050,-388
1711622308673,599616046337706826,-235
1711622308681,599616046345373602,-225
1711622308688,599616046353040378,-258
1711622308696,599616046360707154,-178
1711622308704,599616046368373930,-124
1711622308711,599616046376040706,-108
1711622308719,599616046383707482,-44
1711622308727,599616046391374258,9
1711622308734,599616046399041034,25
1711622308742,599616046406707810,61
1711622308750,599616046414374586,105
1711622308757,599616046422041362,145
1711622308765,599616046429708138,209
1711622308773,599616046437374914,268
1711622308780,599616046445041690,277
1711622308788,599616046452708466,232
1711622308796,599616046460375242,166
1711622308803,599616046468042018,148
1711622308811,599616046475708794,183
1711622308819,599616046483375570,209
1711622308825,599616046491042346,199
1711622308833,599616046498709122,176
1711622308841,599616046506375898,143
1711622308849,599616046514042674,124
1711622308857,599616046521709450,141
1711622308865,599616046529376226,164
1711622308872,599616046537043002,159
1711622308880,599616046544709778,134
1711622308888,599616046552376554,110
1711622308895,599616046560043330,110
1711622308903,599616046567710106,148
1711622308911,599616046575376882,197
1711622308918,599616046583043658,230
1711622308926,599616046590710434,221
1711622308934,599616046598377210,195
1711622308941,599616046606043986,204
1711622308949,599616046613710762,246
1711622308957,599616046621377538,282
1711622308964,599616046629044314,312
1711622308972,599616046636711090,310
1711622308980,599616046644377866,268
1711622308987,599616046652044642,249
1711622308995,599616046659711418,270
1711622309003,599616046667378194,249
1711622309009,599616046675044970,185
1711622309017,599616046682711746,134
1711622309025,599616046690378522,65
1711622309033,599616046698045298,-32
1711622309041,599616046705712074,-105
1711622309049,599616046713378850,-115
1711622309056,599616046721045626,-84
1711622309064,599616046728712402,-79
1711622309072,599616046736379178,-122
1711622309079,599616046744045954,-178
1711622309087,599616046751712730,-218
1711622309095,599616046759379506,-242
1711622309102,599616046767061370,-282
1711622309110,599616046774727937,-352
1711622309118,599616046782394504,-416
1711622309125,599616046790061071,-444
1711622309133,599616046797727638,-435
1711622309141,599616046805394205,-397
1711622309148,599616046813060772,-357
1711622309156,599616046820727339,-385
1711622309164,599616046828393906,-571
1711622309171,599616046836060473,-766
1711622309179,599616046843727040,-766
1711622309187,599616046851393607,-684
1711622309193,599616046859060174,-658
1711622309201,599616046866726741,-625
1711622309209,599616046874393308,-592
1711622309217,599616046882059875,-599
1711622309225,599616046889726442,-578
1711622309233,599616046897393009,-505
1711622309240,599616046905059576,-437
1711622309248,599616046912726143,-390
1711622309256,599616046920392710,-364
1711622309263,599616046928059277,-362
1711622309271,599616046935725844,-312
1711622309279,599616046943392411,-131
1711622309286,599616046951058978,150
1711622309294,599616046958725545,362
1711622309302,599616046966392112,176
1711622309309,599616046974058679,-392
1711622309317,599616046981725246,-618
1711622309325,599616046989391813,-326
1711622309332,599616046997058380,-209
1711622309340,599616047004724947,-284
1711622309348,599616047012391514,-204
1711622309355,599616047020058081,-134
1711622309363,599616047027724648,-169
1711622309371,599616047035391215,-159
1711622309377,599616047043057782,-87
1711622309385,599616047050724349,-42
1711622309393,599616047058390916,-23
1711622309401,599616047066057483,14
1711622309409,599616047073724050,44
1711622309417,599616047081390617,56
1711622309424,599616047089057184,94
1711622309432,599616047096723751,150
1711622309440,599616047104390318,176
1711622309447,599616047112056885,209
1711622309455,599616047119723452,263
1711622309463,599616047127390019,282
1711622309470,599616047135056586,286
1711622309478,599616047142723153,319
1711622309486,599616047150389720,326
1711622309493,599616047158056287,315
1711622309501,599616047165722854,329
1711622309509,599616047173389421,329
1711622309516,599616047181055988,282
1711622309524,599616047188722555,214
1711622309532,599616047196389122,112
1711622309539,599616047204055689,37
1711622309547,599616047211722256,51
1711622309555,599616047219388823,65
1711622309561,599616047227055390,35
1711622309569,599616047234721957,25
1711622309577,599616047242388524,37
1711622309585,599616047250055091,44
1711622309593,599616047257721658,79
1711622309601,599616047265388225,122
1711622309608,599616047273054792,131
1711622309616,599616047280721359,122
1711622309624,599616047288387926,127
1711622309631,599616047296054493,141
1711622309639,599616047303721060,169
1711622309647,599616047311387627,195
1711622309654,599616047319054194,138
1711622309662,599616047326690702,-32
1711622309669,599616047334357687,-211
1711622309677,599616047342024672,-251
1711622309685,599616047349691657,-209
1711622309692,599616047357358642,-195
1711622309700,599616047365025627,-195
1711622309708,599616047372692612,-209
1711622309715,599616047380359597,-232
1711622309723,599616047388026582,-232
1711622309731,599616047395693567,-225
1711622309737,599616047403360552,-261
1711622309745,599616047411027537,-336
1711622309753,599616047418694522,-484
1711622309761,599616047426361507,-642
1711622309769,599616047434028492,-691
1711622309777,599616047441695477,-719
1711622309784,599616047449362462,-752
1711622309792,599616047457029447,-717
1711622309800,599616047464696432,-703
1711622309807,599616047472363417,-743
1711622309815,599616047480030402,-724
1711622309823,599616047487697387,-644
1711622309830,599616047495364372,-571
1711622309838,599616047503031357,-508
1711622309846,599616047510698342,-477
1711622309853,599616047518365327,-496
1711622309861,599616047526032312,-493
1711622309869,599616047533699297,-444
1711622309876,599616047541366282,-392
1711622309884,599616047549033267,-345
1711622309892,599616047556700252,-308
1711622309899,599616047564367237,-312
1711622309907,599616047572034222,-312
1711622309915,599616047579701207,-256
1711622309921,599616047587368192,-192
1711622309929,599616047595035177,-145
1711622309937,599616047602702162,-108
1711622309945,599616047610369147,-117
1711622309953,599616047618036132,-131
1711622309961,599616047625703117,2
1711622309968,599616047633370102,324
1711622309976,599616047641037087,674
1711622309984,599616047648704072,740
1711622309991,599616047656371057,275
1711622309999,599616047664038042,-239
1711622310007,599616047671705027,-141
1711622310015,599616047679372012,91
1711622310022,599616047687038997,-54
1711622310030,599616047694705982,-150
1711622310038,599616047702372967,-70
1711622310045,599616047710039952,-91
1711622310053,599616047717706937,-119
1711622310061,599616047725373922,-47
1711622310068,599616047733040907,11
1711622310076,599616047740707892,39
1711622310084,599616047748374877,70
1711622310091,599616047756041862,77
1711622310099,599616047763708847,77
1711622310107,599616047771375832,117
1711622310113,599616047779042817,185
1711622310121,599616047786709802,228
1711622310129,599616047794376787,249
1711622310137,599616047802043772,265
1711622310145,599616047809710757,284
1711622310153,599616047817377742,305
1711622310160,599616047825044727,289
1711622310168,599616047832711712,164
1711622310176,599616047840378697,39
1711622310183,599616047848045682,30
1711622310191,599616047855712667,25
1711622310199,599616047863379652,-14
1711622310206,599616047871046637,-9
1711622310214,599616047878713622,11
1711622310221,599616047886370642,-11
1711622310229,599616047894037766,-25
1711622310237,599616047901704890,-11
1711622310245,599616047909372014,-18
1711622310252,599616047917039138,-11
1711622310260,599616047924706262,-2
1711622310268,599616047932373386,-75
1711622310275,599616047940040510,-152
1711622310283,599616047947707634,-166
1711622310291,599616047955374758,-237
1711622310297,599616047963041882,-317
1711622310305,599616047970709006,-293
1711622310313,599616047978376130,-293
1711622310321,599616047986043254,-359
1711622310329,599616047993710378,-369
1711622310337,599616048001377502,-352
1711622310344,599616048009044626,-362
1711622310352,599616048016711750,-348
1711622310360,599616048024378874,-331
1711622310367,599616048032045998,-333
1711622310375,599616048039713122,-305
1711622310383,599616048047380246,-277
1711622310390,599616048055047370,-308
1711622310398,599616048062714494,-369
1711622310406,599616048070381618,-418
1711622310413,599616048078048742,-458
1711622310421,599616048085715866,-498
1711622310429,599616048093382990,-524
1711622310436,599616048101050114,-540
1711622310444,599616048108717238,-557
1711622310452,599616048116384362,-559
1711622310459,599616048124051486,-533
1711622310467,599616048131718610,-489
1711622310475,599616048139385734,-449
1711622310481,599616048147052858,-437
1711622310489,599616048154719982,-446
1711622310497,599616048162387106,-446
1711622310505,599616048170054230,-446
1711622310513,599616048177721354,-479
1711622310521,599616048185388478,-498
1711622310528,599616048193055602,-508
1711622310536,599616048200722726,-623
1711622310544,599616048208389850,-757
1711622310551,599616048216056974,-750
1711622310559,599616048223724098,-698
1711622310567,599616048231391222,-684
1711622310574,599616048239058346,-672
1711622310582,599616048246725470,-696
1711622310590,599616048254392594,-745
1711622310597,599616048262059718,-726
1711622310605,599616048269726842,-658
1711622310613,599616048277393966,-616
1711622310620,599616048285061090,-583
1711622310628,599616048292728214,-573
1711622310636,599616048300395338,-611
1711622310643,599616048308062462,-602
1711622310651,599616048315729586,-430
1711622310659,599616048323396710,-101
1711622310665,599616048331063834,174
1711622310673,599616048338730958,58
1711622310681,599616048346398082,-562
1711622310689,599616048354065206,-1065
1711622310697,599616048361732330,-870
1711622310705,599616048369399454,-580
1711622310712,599616048377066578,-660
1711622310720,599616048384733702,-686
1711622310728,599616048392400826,-616
1711622310735,599616048400067950,-630
1711622310743,599616048407735074,-599
1711622310751,599616048415402198,-519
1711622310758,599616048423069322,-538
1711622310766,599616048430736446,-606
1711622310774,599616048438403570,-616
1711622310781,599616048446090776,-587
1711622310789,599616048453757622,-538
1711622310797,599616048461424468,-465
1711622310804,599616048469091314,-395
1711622310812,599616048476758160,-348
1711622310820,599616048484425006,-371
1711622310827,599616048492091852,-468
1711622310835,599616048499758698,-493
1711622310843,599616048507425544,-406
1711622310849,599616048515092390,-336
1711622310857,599616048522759236,-317
1711622310865,599616048530426082,-315
1711622310873,599616048538092928,-336
1711622310881,599616048545759774,-350
1711622310889,599616048553426620,-343
1711622310896,599616048561093466,-348
1711622310904,599616048568760312,-376
1711622310912,599616048576427158,-406
1711622310919,599616048584094004,-472
1711622310927,599616048591760850,-571
1711622310935,599616048599427696,-590
1711622310942,599616048607094542,-529
1711622310950,599616048614761388,-493
1711622310958,599616048622428234,-491
1711622310965,599616048630095080,-491
1711622310973,599616048637761926,-522
1711622310981,599616048645428772,-550
1711622310988,599616048653095618,-508
1711622310996,599616048660762464,-482
1711622311004,599616048668429310,-545
1711622311011,599616048676096156,-613
1711622311019,599616048683763002,-613
1711622311027,599616048691429848,-587
1711622311033,599616048699096694,-550
1711622311041,599616048706763540,-519
1711622311049,599616048714430386,-552
1711622311057,599616048722097232,-604
1711622311065,599616048729764078,-627
1711622311073,599616048737430924,-689
1711622311080,599616048745097770,-745
1711622311088,599616048752764616,-724
1711622311096,599616048760431462,-700
1711622311103,599616048768098308,-698
1711622311111,599616048775765154,-705
1711622311119,599616048783432000,-780
1711622311126,599616048791098846,-844
1711622311134,599616048798765692,-801
1711622311142,599616048806432538,-759
1711622311149,599616048814099384,-738
1711622311157,599616048821766230,-679
1711622311165,599616048829433076,-689
1711622311172,599616048837099922,-787
1711622311180,599616048844766768,-806
1711622311188,599616048852433614,-733
1711622311195,599616048860100460,-674
1711622311203,599616048867767306,-611
1711622311211,599616048875434152,-559
1711622311217,599616048883100998,-555
1711622311225,599616048890767844,-550
1711622311233,599616048898434690,-526
1711622311241,599616048906101536,-505
1711622311249,599616048913768382,-519
1711622311257,599616048921435228,-597
1711622311264,599616048929102074,-682
1711622311272,599616048936768920,-714
1711622311280,599616048944435766,-682
1711622311287,599616048952102612,-616
1711622311295,599616048959769458,-540
1711622311303,599616048967436304,-477
1711622311310,599616048975103150,-437
1711622311318,599616048982769996,-333
1711622311326,599616048990436842,-30
1711622311333,599616048998103688,390
1711622311341,599616049005740456,569
1711622311349,599616049013407720,166
1711622311356,599616049021074984,-449
1711622311364,599616049028742248,-475
1711622311372,599616049036409512,-192
1711622311379,599616049044076776,-223
1711622311387,599616049051744040,-249
1711622311395,599616049059411304,-103
1711622311401,599616049067078568,-77
1711622311409,599616049074745832,-195
1711622311417,599616049082413096,-289
1711622311425,599616049090080360,-282
1711622311433,599616049097747624,-235
1711622311441,599616049105414888,-188
1711622311448,599616049113082152,-134
1711622311456,599616049120749416,-155
1711622311464,599616049128416680,-249
1711622311471,599616049136083944,-246
1711622311479,599616049143751208,-145
1711622311487,599616049151418472,-77
1711622311494,599616049159085736,-58
1711622311502,599616049166753000,-87
1711622311510,599616049174420264,-124
1711622311517,599616049182087528,-96
1711622311525,599616049189754792,-28
1711622311533,599616049197422056,21
1711622311540,599616049205089320,51
1711622311548,599616049212756584,68
1711622311556,599616049220423848,32
1711622311563,599616049228091112,-18
1711622311571,599616049235758376,-16
1711622311579,599616049243425640,9
1711622311585,599616049251092904,23
1711622311593,599616049258760168,25
1711622311601,599616049266427432,-4
1711622311609,599616049274094696,-58
1711622311617,599616049281761960,-84
1711622311625,599616049289429224,-96
1711622311632,599616049297096488,-112
1711622311640,599616049304763752,-108
1711622311648,599616049312431016,-138
1711622311655,599616049320098280,-242
1711622311663,599616049327765544,-303
1711622311671,599616049335432808,-319
1711622311678,599616049343100072,-404
1711622311686,599616049350767336,-460
1711622311694,599616049358434600,-435
1711622311701,599616049366101864,-465
1711622311709,599616049373769128,-529
1711622311717,599616049381436392,-522
1711622311724,599616049389103656,-526
1711622311732,599616049396770920,-562
1711622311740,599616049404438184,-597
1711622311747,599616049412105448,-667
1711622311755,599616049419772712,-712
1711622311763,599616049427439976,-670
1711622311769,599616049435107240,-599
1711622311777,599616049442774504,-576
1711622311785,599616049450441768,-583
1711622311793,599616049458109032,-599
1711622311801,599616049465776296,-660
1711622311809,599616049473443560,-700
1711622311816,599616049481110824,-637
1711622311824,599616049488778088,-564
1711622311832,599616049496445352,-543
1711622311839,599616049504112616,-503
1711622311847,599616049511779880,-446
1711622311855,599616049519447144,-409
1711622311862,599616049527114408,-345
1711622311870,599616049534781672,-284
1711622311878,599616049542448936,-272
1711622311885,599616049550116200,-254
1711622311893,599616049557783464,-214
1711622311901,599616049565450750,-195
1711622311908,599616049573118014,-169
1711622311916,599616049580785278,-122
1711622311924,599616049588452542,-101
1711622311931,599616049596119806,-82
1711622311939,599616049603787070,-58
1711622311947,599616049611454334,-110
1711622311953,599616049619121598,-185
1711622311961,599616049626788862,-188
1711622311969,599616049634456126,-171
1711622311977,599616049642123390,-77
1711622311985,599616049649790654,214
1711622311993,599616049657457918,493
1711622312000,599616049665125182,468
1711622312008,599616049672792446,18
1711622312016,599616049680459710,-540
1711622312023,599616049688126974,-538
1711622312031,599616049695794238,-199
1711622312039,599616049703461502,-188
1711622312046,599616049711128766,-261
1711622312054,599616049718796030,-157
1711622312062,599616049726463294,-108
1711622312069,599616049734130558,-110
1711622312077,599616049741797822,-28
1711622312085,599616049749465086,44
1711622312092,599616049757132350,54
1711622312100,599616049764799614,65
1711622312108,599616049772466878,94
1711622312115,599616049780134142,129
1711622312123,599616049787801406,188
1711622312131,599616049795468670,251
1711622312137,599616049803135934,275
1711622312145,599616049810803198,263
1711622312153,599616049818470462,268
1711622312161,599616049826137726,312
1711622312169,599616049833804990,369
1711622312177,599616049841472254,371
1711622312184,599616049849139518,244
1711622312192,599616049856806782,47
1711622312200,599616049864474046,-42
1711622312207,599616049872141310,-18
1711622312215,599616049879808574,0
1711622312223,599616049887475838,4
1711622312230,599616049895143102,2
1711622312238,599616049902810366,-63
1711622312246,599616049910477630,-150
1711622312253,599616049918144894,-145
1711622312261,599616049925812158,-87
1711622312269,599616049933479422,-47
1711622312276,599616049941146686,-11
1711622312284,599616049948813950,-28
1711622312292,599616049956481214,-119
1711622312299,599616049964148478,-148
1711622312307,599616049971815742,-91
1711622312315,599616049979483006,-65
1711622312321,599616049987150270,-68
1711622312329,599616049994817534,-77
1711622312337,599616050002484798,-143
1711622312345,599616050010152062,-190
1711622312353,599616050017819326,-148
1711622312361,599616050025486590,-122
1711622312368,599616050033153854,-169
1711622312376,599616050040821118,-228
1711622312384,599616050048488382,-345
1711622312391,599616050056155646,-500
1711622312399,599616050063822910,-517
1711622312407,599616050071490174,-442
1711622312414,599616050079157438,-418
1711622312422,599616050086824702,-409
1711622312430,599616050094491966,-409
1711622312437,599616050102159230,-428
1711622312445,599616050109826494,-406
1711622312453,599616050117493758,-345
1711622312460,599616050125161042,-301
1711622312468,599616050132828306,-270
1711622312476,599616050140495570,-275
1711622312483,599616050148162834,-324
1711622312491,599616050155830098,-357
1711622312499,599616050163497362,-333
1711622312505,599616050171164626,-293
1711622312513,599616050178831890,-261
1711622312521,599616050186499154,-249
1711622312529,599616050194166418,-336
1711622312537,599616050201833682,-486
1711622312545,599616050209500946,-510
1711622312552,599616050217168210,-425
1711622312560,599616050224835474,-392
1711622312568,599616050232502738,-385
1711622312575,599616050240170002,-350
1711622312583,599616050247837266,-319
1711622312591,599616050255504530,-282
1711622312598,599616050263171794,-214
1711622312606,599616050270839058,-157
1711622312614,599616050278506322,-134
1711622312621,599616050286173586,-105
1711622312629,599616050293840850,-75
1711622312637,599616050301508114,-61
1711622312644,599616050309175378,-9
1711622312652,599616050316842642,176
1711622312660,599616050324509906,505
1711622312667,599616050332177170,825
1711622312675,599616050339844434,738
1711622312683,599616050347511698,28
1711622312689,599616050355178962,-573
1711622312697,599616050362846226,-437
1711622312705,599616050370513490,-228
1711622312713,599616050378180754,-319
1711622312721,599616050385848018,-289
1711622312729,599616050393515282,-204
1711622312736,599616050401182546,-251
1711622312744,599616050408849810,-237
1711622312752,599616050416517074,-159
1711622312759,599616050424184338,-122
1711622312767,599616050431851602,-79
1711622312775,599616050439518866,-32
1711622312782,599616050447186130,-9
1711622312790,599616050454853394,28
1711622312798,599616050462520658,75
1711622312805,599616050470187922,117
1711622312813,599616050477855186,181
1711622312821,599616050485522450,235
1711622312828,599616050493189714,258
1711622312836,599616050500856978,291
1711622312844,599616050508524242,326
1711622312851,599616050516191506,329
1711622312859,599616050523858770,326
1711622312867,599616050531526034,312
1711622312873,599616050539193298,214
1711622312881,599616050546860562,91
1711622312889,599616050554527826,56
1711622312897,599616050562195090,65
1711622312905,599616050569862354,63
1711622312913,599616050577529618,70
1711622312920,599616050585196882,68
1711622312928,599616050592864146,35
1711622312936,599616050600531410,14
1711622312943,599616050608198674,30
1711622312951,599616050615865938,70
1711622312959,599616050623533202,91
1711622312966,599616050631200466,58
1711622312974,599616050638867730,-25
1711622312982,599616050646534994,-108
1711622312989,599616050654202258,-115
1711622312997,599616050661869522,-70
1711622313005,599616050669536786,-32
1711622313012,599616050677204050,-18
1711622313020,599616050684871334,-35
1711622313028,599616050692538598,-77
1711622313035,599616050700205862,-105
1711622313043,599616050707873126,-124
1711622313051,599616050715540390,-157
1711622313057,599616050723207654,-183
1711622313065,599616050730874918,-246
1711622313073,599616050738542182,-336
1711622313081,599616050746209446,-343
1711622313089,599616050753876710,-293
1711622313097,599616050761543974,-270
1711622313104,599616050769211238,-254
1711622313112,599616050776878502,-277
1711622313120,599616050784545766,-381
1711622313127,599616050792213030,-423
1711622313135,599616050799880294,-352
1711622313143,599616050807547558,-296
1711622313150,599616050815214822,-272
1711622313158,599616050822882086,-270
1711622313166,599616050830549350,-362
1711622313173,599616050838216614,-451
1711622313181,599616050845883878,-409
1711622313189,599616050853551142,-390
1711622313196,599616050861218406,-475
1711622313204,599616050868885670,-508
1711622313212,599616050876552934,-489
1711622313219,599616050884220198,-533
1711622313227,599616050891887462,-580
1711622313235,599616050899554726,-533
1711622313241,599616050907221990,-456
1711622313249,599616050914889254,-411
1711622313257,599616050922556518,-437
1711622313265,599616050930223782,-510
1711622313273,599616050937891046,-515
1711622313281,599616050945558310,-428
1711622313288,599616050953225574,-345
1711622313296,599616050960892838,-296
1711622313304,599616050968560102,-275
1711622313311,599616050976227366,-277
1711622313319,599616050983894630,-199
1711622313327,599616050991561894,79
1711622313334,599616050999229158,489
1711622313342,599616051006896422,724
1711622313350,599616051014563686,439
1711622313357,599616051022230950,-181
1711622313365,599616051029898214,-331
1711622313373,599616051037565478,-11
1711622313380,599616051045232742,44
1711622313388,599616051052900006,-68
1711622313396,599616051060567270,-9
1711622313403,599616051068234534,-7
1711622313411,599616051075901798,-145
1711622313419,599616051083569062,-202
1711622313425,599616051091236326,-122
1711622313433,599616051098903590,-70
1711622313441,599616051106570854,-63
1711622313449,599616051114238118,-21
1711622313457,599616051121905382,16
1711622313465,599616051129572646,-14
1711622313472,599616051137239910,-49
1711622313480,599616051144907174,-25
1711622313488,599616051152574438,18
1711622313495,599616051160241702,63
1711622313503,599616051167908966,110
1711622313511,599616051175576230,145
1711622313518,599616051183243494,185
1711622313526,599616051190910758,230
1711622313534,599616051198578022,239
1711622313541,599616051206245286,244
1711622313549,599616051213912550,261
1711622313557,599616051221579814,244
1711622313564,599616051229247078,195
1711622313572,599616051236914342,157
1711622313580,599616051244581626,127
1711622313587,599616051252248890,115
1711622313595,599616051259916154,115
1711622313603,599616051267583418,54
1711622313609,599616051275250682,-44
1711622313617,599616051282917946,-56
1711622313625,599616051290585210,-35
1711622313633,599616051298252474,-37
1711622313641,599616051305919738,-11
1711622313649,599616051313587002,-42
1711622313656,599616051321254266,-176
1711622313664,599616051328921530,-239
1711622313672,599616051336588794,-204
1711622313679,599616051344256058,-183
1711622313687,599616051351923322,-159
1711622313695,599616051359590586,-141
1711622313702,599616051367257850,-228
1711622313710,599616051374925114,-364
1711622313718,599616051382592378,-425
1711622313725,599616051390259642,-437
1711622313733,599616051397926906,-463
1711622313741,599616051405594170,-508
1711622313748,599616051413261434,-604
1711622313756,599616051420928698,-722
1711622313764,599616051428595962,-733
1711622313771,599616051436263226,-672
1711622313779,599616051443930490,-630
1711622313787,599616051451597754,-580
1711622313793,599616051459265018,-540
1711622313801,599616051466932282,-543
1711622313809,599616051474599546,-545
1711622313817,599616051482266810,-491
1711622313825,599616051489934074,-428
1711622313833,599616051497601338,-376
1711622313840,599616051505268602,-326
1711622313848,599616051512935866,-308
1711622313856,599616051520603130,-322
1711622313863,599616051528270394,-298
1711622313871,599616051535937658,-225
1711622313879,599616051543604922,-148
1711622313886,599616051551272186,-89
1711622313894,599616051558939450,-77
1711622313902,599616051566606714,-112
1711622313909,599616051574273978,-117
1711622313917,599616051581941242,-91
1711622313925,599616051589608506,-77
1711622313932,599616051597275770,-49
1711622313940,599616051604943034,-51
1711622313948,599616051612610298,-150
1711622313955,599616051620277562,-242
1711622313963,599616051627944826,-263
1711622313971,599616051635612090,-254
1711622313977,599616051643279354,-206
1711622313985,599616051650946618,-166
1711622313993,599616051658613882,-188
1711622314001,599616051666281146,-157
1711622314009,599616051673948410,89
1711622314017,599616051681615674,489
1711622314024,599616051689282938,773
1711622314032,599616051696950202,602
1711622314040,599616051704617466,-11
1711622314047,599616051712284730,-296
1711622314055,599616051719951994,11
1711622314063,599616051727619258,148
1711622314070,599616051735286522,47
1711622314078,599616051742953786,124
1711622314086,599616051750621050,185
1711622314093,599616051758288314,110
1711622314101,599616051765955578,96
1711622314109,599616051773622842,150
1711622314116,599616051781290106,183
1711622314124,599616051788957370,214
1711622314132,599616051796624634,223
1711622314139,599616051804322014,145
1711622314147,599616051811988860,54
1711622314155,599616051819655706,72
1711622314161,599616051827322552,150
1711622314169,599616051834989398,178
1711622314177,599616051842656244,190
1711622314185,599616051850323090,169
1711622314193,599616051857989936,96
1711622314201,599616051865656782,44
1711622314208,599616051873323628,-4
1711622314216,599616051880990474,-84
1711622314224,599616051888657320,-108
1711622314231,599616051896324166,-89
1711622314239,599616051903991012,-105
1711622314247,599616051911657858,-122
1711622314254,599616051919324704,-94
1711622314262,599616051926991550,-77
1711622314270,599616051934658396,-101
1711622314277,599616051942325242,-136
1711622314285,599616051949992088,-218
1711622314293,599616051957658934,-315
1711622314300,599616051965325780,-305
1711622314308,599616051972992626,-246
1711622314316,599616051980659472,-237
1711622314323,599616051988326318,-209
1711622314331,599616051995993164,-171
1711622314339,599616052003660010,-209
1711622314345,599616052011326856,-251
1711622314353,599616052018993702,-223
1711622314361,599616052026660548,-202
1711622314369,599616052034327394,-209
1711622314377,599616052041994240,-183
1711622314385,599616052049661086,-164
1711622314392,599616052057327932,-166
1711622314400,599616052064994778,-143
1711622314408,599616052072661624,-119
1711622314415,599616052080328470,-134
1711622314423,599616052087995316,-169
1711622314431,599616052095662162,-216
1711622314438,599616052103329008,-286
1711622314446,599616052110995854,-366
1711622314454,599616052118662700,-456
1711622314461,599616052126329546,-503
1711622314469,599616052133996392,-470
1711622314477,599616052141663238,-475
1711622314484,599616052149330084,-571
1711622314492,599616052156996930,-616
1711622314500,599616052164663776,-562
1711622314507,599616052172330622,-510
1711622314515,599616052179997468,-463
1711622314523,599616052187664314,-409
1711622314529,599616052195331160,-388
1711622314537,599616052202998006,-376
1711622314545,599616052210664852,-331
1711622314553,599616052218331698,-270
1711622314561,599616052225998544,-216
1711622314569,599616052233665390,-171
1711622314576,599616052241332236,-150
1711622314584,599616052248999082,-157
1711622314592,599616052256665928,-162
1711622314599,599616052264332774,-124
1711622314607,599616052271999620,-65
1711622314615,599616052279666466,-9
1711622314622,599616052287333312,25
1711622314630,599616052295000158,7
1711622314638,599616052302667004,-35
1711622314645,599616052310333850,-11
1711622314653,599616052318000696,54
1711622314661,599616052325667542,91
1711622314668,599616052333334388,117
1711622314676,599616052341001234,166
1711622314684,599616052348668080,350
1711622314691,599616052356334926,670
1711622314699,599616052364001790,684
1711622314707,599616052371668636,7
1711622314713,599616052379335482,-649
1711622314721,599616052387002328,-522
1711622314729,599616052394669174,-277
1711622314737,599616052402336020,-399
1711622314745,599616052410002866,-366
1711622314753,599616052417669712,-178
1711622314760,599616052425336558,-138
1711622314768,599616052433003404,-157
1711622314776,599616052440670250,-195
1711622314783,599616052448337096,-239
1711622314791,599616052456003942,-183
1711622314799,599616052463670788,-84
1711622314806,599616052471337634,-37
1711622314814,599616052479004480,-35
1711622314822,599616052486671326,-105
1711622314829,599616052494338172,-192
1711622314837,599616052502005018,-148
1711622314845,599616052509671864,-37
1711622314852,599616052517338710,37
1711622314860,599616052525005556,98
1711622314868,599616052532672402,129
1711622314875,599616052540339248,124
1711622314883,599616052548006094,157
1711622314891,599616052555672940,218
1711622314897,599616052563339786,256
1711622314905,599616052571006632,265
1711622314913,599616052578673478,242
1711622314921,599616052586340324,192
1711622314929,599616052594007170,166
1711622314937,599616052601674016,162
1711622314944,599616052609340862,117
1711622314952,599616052617007708,37
1711622314960,599616052624674554,0
1711622314967,599616052632341400,-7
1711622314975,599616052640008246,-7
1711622314983,599616052647675092,11
1711622314990,599616052655341938,37
1711622314998,599616052663008784,49
1711622315006,599616052670675630,21
1711622315013,599616052678342476,-82
1711622315021,599616052686009322,-202
1711622315029,599616052693676168,-218
1711622315036,599616052701343014,-155
1711622315044,599616052709009860,-127
1711622315052,599616052716676706,-124
1711622315059,599616052724343552,-105
1711622315067,599616052732010398,-96
1711622315075,599616052739677244,-98
1711622315081,599616052747344090,-79
1711622315089,599616052755010936,-91
1711622315097,599616052762677782,-150
1711622315105,599616052770344628,-192
1711622315113,599616052778011474,-239
1711622315121,599616052785678320,-291
1711622315128,599616052793345166,-277
1711622315136,599616052801012012,-242
1711622315144,599616052808678858,-246
1711622315151,599616052816345704,-235
1711622315159,599616052824012550,-221
1711622315167,599616052831679396,-249
1711622315174,599616052839346242,-256
1711622315182,599616052847013088,-228
1711622315190,599616052854679934,-268
1711622315197,599616052862346780,-331
1711622315205,599616052870013626,-324
1711622315213,599616052877680472,-352
1711622315220,599616052885347318,-432
1711622315228,599616052893014164,-423
1711622315236,599616052900681010,-385
1711622315243,599616052908347856,-373
1711622315251,599616052916014702,-336
1711622315259,599616052923661550,-352
1711622315265,599616052931328674,-439
1711622315273,599616052938995798,-449
1711622315281,599616052946662922,-392
1711622315289,599616052954330046,-362
1711622315297,599616052961997170,-310
1711622315305,599616052969664294,-284
1711622315312,599616052977331418,-350
1711622315320,599616052984998542,-402
1711622315328,599616052992665666,-312
1711622315335,599616053000332790,-49
1711622315343,599616053007999914,345
1711622315351,599616053015667038,625
1711622315358,599616053023334162,324
1711622315366,599616053031001286,-489
1711622315374,599616053038668410,-787
1711622315381,599616053046335534,-376
1711622315389,599616053054002658,-230
1711622315397,599616053061669782,-338
1711622315404,599616053069336906,-228
1711622315412,599616053077004030,-152
1711622315420,599616053084671154,-195
1711622315427,599616053092338278,-148
1711622315435,599616053100005402,-98
1711622315443,599616053107672526,-136
1711622315449,599616053115339650,-136
1711622315457,599616053123006774,-98
1711622315465,599616053130673898,-96
1711622315473,599616053138341022,-65
1711622315481,599616053146008146,25
1711622315489,599616053153675270,101
1711622315496,599616053161342394,157
1711622315504,599616053169009518,197
1711622315512,599616053176676642,202
1711622315519,599616053184343766,218
1711622315527,599616053192010890,268
1711622315535,599616053199678014,312
1711622315542,599616053207345138,343
1711622315550,599616053215012262,315
1711622315558,599616053222679386,195
1711622315565,599616053230346510,112
1711622315573,599616053238013634,134
1711622315581,599616053245680758,148
1711622315588,599616053253347882,141
1711622315596,599616053261015006,138
1711622315604,599616053268682130,101
1711622315611,599616053276349254,70
1711622315619,599616053284016378,98
1711622315627,599616053291683502,143
1711622315633,599616053299350626,176
1711622315641,599616053307017750,199
1711622315649,599616053314684874,183
1711622315657,599616053322351998,150
1711622315665,599616053330019122,141
1711622315673,599616053337686246,110
1711622315680,599616053345353370,56
1711622315688,599616053353020494,-9
1711622315696,599616053360687618,-87
1711622315703,599616053368354742,-134
1711622315711,599616053376021866,-141
1711622315719,599616053383688990,-195
1711622315726,599616053391356114,-296
1711622315734,599616053399023238,-312
1711622315742,599616053406690362,-317
1711622315749,599616053414357486,-446
1711622315757,599616053422024610,-547
1711622315765,599616053429691734,-531
1711622315772,599616053437358858,-538
1711622315780,599616053445025982,-562
1711622315788,599616053452693106,-545
1711622315795,599616053460360230,-543
1711622315803,599616053468027354,-547
1711622315811,599616053475694478,-500
1711622315817,599616053483356630,-435
1711622315825,599616053491023824,-399
1711622315833,599616053498691018,-383
1711622315841,599616053506358212,-362
1711622315849,599616053514025406,-333
1711622315857,599616053521692600,-289
1711622315864,599616053529359794,-228
1711622315872,599616053537026988,-202
1711622315880,599616053544694182,-235
1711622315887,599616053552361376,-289
1711622315895,599616053560028570,-404
1711622315903,599616053567695764,-524
1711622315910,599616053575362958,-491
1711622315918,599616053583030152,-411
1711622315926,599616053590697346,-442
1711622315933,599616053598364540,-496
1711622315941,599616053606031734,-484
1711622315949,599616053613698928,-451
1711622315956,599616053621366122,-406
1711622315964,599616053629033316,-348
1711622315972,599616053636700510,-298
1711622315979,599616053644367704,-164
1711622315987,599616053652034898,169
1711622315995,599616053659702092,559
1711622316001,599616053667369286,672
1711622316009,599616053675036480,235
1711622316017,599616053682703674,-345
1711622316025,599616053690370868,-284
1711622316033,599616053698038062,47
1711622316041,599616053705705256,-11
1711622316049,599616053713372450,-94
1711622316056,599616053721039644,7
1711622316064,599616053728706838,11
1711622316072,599616053736374032,-4
1711622316079,599616053744041226,68
1711622316087,599616053751708420,68
1711622316095,599616053759375614,-28
1711622316102,599616053767042808,-49
1711622316110,599616053774710002,0
1711622316118,599616053782377196,32
1711622316125,599616053790044390,84
1711622316133,599616053797711584,127
1711622316141,599616053805378778,72
1711622316148,599616053813045972,14
1711622316156,599616053820713166,56
1711622316164,599616053828380360,127
1711622316171,599616053836047554,150
1711622316179,599616053843714748,124
1711622316187,599616053851381942,77
1711622316193,599616053859049136,58
1711622316201,599616053866716330,58
1711622316209,599616053874383524,56
1711622316217,599616053882050718,25
1711622316225,599616053889717912,-96
1711622316233,599616053897385106,-286
1711622316240,599616053905052300,-428
1711622316248,599616053912719494,-465
1711622316256,599616053920386688,-428
1711622316263,599616053928053882,-373
1711622316271,599616053935721076,-312
1711622316279,599616053943388270,-256
1711622316286,599616053951055464,-244
1711622316294,599616053958722658,-256
1711622316302,599616053966389852,-216
1711622316309,599616053974057046,-141
1711622316317,599616053981724240,-72
1711622316325,599616053989391434,-14
1711622316332,599616053997058628,0
1711622316340,599616054004725822,-54
1711622316348,599616054012393016,-108
1711622316355,599616054020060210,-87
1711622316363,599616054027727404,-54
1711622316371,599616054035394598,-39
1711622316377,599616054043071844,-37
1711622316385,599616054050738899,-68
1711622316393,599616054058405954,-84
1711622316401,599616054066073009,-39
1711622316409,599616054073740064,-7
1711622316417,599616054081407119,-42
1711622316424,599616054089074174,-178
1711622316432,599616054096741229,-373
1711622316440,599616054104408284,-486
1711622316447,599616054112075339,-489
1711622316455,599616054119742394,-472
1711622316463,599616054127409449,-449
1711622316470,599616054135076504,-428
1711622316478,599616054142743559,-493
1711622316486,599616054150410614,-590
1711622316493,599616054158077669,-569
1711622316501,599616054165744724,-491
1711622316509,599616054173411779,-444
1711622316516,599616054181078834,-395
1711622316524,599616054188745889,-399
1711622316532,599616054196412944,-484
1711622316539,599616054204079999,-517
1711622316547,599616054211747054,-449
1711622316555,599616054219414109,-390
1711622316561,599616054227081164,-366
1711622316569,599616054234748219,-352
1711622316577,599616054242415274,-348
1711622316585,599616054250082329,-345
1711622316593,599616054257749384,-317
1711622316601,599616054265416439,-261
1711622316608,599616054273083494,-209
1711622316616,599616054280750549,-192
1711622316624,599616054288417604,-239
1711622316631,599616054296084659,-324
1711622316639,599616054303751714,-315
1711622316647,599616054311418769,-110
1711622316654,599616054319085824,249
1711622316662,599616054326752879,576
1711622316670,599616054334419934,524
1711622316677,599616054342086989,-82
1711622316685,599616054349754044,-571
1711622316693,599616054357421099,-355
1711622316700,599616054365088154,-94
1711622316708,599616054372755209,-192
1711622316716,599616054380422264,-199
1711622316723,599616054388089319,-155
1711622316731,599616054395756374,-258
1711622316739,599616054403423429,-254
1711622316745,599616054411090484,-145
1711622316753,599616054418757539,-124
1711622316761,599616054426424594,-124
1711622316769,599616054434091649,-129
1711622316777,599616054441758704,-197
1711622316785,599616054449425759,-199
1711622316792,599616054457092814,-110
1711622316800,599616054464759869,-65
1711622316808,599616054472426924,-28
1711622316815,599616054480093979,54
1711622316823,599616054487761034,110
1711622316831,599616054495428089,141
1711622316838,599616054503095144,202
1711622316846,599616054510762199,246
1711622316854,599616054518429254,265
1711622316861,599616054526096309,301
1711622316869,599616054533763364,312
1711622316877,599616054541430419,289
1711622316884,599616054549097474,272
1711622316892,599616054556764529,254
1711622316900,599616054564431584,230
1711622316907,599616054572098639,223
1711622316915,599616054579765694,195
1711622316923,599616054587432749,131
1711622316929,599616054595099804,105
1711622316937,599616054602776956,108
1711622316945,599616054610443871,91
1711622316953,599616054618110786,98
1711622316961,599616054625777701,117
1711622316969,599616054633444616,37
1711622316976,599616054641111531,-68
1711622316984,599616054648778446,-70
1711622316992,599616054656445361,-21
1711622316999,599616054664112276,16
1711622317007,599616054671779191,35
1711622317015,599616054679446106,-47
1711622317022,599616054687113021,-192
1711622317030,599616054694779936,-225
1711622317038,599616054702446851,-164
1711622317045,599616054710113766,-131
1711622317053,599616054717780681,-105
1711622317061,599616054725447596,-72
1711622317068,599616054733114511,-77
1711622317076,599616054740781426,-101
1711622317084,599616054748448341,-87
1711622317091,599616054756115256,-82
1711622317099,599616054763782171,-115
1711622317107,599616054771449086,-143
1711622317113,599616054779116001,-199
1711622317121,599616054786782916,-293
1711622317129,599616054794449831,-324
1711622317137,599616054802116746,-279
1711622317145,599616054809783661,-246
1711622317153,599616054817450576,-237
1711622317160,599616054825117491,-268
1711622317168,599616054832784406,-333
1711622317176,599616054840451321,-336
1711622317183,599616054848118236,-268
1711622317191,599616054855785151,-221
1711622317199,599616054863452066,-192
1711622317206,599616054871118981,-195
1711622317214,599616054878785896,-289
1711622317222,599616054886452811,-411
1711622317229,599616054894119726,-470
1711622317237,599616054901786641,-460
1711622317245,599616054909453556,-409
1711622317252,599616054917120471,-381
1711622317260,599616054924787386,-399
1711622317268,599616054932454301,-395
1711622317275,599616054940121216,-326
1711622317283,599616054947788131,-251
1711622317291,599616054955455046,-195
1711622317297,599616054963121961,-171
1711622317305,599616054970788876,-237
1711622317313,599616054978455791,-336
1711622317321,599616054986122706,-317
1711622317329,599616054993789621,-230
1711622317337,599616055001456536,-171
1711622317344,599616055009123451,-25
1711622317352,599616055016790366,284
1711622317360,599616055024457281,606
1711622317367,599616055032124196,649
1711622317375,599616055039791111,204
1711622317383,599616055047458026,-272
1711622317390,599616055055124941,-152
1711622317398,599616055062791856,98
1711622317406,599616055070458771,-23
1711622317413,599616055078125686,-115
1711622317421,599616055085792601,-14
1711622317429,599616055093459516,37
1711622317436,599616055101126431,51
1711622317444,599616055108793346,91
1711622317452,599616055116460261,105
1711622317459,599616055124127176,103
1711622317467,599616055131794091,141
1711622317475,599616055139461006,190
1711622317481,599616055147127921,204
1711622317489,599616055154794836,204
1711622317497,599616055162441730,202
1711622317505,599616055170108924,136
1711622317513,599616055177776118,72
1711622317521,599616055185443312,124
1711622317528,599616055193110506,206
1711622317536,599616055200777700,221
1711622317544,599616055208444894,228
1711622317551,599616055216112088,197
1711622317559,599616055223779282,105
1711622317567,599616055231446476,82
1711622317574,599616055239113670,124
1711622317582,599616055246780864,108
1711622317590,599616055254448058,75
1711622317597,599616055262115252,35
1711622317605,599616055269782446,-70
1711622317613,599616055277449640,-141
1711622317620,599616055285116834,-115
1711622317628,599616055292784028,-94
1711622317636,599616055300451222,-82
1711622317643,599616055308118416,-32
1711622317651,599616055315785610,-23
1711622317659,599616055323452804,-82
1711622317665,599616055331119998,-112
1711622317673,599616055338787192,-84
1711622317681,599616055346454386,-54
1711622317689,599616055354121580,-37
1711622317697,599616055361788774,-115
1711622317705,599616055369455968,-254
1711622317712,599616055377123162,-277
1711622317720,599616055384790356,-237
1711622317728,599616055392457550,-291
1711622317735,599616055400124744,-390
1711622317743,599616055407791938,-428
1711622317751,599616055415459132,-409
1711622317758,599616055423126326,-392
1711622317766,599616055430793520,-383
1711622317774,599616055438460714,-378
1711622317781,599616055446127908,-388
1711622317789,599616055453795102,-397
1711622317797,599616055461462296,-437
1711622317804,599616055469129490,-493
1711622317812,599616055476796684,-493
1711622317820,599616055484463878,-453
1711622317827,599616055492131072,-425
1711622317835,599616055499798266,-423
1711622317843,599616055507465460,-477
1711622317849,599616055515132654,-566
1711622317857,599616055522799848,-580
1711622317865,599616055530467042,-515
1711622317873,599616055538134236,-456
1711622317881,599616055545801430,-399
1711622317889,599616055553468624,-333
1711622317896,599616055561135818,-322
1711622317904,599616055568803012,-376
1711622317912,599616055576470206,-383
1711622317919,599616055584137400,-308
1711622317927,599616055591804594,-235
1711622317935,599616055599471788,-197
1711622317942,599616055607138982,-190
1711622317950,599616055614806176,-199
1711622317958,599616055622473370,-162
1711622317965,599616055630140564,-79
1711622317973,599616055637807758,-9
1711622317981,599616055645474952,37
1711622317988,599616055653142146,49
1711622317996,599616055660809340,21
1711622318004,599616055668476534,4
1711622318011,599616055676143728,23
1711622318019,599616055683810922,47
1711622318027,599616055691478116,84
1711622318033,599616055699145310,84
1711622318041,599616055706812504,-21
1711622318049,599616055714479698,-103
1711622318057,599616055722177030,-49
1711622318065,599616055729843806,28
1711622318073,599616055737510582,63
1711622318080,599616055745177358,77
1711622318088,599616055752844134,32
1711622318096,599616055760510910,79
1711622318103,599616055768177686,423
1711622318111,599616055775844462,804
1711622318119,599616055783511238,736
1711622318126,599616055791178014,150
1711622318134,599616055798844790,-244
1711622318142,599616055806511566,-28
1711622318149,599616055814178342,89
1711622318157,599616055821845118,-72
1711622318165,599616055829511894,-16
1711622318172,599616055837178670,94
1711622318180,599616055844845446,37
1711622318188,599616055852512222,-9
1711622318195,599616055860178998,16
1711622318203,599616055867845774,47
1711622318211,599616055875512550,94
1711622318217,599616055883179326,148
1711622318225,599616055890846102,157
1711622318233,599616055898512878,89
1711622318241,599616055906179654,4
1711622318249,599616055913846430,23
1711622318257,599616055921513206,112
1711622318264,599616055929179982,164
1711622318272,599616055936846758,185
1711622318280,599616055944513534,183
1711622318287,599616055952180310,119
1711622318295,599616055959847086,77
1711622318303,599616055967513862,127
1711622318310,599616055975180638,169
1711622318318,599616055982847414,157
1711622318326,599616055990514190,145
1711622318333,599616055998180966,131
1711622318341,599616056005847742,98
1711622318349,599616056013514518,94
1711622318356,599616056021181294,91
1711622318364,599616056028848070,18
1711622318372,599616056036514846,-103
1711622318379,599616056044181622,-214
1711622318387,599616056051848398,-336
1711622318395,599616056059515174,-432
1711622318401,599616056067181950,-451
1711622318409,599616056074848726,-435
1711622318417,599616056082515502,-406
1711622318425,599616056090182278,-369
1711622318433,599616056097849054,-345
1711622318441,599616056105515830,-331
1711622318448,599616056113182606,-336
1711622318456,599616056120849382,-371
1711622318464,599616056128516158,-395
1711622318471,599616056136182934,-418
1711622318479,599616056143849710,-446
1711622318487,599616056151516486,-439
1711622318494,599616056159183262,-411
1711622318502,599616056166850038,-397
1711622318510,599616056174516814,-376
1711622318517,599616056182183590,-336
1711622318525,599616056189850366,-308
1711622318533,599616056197517142,-305
1711622318540,599616056205183918,-301
1711622318548,599616056212850694,-303
1711622318556,599616056220517470,-293
1711622318563,599616056228184246,-246
1711622318571,599616056235851022,-239
1711622318579,599616056243517798,-317
1711622318585,599616056251184574,-369
1711622318593,599616056258851350,-333
1711622318601,599616056266518126,-289
1711622318609,599616056274184902,-249
1711622318617,599616056281851722,-197
1711622318625,599616056289518498,-166
1711622318632,599616056297185274,-188
1711622318640,599616056304852050,-244
1711622318648,599616056312518826,-275
1711622318655,599616056320185602,-237
1711622318663,599616056327852378,-181
1711622318671,599616056335519154,-192
1711622318678,599616056343185930,-265
1711622318686,599616056350852706,-284
1711622318694,599616056358519482,-232
1711622318701,599616056366186258,-181
1711622318709,599616056373853034,-141
1711622318717,599616056381519810,-117
1711622318724,599616056389186586,-148
1711622318732,599616056396853362,-230
1711622318740,599616056404520138,-317
1711622318747,599616056412186914,-343
1711622318755,599616056419853690,-282
1711622318763,599616056427520466,-225
1711622318769,599616056435187242,-275
1711622318777,599616056442854018,-362
1711622318785,599616056450520794,-338
1711622318793,599616056458187570,-254
1711622318801,599616056465854346,-162
1711622318809,599616056473521122,91
1711622318816,599616056481187898,510
1711622318824,599616056488854674,792
1711622318832,599616056496521450,609
1711622318839,599616056504188226,-18
1711622318847,599616056511855002,-338
1711622318855,599616056519521778,-2
1711622318862,599616056527188554,162
1711622318870,599616056534855330,-16
1711622318878,599616056542522106,0
1711622318885,599616056550188882,65
1711622318893,599616056557855658,-14
1711622318901,599616056565522434,-28
1711622318908,599616056573189210,11
1711622318916,599616056580855986,-68
1711622318924,599616056588522762,-176
1711622318931,599616056596189538,-148
1711622318939,599616056603856314,-54
1711622318947,599616056611523090,0
1711622318953,599616056619189866,49
1711622318961,599616056626856642,87
1711622318969,599616056634523418,91
1711622318977,599616056642190194,134
1711622318985,599616056649856970,221
1711622318993,599616056657523746,303
1711622319000,599616056665190522,355
1711622319008,599616056672857298,369
1711622319016,599616056680524074,338
1711622319023,599616056688190850,279
1711622319031,599616056695857626,230
1711622319039,599616056703524402,216
1711622319046,599616056711191178,197
1711622319054,599616056718857954,141
1711622319062,599616056726524730,77
1711622319069,599616056734191506,30
1711622319077,599616056741858282,2
1711622319085,599616056749525058,-14
1711622319092,599616056757191834,-18
1711622319100,599616056764858610,-63
1711622319108,599616056772525386,-176
1711622319115,599616056780192162,-310
1711622319123,599616056787858938,-411
1711622319131,599616056795525714,-479
1711622319137,599616056803192490,-536
1711622319145,599616056810859266,-545
1711622319153,599616056818526042,-512
1711622319161,599616056826192818,-496
1711622319169,599616056833859594,-482
1711622319177,599616056841511362,-428
1711622319184,599616056849178347,-381
1711622319192,599616056856845332,-366
1711622319200,599616056864512317,-336
1711622319207,599616056872179302,-293
1711622319215,599616056879846287,-275
1711622319223,599616056887513272,-246
1711622319230,599616056895180257,-206
1711622319238,599616056902847242,-206
1711622319246,599616056910514227,-289
1711622319253,599616056918181212,-451
1711622319261,599616056925848197,-632
1711622319269,599616056933515182,-693
1711622319276,599616056941182167,-623
1711622319284,599616056948849152,-569
1711622319292,599616056956516137,-531
1711622319299,599616056964183122,-453
1711622319307,599616056971850107,-402
1711622319315,599616056979517092,-381
1711622319321,599616056987184077,-326
1711622319329,599616056994851062,-275
1711622319337,599616057002518047,-232
1711622319345,599616057010185032,-162
1711622319353,599616057017852017,-105
1711622319361,599616057025519002,-105
1711622319368,599616057033185987,-108
1711622319376,599616057040852972,-112
1711622319384,599616057048519957,-141
1711622319391,599616057056186942,-117
1711622319399,599616057063853927,-56
1711622319407,599616057071520912,-54
1711622319414,599616057079187897,-70
1711622319422,599616057086854882,-49
1711622319430,599616057094521867,-28
1711622319437,599616057102188852,-11
1711622319445,599616057109855837,16
1711622319453,599616057117522822,-25
1711622319460,599616057125189807,-138
1711622319468,599616057132856792,-164
1711622319476,599616057140523777,-96
1711622319483,599616057148190762,-42
1711622319491,599616057155857747,2
1711622319499,599616057163524732,42
1711622319505,599616057171191717,70
1711622319513,599616057178858702,228
1711622319521,599616057186525687,606
1711622319529,599616057194192672,973
1711622319537,599616057201859657,926
1711622319545,599616057209526642,324
1711622319552,599616057217193627,-148
1711622319560,599616057224860612,44
1711622319568,599616057232527597,244
1711622319575,599616057240194582,145
1711622319583,599616057247861567,190
1711622319591,599616057255528552,305
1711622319598,599616057263195537,275
1711622319606,599616057270862522,221
1711622319614,599616057278529507,221
1711622319621,599616057286196492,199
1711622319629,599616057293863477,145
1711622319637,599616057301530462,141
1711622319644,599616057309197447,143
1711622319652,599616057316864432,58
1711622319660,599616057324531417,2
1711622319667,599616057332198402,44
1711622319675,599616057339865387,61
1711622319683,599616057347532372,58
1711622319689,599616057355199357,103
1711622319697,599616057362866342,108
1711622319705,599616057370533327,89
1711622319713,599616057378200312,136
1711622319721,599616057385867297,199
1711622319729,599616057393534282,223
1711622319736,599616057401181220,225
1711622319744,599616057408848484,190
1711622319752,599616057416515748,49
1711622319759,599616057424183012,-145
1711622319767,599616057431850276,-261
1711622319775,599616057439517540,-310
1711622319782,599616057447184804,-373
1711622319790,599616057454852068,-510
1711622319798,599616057462519332,-712
1711622319805,599616057470186596,-797
1711622319813,599616057477853860,-712
1711622319821,599616057485521124,-642
1711622319828,599616057493188388,-625
1711622319836,599616057500855652,-604
1711622319844,599616057508522916,-587
1711622319851,599616057516190180,-562
1711622319859,599616057523857444,-498
1711622319867,599616057531524708,-468
1711622319873,599616057539191972,-505
1711622319881,599616057546859236,-522
1711622319889,599616057554526500,-484
1711622319897,599616057562193764,-453
1711622319905,599616057569861028,-409
1711622319913,599616057577528292,-336
1711622319920,599616057585195556,-277
1711622319928,599616057592862820,-254
1711622319936,599616057600530084,-232
1711622319943,599616057608197348,-206
1711622319951,599616057615864612,-176
1711622319959,599616057623531876,-129
1711622319966,599616057631199140,-101
1711622319974,599616057638866404,-108
1711622319982,599616057646533668,-117
1711622319989,599616057654200932,-159
1711622319997,599616057661868196,-239
1711622320005,599616057669535460,-225
1711622320012,599616057677202724,-148
1711622320020,599616057684869988,-127
1711622320028,599616057692537252,-108
1711622320035,599616057700204516,-61
1711622320043,599616057707871780,-39
1711622320051,599616057715539044,-14
1711622320057,599616057723206308,37
1711622320065,599616057730873572,63
1711622320073,599616057738540836,82
1711622320081,599616057746208100,119
1711622320089,599616057753875364,148
1711622320097,599616057761542628,178
1711622320104,599616057769209892,218
1711622320112,599616057776877156,202
1711622320120,599616057784544420,119
1711622320127,599616057792211684,75
1711622320135,599616057799878948,79
1711622320143,599616057807546212,63
1711622320150,599616057815213476,44
1711622320158,599616057822880740,58
1711622320166,599616057830548004,77
1711622320173,599616057838215268,110
1711622320181,599616057845882532,105
1711622320189,599616057853549796,25
1711622320196,599616057861217060,-25
1711622320204,599616057868884324,4
1711622320212,599616057876551588,32
1711622320219,599616057884218852,94
1711622320227,599616057891886116,305
1711622320235,599616057899553380,644
1711622320241,599616057907220644,914
1711622320249,599616057914887908,778
1711622320257,599616057922555172,101
1711622320265,599616057930222436,-385
1711622320273,599616057937889700,-159
1711622320281,599616057945556964,-25
1711622320288,599616057953224228,-272
1711622320296,599616057960916640,-298
1711622320304,599616057968583555,-159
1711622320311,599616057976250470,-141
1711622320319,599616057983917385,-122
1711622320327,599616057991584300,-115
1711622320334,599616057999251215,-270
1711622320342,599616058006918130,-409
1711622320350,599616058014585045,-364
1711622320357,599616058022251960,-308
1711622320365,599616058029918875,-357
1711622320373,599616058037585790,-399
1711622320380,599616058045252705,-432
1711622320388,599616058052919620,-484
1711622320396,599616058060586535,-439
1711622320403,599616058068253450,-322
1711622320411,599616058075920365,-265
1711622320419,599616058083587280,-268
1711622320425,599616058091254195,-296
1711622320433,599616058098921110,-355
1711622320441,599616058106588025,-402
1711622320449,599616058114254940,-385
1711622320457,599616058121921855,-357
1711622320465,599616058129588770,-345
1711622320472,599616058137255685,-364
1711622320480,599616058144922600,-425
1711622320488,599616058152589515,-456
1711622320495,599616058160256430,-430
1711622320503,599616058167923345,-411
1711622320511,599616058175590260,-402
1711622320518,599616058183257175,-402
1711622320526,599616058190924090,-491
1711622320534,599616058198591005,-576
1711622320541,599616058206257920,-512
1711622320549,599616058213924835,-413
1711622320557,599616058221591750,-371
1711622320564,599616058229258665,-322
1711622320572,599616058236925580,-298
1711622320580,599616058244592495,-305
1711622320587,599616058252259410,-263
1711622320595,599616058259926325,-183
1711622320603,599616058267593240,-148
1711622320609,599616058275260155,-176
1711622320617,599616058282927070,-228
1711622320625,599616058290593985,-232
1711622320633,599616058298260900,-190
1711622320641,599616058305927815,-141
1711622320649,599616058313594730,-82
1711622320656,599616058321261645,-25
1711622320664,599616058328928560,-2
1711622320672,599616058336595475,-4
1711622320679,599616058344262390,-9
1711622320687,599616058351929305,7
1711622320695,599616058359596220,47
1711622320702,599616058367263135,87
1711622320710,599616058374930050,101
1711622320718,599616058382596965,61
1711622320725,599616058390263880,-28
1711622320733,599616058397930795,-61
1711622320741,599616058405597710,0
1711622320748,599616058413264625,42
1711622320756,599616058420931540,2
1711622320764,599616058428598455,-105
1711622320771,599616058436265370,-190
1711622320779,599616058443932285,-162
1711622320787,599616058451599200,-79
1711622320793,599616058459266115,-25
1711622320801,599616058466933030,7
1711622320809,599616058474599945,39
1711622320817,599616058482266860,54
1711622320825,599616058489933775,54
1711622320833,599616058497600690,79
1711622320840,599616058505267605,119
1711622320848,599616058512934520,124
1711622320856,599616058520611510,63
1711622320863,599616058528278286,-51
1711622320871,599616058535945062,-150
1711622320879,599616058543611838,-155
1711622320886,599616058551278614,-105
1711622320894,599616058558945390,-89
1711622320902,599616058566612166,-70
1711622320909,599616058574278942,-35
1711622320917,599616058581945718,-32
1711622320925,599616058589612494,89
1711622320932,599616058597279270,444
1711622320940,599616058604946046,705
1711622320948,599616058612612822,468
1711622320955,599616058620279598,-84
1711622320963,599616058627946374,-249
1711622320971,599616058635613150,14
1711622320977,599616058643279926,72
1711622320985,599616058650946702,-18
1711622320993,599616058658613478,54
1711622321001,599616058666280254,145
1711622321009,599616058673947030,157
1711622321017,599616058681613806,169
1711622321024,599616058689280582,181
1711622321032,599616058696947358,143
1711622321040,599616058704614134,79
1711622321047,599616058712280910,77
1711622321055,599616058719947686,105
1711622321063,599616058727614462,49
1711622321070,599616058735281238,-37
1711622321078,599616058742948014,-39
1711622321086,599616058750614790,7
1711622321093,599616058758281566,51
1711622321101,599616058765948342,61
1711622321109,599616058773615118,-2
1711622321116,599616058781281894,-87
1711622321124,599616058788948670,-122
1711622321132,599616058796615446,-138
1711622321139,599616058804282222,-171
1711622321147,599616058811948998,-183
1711622321155,599616058819615774,-181
1711622321161,599616058827282550,-230
1711622321169,599616058834949326,-298
1711622321177,599616058842616102,-317
1711622321185,599616058850282878,-303
1711622321193,599616058857949654,-289
1711622321201,599616058865616430,-270
1711622321208,599616058873283206,-291
1711622321216,599616058880949982,-348
1711622321224,599616058888616758,-348
1711622321231,599616058896283534,-284
1711622321239,599616058903950310,-230
1711622321247,599616058911617086,-183
1711622321254,599616058919283862,-152
1711622321262,599616058926950638,-221
1711622321270,599616058934617414,-331
1711622321277,599616058942284190,-310
1711622321285,599616058949950966,-223
1711622321293,599616058957617742,-185
1711622321300,599616058965284518,-188
1711622321308,599616058972951294,-265
1711622321316,599616058980618070,-333
1711622321323,599616058988284846,-282
1711622321331,599616058995951622,-209
1711622321339,599616059003618398,-183
1711622321345,599616059011285174,-192
1711622321353,599616059018951950,-272
1711622321361,599616059026618726,-333
1711622321369,599616059034285502,-286
1711622321377,599616059041952278,-218
1711622321385,599616059049619054,-183
1711622321392,599616059057285830,-176
1711622321400,599616059064952606,-232
1711622321408,599616059072619382,-331
1711622321415,599616059080311252,-338
1711622321423,599616059087977680,-263
1711622321431,599616059095644108,-211
1711622321438,599616059103310536,-183
1711622321446,599616059110976964,-176
1711622321454,599616059118643392,-246
1711622321461,599616059126309820,-291
1711622321469,599616059133976248,-216
1711622321477,599616059141642676,-127
1711622321484,599616059149309104,-98
1711622321492,599616059156975532,-89
1711622321500,599616059164641960,-89
1711622321507,599616059172308388,-84
1711622321515,599616059179974816,-25
1711622321523,599616059187641244,49
1711622321529,599616059195307672,87
1711622321537,599616059202974100,98
1711622321545,599616059210640528,115
1711622321553,599616059218306956,129
1711622321561,599616059225973384,150
1711622321569,599616059233639812,174
1711622321576,599616059241306240,178
1711622321584,599616059248972668,246
1711622321592,599616059256639096,465
1711622321599,599616059264305524,707
1711622321607,599616059271971952,771
1711622321615,599616059279638380,425
1711622321622,599616059287304808,-235
1711622321630,599616059294971236,-385
1711622321638,599616059302637664,14
1711622321645,599616059310304092,72
1711622321653,599616059317970520,-70
1711622321661,599616059325636948,47
1711622321668,599616059333303376,141
1711622321676,599616059340969804,101
1711622321684,599616059348636232,134
1711622321691,599616059356302660,202
1711622321699,599616059363969088,202
1711622321707,599616059371635516,211
1711622321713,599616059379301944,258
1711622321721,599616059386968372,272
1711622321729,599616059394634800,282
1711622321737,599616059402301228,326
1711622321745,599616059409967656,343
1711622321753,599616059417634084,331
1711622321760,599616059425300512,331
1711622321768,599616059432966940,268
1711622321776,599616059440633368,176
1711622321783,599616059448299796,157
1711622321791,599616059455966224,91
1711622321799,599616059463632652,-54
1711622321806,599616059471299080,-96
1711622321814,599616059478965508,-72
1711622321822,599616059486631936,-91
1711622321829,599616059494298364,-108
1711622321837,599616059501964792,-134
1711622321845,599616059509631220,-221
1711622321852,599616059517297648,-284
1711622321860,599616059524964076,-319
1711622321868,599616059532630504,-373
1711622321875,599616059540296932,-402
1711622321883,599616059547963360,-425
1711622321891,599616059555629788,-498
1711622321897,599616059563296216,-552
1711622321905,599616059570962644,-540
1711622321913,599616059578629072,-508
1711622321921,599616059586295500,-479
1711622321929,599616059593961928,-458
1711622321937,599616059601628356,-444
1711622321944,599616059609294784,-437
1711622321952,599616059616961212,-432
1711622321960,599616059624627640,-399
1711622321967,599616059632294068,-336
1711622321975,599616059639910400,-275
1711622321983,599616059647577524,-258
1711622321990,599616059655244648,-329
1711622321998,599616059662911772,-413
1711622322006,599616059670578896,-388
1711622322013,599616059678246020,-310
1711622322021,599616059685913144,-270
1711622322029,599616059693580268,-242
1711622322036,599616059701247392,-284
1711622322044,599616059708914516,-395
1711622322052,599616059716581640,-395
1711622322059,599616059724248764,-305
1711622322067,599616059731915888,-261
1711622322075,599616059739583012,-211
1711622322081,599616059747250136,-169
1711622322089,599616059754917260,-209
1711622322097,599616059762584384,-235
1711622322105,599616059770251508,-178
1711622322113,599616059777918632,-127
1711622322121,599616059785585756,-105
1711622322128,599616059793252880,-110
1711622322136,599616059800920004,-197
1711622322144,599616059808587128,-275
1711622322151,599616059816254252,-223
1711622322159,599616059823921376,-136
1711622322167,599616059831588500,-91
1711622322174,599616059839255624,-51
1711622322182,599616059846922748,-39
1711622322190,599616059854589872,-49
1711622322197,599616059862256996,-14
1711622322205,599616059869924120,51
1711622322213,599616059877591244,101
1711622322220,599616059885258368,216
1711622322228,599616059892925492,489
1711622322236,599616059900592616,839
1711622322243,599616059908259740,1039
1711622322251,599616059915926864,757
1711622322259,599616059923593988,65
1711622322265,599616059931261112,-166
1711622322273,599616059938928236,110
1711622322281,599616059946595360,21
1711622322289,599616059954262484,-181
1711622322297,599616059961929608,-37
1711622322305,599616059969596732,65
1711622322312,599616059977263856,35
1711622322320,599616059984930980,82
1711622322328,599616059992598104,122
1711622322335,599616060000265228,70
1711622322343,599616060007932352,47
1711622322351,599616060015599476,110
1711622322358,599616060023266600,162
1711622322366,599616060030933724,159
1711622322374,599616060038600848,129
1711622322381,599616060046267972,39
1711622322389,599616060053935096,-23
1711622322397,599616060061602220,47
1711622322404,599616060069269344,143
1711622322412,599616060076936468,171
1711622322420,599616060084603592,202
1711622322427,599616060092270716,237
1711622322435,599616060099937840,242
1711622322443,599616060107604964,268
1711622322449,599616060115272088,303
1711622322457,599616060122939212,265
1711622322465,599616060130606336,176
1711622322473,599616060138273460,70
1711622322481,599616060145940584,-54
1711622322489,599616060153607708,-129
1711622322496,599616060161274832,-164
1711622322504,599616060168941956,-228
1711622322512,599616060176609080,-249
1711622322519,599616060184276204,-211
1711622322527,599616060191943328,-206
1711622322535,599616060199635576,-204
1711622322542,599616060207302352,-174
1711622322550,599616060214969128,-171
1711622322558,599616060222635904,-164
1711622322565,599616060230302680,-110
1711622322573,599616060237969456,-119
1711622322581,599616060245636232,-237
1711622322588,599616060253303008,-333
1711622322596,599616060260969784,-366
1711622322604,599616060268636560,-385
1711622322611,599616060276303336,-383
1711622322619,599616060283970112,-409
1711622322627,599616060291636888,-503
1711622322633,599616060299303664,-571
1711622322641,599616060306970440,-580
1711622322649,599616060314637216,-562
1711622322657,599616060322303992,-510
1711622322665,599616060329970768,-493
1711622322673,599616060337637544,-559
1711622322680,599616060345304320,-611
1711622322688,599616060352971096,-578
1711622322696,599616060360637872,-517
1711622322703,599616060368304648,-453
1711622322711,599616060375971424,-385
1711622322719,599616060383638200,-343
1711622322726,599616060391304976,-324
1711622322734,599616060398971752,-296
1711622322742,599616060406638528,-268
1711622322749,599616060414305304,-237
1711622322757,599616060421972080,-185
1711622322765,599616060429638856,-143
1711622322772,599616060437305632,-141
1711622322780,599616060444972408,-204
1711622322788,599616060452639184,-305
1711622322795,599616060460305960,-324
1711622322803,599616060467972736,-249
1711622322811,599616060475639512,-190
1711622322817,599616060483306288,-197
1711622322825,599616060490973064,-251
1711622322833,599616060498639840,-270
1711622322841,599616060506306616,-122
1711622322849,599616060513973392,235
1711622322857,599616060521640168,635
1711622322864,599616060529306944,736
1711622322872,599616060536973720,228
1711622322880,599616060544640496,-510
1711622322887,599616060552307272,-547
1711622322895,599616060559974048,-112
1711622322903,599616060567640824,-72
1711622322910,599616060575307600,-178
1711622322918,599616060582974376,-89
1711622322926,599616060590641152,-39
1711622322933,599616060598307928,-28
1711622322941,599616060605974704,39
1711622322949,599616060613641480,98
1711622322956,599616060621308256,117
1711622322964,599616060628975032,124
1711622322972,599616060636641808,136
1711622322979,599616060644308584,190
1711622322987,599616060651975360,249
1711622322995,599616060659642136,272
1711622323001,599616060667308912,286
1711622323009,599616060674975688,254
1711622323017,599616060682642464,171
1711622323025,599616060690309240,176
1711622323033,599616060697976016,265
1711622323041,599616060705642792,317
1711622323048,599616060713309568,336
1711622323056,599616060720976344,350
1711622323064,599616060728643120,317
1711622323071,599616060736309896,230
1711622323079,599616060743976672,143
1711622323087,599616060751643448,112
1711622323094,599616060759310264,115
1711622323102,599616060766977040,72
1711622323110,599616060774643816,4
1711622323117,599616060782310592,-11
1711622323125,599616060789977368,28
1711622323133,599616060797644144,65
1711622323140,599616060805310920,96
1711622323148,599616060812977696,94
1711622323156,599616060820644472,18
1711622323163,599616060828311248,-87
1711622323171,599616060835978024,-108
1711622323179,599616060843644800,-68
1711622323185,599616060851311576,-47
1711622323193,599616060858978352,-61
1711622323201,599616060866645128,-124
1711622323209,599616060874311904,-225
1711622323217,599616060881978680,-268
1711622323225,599616060889645456,-239
1711622323232,599616060897312232,-209
1711622323240,599616060904979008,-209
1711622323248,599616060912645784,-192
1711622323255,599616060920312560,-141
1711622323263,599616060927979336,-129
1711622323271,599616060935646112,-136
1711622323278,599616060943312888,-134
1711622323286,599616060950979664,-225
1711622323294,599616060958646440,-359
1711622323301,599616060966313216,-435
1711622323309,599616060973979992,-517
1711622323317,599616060981646768,-573
1711622323324,599616060989313544,-536
1711622323332,599616060996980320,-538
1711622323340,599616061004647096,-597
1711622323347,599616061012313872,-585
1711622323355,599616061019980648,-644
1711622323363,599616061027647424,-809
1711622323369,599616061035314200,-813
1711622323377,599616061042980976,-674
1711622323385,599616061050647752,-587
1711622323393,599616061058314528,-580
1711622323401,599616061065981304,-583
1711622323409,599616061073648080,-508
1711622323416,599616061081314856,-388
1711622323424,599616061088981632,-336
1711622323432,599616061096648408,-310
1711622323439,599616061104315184,-155
1711622323447,599616061111981960,178
1711622323455,599616061119648736,547
1711622323462,599616061127315512,733
1711622323470,599616061134982288,420
1711622323478,599616061142649064,-286
1711622323485,599616061150315840,-444
1711622323493,599616061157982616,-23
1711622323501,599616061165649392,39
1711622323508,599616061173316168,-56
1711622323516,599616061180982944,63
1711622323524,599616061188649720,49
1711622323531,599616061196316496,-63
1711622323539,599616061203983272,-25
1711622323547,599616061211650048,65
1711622323553,599616061219316824,23
1711622323561,599616061226983600,-136
1711622323569,599616061234650376,-188
1711622323577,599616061242317152,-68
1711622323585,599616061249983928,58
1711622323593,599616061257650704,63
1711622323600,599616061265317480,-14
1711622323608,599616061272984256,-16
1711622323616,599616061280651032,94
1711622323623,599616061288317808,190
1711622323631,599616061295984584,237
1711622323639,599616061303651360,296
1711622323646,599616061311318136,329
1711622323654,599616061318959896,310
1711622323662,599616061326627020,305
1711622323669,599616061334294144,319
1711622323677,599616061341961268,303
1711622323685,599616061349628392,289
1711622323692,599616061357295516,265
1711622323700,599616061364962640,152
1711622323708,599616061372629764,30
1711622323715,599616061380296888,28
1711622323723,599616061387964012,103
1711622323731,599616061395631136,148
1711622323737,599616061403298260,77
1711622323745,599616061410965384,-134
1711622323753,599616061418632508,-277
1711622323761,599616061426299632,-192
1711622323769,599616061433966756,-79
1711622323777,599616061441633880,-54
1711622323784,599616061449301004,-54
1711622323792,599616061456968128,-148
1711622323800,599616061464635252,-265
1711622323807,599616061472302376,-277
1711622323815,599616061479969500,-263
1711622323823,599616061487636624,-258
1711622323830,599616061495303748,-211
1711622323838,599616061502970872,-192
1711622323846,599616061510637996,-209
1711622323853,599616061518305120,-190
1711622323861,599616061525972244,-159
1711622323869,599616061533639368,-112
1711622323876,599616061541306492,-61
1711622323884,599616061548973616,-112
1711622323892,599616061556640740,-228
1711622323899,599616061564307864,-237
1711622323907,599616061571974988,-181
1711622323915,599616061579642112,-209
1711622323921,599616061587309236,-272
1711622323929,599616061594976360,-305
1711622323937,599616061602643484,-336
1711622323945,599616061610310608,-322
1711622323953,599616061617977732,-244
1711622323961,599616061625644856,-185
1711622323968,599616061633311980,-152
1711622323976,599616061640979104,-127
1711622323984,599616061648646228,-122
1711622323991,599616061656313352,-162
1711622323999,599616061663980476,-216
1711622324007,599616061671647600,-228
1711622324014,599616061679314724,-221
1711622324022,599616061686981848,-124
1711622324030,599616061694648972,209
1711622324037,599616061702316096,597
1711622324045,599616061709983220,609
1711622324053,599616061717650344,-42
1711622324060,599616061725317468,-754
1711622324068,599616061732984592,-644
1711622324076,599616061740651716,-312
1711622324083,599616061748318840,-484
1711622324091,599616061755985964,-585
1711622324099,599616061763653088,-404
1711622324105,599616061771320212,-366
1711622324113,599616061778987336,-413
1711622324121,599616061786654460,-343
1711622324129,599616061794321584,-312
1711622324137,599616061801988708,-390
1711622324145,599616061809655832,-399
1711622324152,599616061817322956,-350
1711622324160,599616061824990080,-336
1711622324168,599616061832657204,-279
1711622324175,599616061840324328,-183
1711622324183,599616061847991452,-148
1711622324191,599616061855658576,-115
1711622324198,599616061863325700,-39
1711622324206,599616061870992824,16
1711622324214,599616061878649934,47
1711622324221,599616061886317198,105
1711622324229,599616061893984462,152
1711622324237,599616061901651726,134
1711622324244,599616061909318990,96
1711622324252,599616061916986254,87
1711622324260,599616061924653518,82
1711622324267,599616061932320782,61
1711622324275,599616061939988046,-21
1711622324283,599616061947655310,-221
1711622324289,599616061955322574,-388
1711622324297,599616061962989838,-465
1711622324305,599616061970657102,-585
1711622324313,599616061978324366,-632
1711622324321,599616061985991630,-524
1711622324329,599616061993658894,-458
1711622324336,599616062001326158,-475
1711622324344,599616062008993422,-444
1711622324352,599616062016660686,-373
1711622324359,599616062024327950,-315
1711622324367,599616062031995214,-251
1711622324375,599616062039662478,-197
1711622324382,599616062047329742,-192
1711622324390,599616062054997006,-181
1711622324398,599616062062664270,-127
1711622324405,599616062070331534,-68
1711622324413,599616062077998798,-25
1711622324421,599616062085666062,-28
1711622324428,599616062093333326,-124
1711622324436,599616062101000590,-206
1711622324444,599616062108667854,-162
1711622324451,599616062116335118,-84
1711622324459,599616062124002382,-37
1711622324467,599616062131669646,16
1711622324473,599616062139336910,37
1711622324481,599616062147004174,2
1711622324489,599616062154671438,28
1711622324497,599616062162338702,115
1711622324505,599616062170005966,169
1711622324513,599616062177673230,204
1711622324520,599616062185340494,235
1711622324528,599616062193007758,204
1711622324536,599616062200675022,164
1711622324543,599616062208342286,169
1711622324551,599616062216009550,145
1711622324559,599616062223676814,94
1711622324566,599616062231344078,101
1711622324574,599616062239011342,108
1711622324582,599616062246678606,79
1711622324589,599616062254345870,101
1711622324597,599616062262013134,143
1711622324605,599616062269680398,136
1711622324612,599616062277347662,63
1711622324620,599616062285014926,-61
1711622324628,599616062292682190,-61
1711622324635,599616062300349454,242
1711622324643,599616062308016718,646
1711622324651,599616062315683982,745
1711622324657,599616062323351246,242
1711622324665,599616062331018510,-397
1711622324673,599616062338685774,-343
1711622324681,599616062346353038,-21
1711622324689,599616062354020302,-131
1711622324697,599616062361687566,-254
1711622324704,599616062369354830,-174
1711622324712,599616062377022094,-230
1711622324720,599616062384689358,-343
1711622324727,599616062392356622,-310
1711622324735,599616062400023886,-244
1711622324743,599616062407691150,-221
1711622324750,599616062415358414,-195
1711622324758,599616062423025678,-176
1711622324766,599616062430692942,-188
1711622324774,599616062438425462,-209
1711622324781,599616062446091820,-195
1711622324789,599616062453758178,-145
1711622324797,599616062461424536,-174
1711622324804,599616062469090894,-317
1711622324812,599616062476757252,-484
1711622324820,599616062484423610,-609
1711622324827,599616062492089968,-627
1711622324835,599616062499756326,-547
1711622324843,599616062507422684,-479
1711622324849,599616062515089042,-456
1711622324857,599616062522755400,-420
1711622324865,599616062530421758,-409
1711622324873,599616062538088116,-425
1711622324881,599616062545754474,-402
1711622324889,599616062553420832,-366
1711622324896,599616062561087190,-364
1711622324904,599616062568753548,-348
1711622324912,599616062576419906,-319
1711622324919,599616062584086264,-305
1711622324927,599616062591752622,-270
1711622324935,599616062599418980,-216
1711622324942,599616062607085338,-197
1711622324950,599616062614751696,-199
1711622324958,599616062622418054,-214
1711622324965,599616062630084412,-275
1711622324973,599616062637750770,-308
1711622324981,599616062645417128,-251
1711622324988,599616062653083486,-199
1711622324996,599616062660749844,-176
1711622325004,599616062668416202,-115
1711622325011,599616062676082560,-72
1711622325019,599616062683748918,-84
1711622325027,599616062691415276,-61
1711622325033,599616062699081634,-23
1711622325041,599616062706747992,-58
1711622325049,599616062714414350,-101
1711622325057,599616062722080708,-89
1711622325065,599616062729747066,-77
1711622325073,599616062737413424,-68
1711622325080,599616062745079782,-47
1711622325088,599616062752746140,-11
1711622325096,599616062760412498,44
1711622325103,599616062768078856,77
1711622325111,599616062775745214,89
1711622325119,599616062783411572,115
1711622325126,599616062791077930,131
1711622325134,599616062798744288,108
1711622325142,599616062806410646,98
1711622325149,599616062814077004,110
1711622325157,599616062821743362,39
1711622325165,599616062829409720,-84
1711622325172,599616062837076078,-103
1711622325180,599616062844742436,-49
1711622325188,599616062852408794,-23
1711622325195,599616062860075152,0
1711622325203,599616062867741510,35
1711622325211,599616062875407868,35
1711622325217,599616062883074226,23
1711622325225,599616062890740584,51
1711622325233,599616062898406942,105
1711622325241,599616062906073300,230
1711622325249,599616062913739658,512
1711622325257,599616062921406016,867
1711622325264,599616062929072374,1020
1711622325272,599616062936738732,616
1711622325280,599616062944405090,-150
1711622325287,599616062952071448,-366
1711622325295,599616062959737806,-75
1711622325303,599616062967404164,-115
1711622325310,599616062975070522,-352
1711622325318,599616062982736880,-378
1711622325326,599616062990403238,-331
1711622325333,599616062998039536,-312
1711622325341,599616063005706312,-261
1711622325349,599616063013373088,-246
1711622325356,599616063021039864,-371
1711622325364,599616063028706640,-468
1711622325372,599616063036373416,-442
1711622325379,599616063044040192,-439
1711622325387,599616063051706968,-446
1711622325395,599616063059373744,-446
1711622325401,599616063067040520,-566
1711622325409,599616063074707296,-672
1711622325417,599616063082374072,-580
1711622325425,599616063090040848,-468
1711622325433,599616063097707624,-420
1711622325441,599616063105374400,-355
1711622325448,599616063113041176,-322
1711622325456,599616063120707952,-336
1711622325464,599616063128374728,-303
1711622325471,599616063136041504,-246
1711622325479,599616063143708280,-232
1711622325487,599616063151375056,-256
1711622325494,599616063159041832,-336
1711622325502,599616063166708608,-458
1711622325510,599616063174375384,-498
1711622325517,599616063182042160,-449
1711622325525,599616063189708936,-402
1711622325533,599616063197375712,-420
1711622325540,599616063205042488,-489
1711622325548,599616063212709264,-515
1711622325556,599616063220376040,-463
1711622325563,599616063228042816,-399
1711622325571,599616063235709592,-350
1711622325579,599616063243376368,-275
1711622325585,599616063251043144,-211
1711622325593,599616063258709920,-192
1711622325601,599616063266376696,-181
1711622325609,599616063274043472,-129
1711622325617,599616063281710248,-61
1711622325625,599616063289377024,-16
1711622325632,599616063297043800,0
1711622325640,599616063304710576,11
1711622325648,599616063312377352,30
1711622325655,599616063320044128,51
1711622325663,599616063327710904,70
1711622325671,599616063335377680,77
1711622325678,599616063343044456,89
1711622325686,599616063350711232,91
1711622325694,599616063358378008,25
1711622325701,599616063366044784,-56
1711622325709,599616063373711560,-39
1711622325717,599616063381378336,11
1711622325724,599616063389045112,9
1711622325732,599616063396711888,16
1711622325740,599616063404378664,37
1711622325747,599616063412045440,39
1711622325755,599616063419712216,56
1711622325763,599616063427378992,94
1711622325769,599616063435045768,96
1711622325777,599616063442712544,61
1711622325785,599616063450379320,28
1711622325793,599616063458046096,0
1711622325801,599616063465712872,-14
1711622325809,599616063473379648,-23
1711622325816,599616063481046424,-108
1711622325824,599616063488713200,-216
1711622325832,599616063496379976,-127
1711622325839,599616063504046752,178
1711622325847,599616063511713528,515
1711622325855,599616063519380304,714
1711622325862,599616063527047080,458
1711622325870,599616063534713856,-230
1711622325878,599616063542380632,-458
1711622325885,599616063550047408,-124
1711622325893,599616063557699176,-138
1711622325900,599616063565366161,-329
1711622325908,599616063573033146,-242
1711622325916,599616063580700131,-235
1711622325923,599616063588367116,-305
1711622325931,599616063596034101,-216
1711622325939,599616063603701086,-164
1711622325945,599616063611368071,-225
1711622325953,599616063619035056,-225
1711622325961,599616063626702041,-166
1711622325969,599616063634369026,-115
1711622325977,599616063642036011,-68
1711622325985,599616063649702996,-105
1711622325992,599616063657369981,-246
1711622326000,599616063665036966,-308
1711622326008,599616063672703951,-265
1711622326015,599616063680370936,-289
1711622326023,599616063688037921,-359
1711622326031,599616063695704906,-442
1711622326039,599616063703371891,-569
1711622326046,599616063711038876,-609
1711622326054,599616063718705861,-536
1711622326062,599616063726372846,-515
1711622326069,599616063734039831,-510
1711622326077,599616063741706816,-470
1711622326085,599616063749373801,-505
1711622326092,599616063757040786,-578
1711622326100,599616063764707771,-536
1711622326108,599616063772374756,-451
1711622326115,599616063780041741,-435
1711622326123,599616063787708726,-399
1711622326131,599616063795375711,-357
1711622326137,599616063803042696,-390
1711622326145,599616063810709681,-395
1711622326153,599616063818376666,-308
1711622326161,599616063826043651,-225
1711622326169,599616063833710636,-183
1711622326177,599616063841377621,-148
1711622326184,599616063849044606,-136
1711622326192,599616063856711591,-136
1711622326200,599616063864378576,-108
1711622326207,599616063872045561,-61
1711622326215,599616063879712546,-18
1711622326223,599616063887379531,-7
1711622326230,599616063895046516,-70
1711622326238,599616063902713501,-152
1711622326246,599616063910380486,-124
1711622326253,599616063918047471,-37
1711622326261,599616063925714456,4
1711622326269,599616063933381441,9
1711622326276,599616063941048426,-44
1711622326284,599616063948715411,-112
1711622326292,599616063956382396,-77
1711622326299,599616063964049381,14
1711622326307,599616063971716366,72
1711622326315,599616063979383351,65
1711622326321,599616063987050336,-58
1711622326329,599616063994717321,-206
1711622326337,599616064002384306,-206
1711622326345,599616064010051291,-119
1711622326353,599616064017718276,-63
1711622326361,599616064025385261,-35
1711622326368,599616064033052246,-42
1711622326376,599616064040719231,-136
1711622326384,599616064048386216,-244
1711622326391,599616064056053201,-218
1711622326399,599616064063720186,-129
1711622326407,599616064071387171,-103
1711622326414,599616064079054156,-63
1711622326422,599616064086721141,119
1711622326430,599616064094388126,449
1711622326437,599616064102055111,792
1711622326445,599616064109722096,849
1711622326453,599616064117389122,319
1711622326460,599616064125056107,-249
1711622326468,599616064132723092,-96
1711622326476,599616064140390077,181
1711622326483,599616064148057062,54
1711622326491,599616064155724047,51
1711622326499,599616064163391032,206
1711622326505,599616064171058017,181
1711622326513,599616064178725002,129
1711622326521,599616064186391987,134
1711622326529,599616064194058972,72
1711622326537,599616064201725957,11
1711622326545,599616064209392942,18
1711622326552,599616064217059927,11
1711622326560,599616064224726912,-11
1711622326568,599616064232393897,-56
1711622326575,599616064240060882,-197
1711622326583,599616064247727867,-277
1711622326591,599616064255394852,-195
1711622326598,599616064263061837,-127
1711622326606,599616064270728822,-122
1711622326614,599616064278395807,-115
1711622326621,599616064286062792,-131
1711622326629,599616064293729777,-176
1711622326637,599616064301396762,-218
1711622326644,599616064309063747,-246
1711622326652,599616064316730732,-256
1711622326660,599616064324397717,-261
1711622326667,599616064332064702,-293
1711622326675,599616064339731687,-336
1711622326683,599616064347398672,-352
1711622326689,599616064355065657,-359
1711622326697,599616064362732642,-359
1711622326705,599616064370399627,-326
1711622326713,599616064378066612,-301
1711622326721,599616064385733597,-312
1711622326729,599616064393400582,-326
1711622326736,599616064401067567,-331
1711622326744,599616064408734552,-305
1711622326752,599616064416401537,-244
1711622326759,599616064424068522,-199
1711622326767,599616064431735507,-214
1711622326775,599616064439402492,-249
1711622326782,599616064447069477,-235
1711622326790,599616064454736462,-181
1711622326798,599616064462403447,-129
1711622326805,599616064470070432,-72
1711622326813,599616064477737417,-32
1711622326821,599616064485404402,-103
1711622326828,599616064493071387,-223
1711622326836,599616064500738372,-218
1711622326844,599616064508405357,-131
1711622326851,599616064516072342,-82
1711622326859,599616064523739327,-84
1711622326867,599616064531406312,-157
1711622326873,599616064539073297,-230
1711622326881,599616064546740282,-188
1711622326889,599616064554407267,-98
1711622326897,599616064562074252,-39
1711622326905,599616064569741237,-25
1711622326913,599616064577408222,-124
1711622326920,599616064585075207,-263
1711622326928,599616064592742192,-256
1711622326936,599616064600409177,-171
1711622326943,599616064608076162,-122
1711622326951,599616064615743147,-68
1711622326959,599616064623410132,-30
1711622326966,599616064631077117,-56
1711622326974,599616064638744102,-56
1711622326982,599616064646411087,11
1711622326989,599616064654078072,75
1711622326997,599616064661745057,122
1711622327005,599616064669412042,155
1711622327012,599616064677094118,145
1711622327020,599616064684760894,221
1711622327028,599616064692427670,538
1711622327035,599616064700094446,900
1711622327043,599616064707761222,917
1711622327051,599616064715427998,385
1711622327057,599616064723094774,-209
1711622327065,599616064730761550,-192
1711622327073,599616064738428326,51
1711622327081,599616064746095102,7
1711622327089,599616064753761878,-23
1711622327097,599616064761428654,58
1711622327104,599616064769095430,-28
1711622327112,599616064776762206,-237
1711622327120,599616064784428982,-291
1711622327127,599616064792095758,-223
1711622327135,599616064799762534,-230
1711622327143,599616064807429310,-251
1711622327150,599616064815096086,-223
1711622327158,599616064822762862,-211
1711622327166,599616064830429638,-195
1711622327173,599616064838096414,-124
1711622327181,599616064845763190,-49
1711622327189,599616064853429966,-2
1711622327196,599616064861096742,32
1711622327204,599616064868763518,39
1711622327212,599616064876430294,4
1711622327219,599616064884097070,-18
1711622327227,599616064891763846,-18
1711622327235,599616064899430622,-63
1711622327241,599616064907097398,-129
1711622327249,599616064914764174,-152
1711622327257,599616064922430950,-211
1711622327265,599616064930097726,-329
1711622327273,599616064937764502,-385
1711622327281,599616064945431278,-373
1711622327288,599616064953098054,-388
1711622327296,599616064960764830,-428
1711622327304,599616064968431606,-493
1711622327311,599616064976098382,-545
1711622327319,599616064983765158,-508
1711622327327,599616064991431934,-500
1711622327334,599616064999098710,-604
1711622327342,599616065006765486,-630
1711622327350,599616065014432262,-557
1711622327357,599616065022099038,-524
1711622327365,599616065029765814,-493
1711622327373,599616065037432590,-423
1711622327380,599616065045099366,-378
1711622327388,599616065052766142,-343
1711622327396,599616065060432918,-289
1711622327403,599616065068099694,-261
1711622327411,599616065075766470,-228
1711622327419,599616065083433246,-174
1711622327425,599616065091100022,-143
1711622327433,599616065098766798,-119
1711622327441,599616065106433574,-101
1711622327449,599616065114100350,-176
1711622327457,599616065121767126,-270
1711622327465,599616065129433902,-244
1711622327472,599616065137100678,-188
1711622327480,599616065144767454,-164
1711622327488,599616065152434230,-101
1711622327495,599616065160101006,-28
1711622327503,599616065167767782,-25
1711622327511,599616065175434558,-77
1711622327518,599616065183101334,-82
1711622327526,599616065190768110,-18
1711622327534,599616065198434886,49
1711622327541,599616065206101662,84
1711622327549,599616065213768438,87
1711622327557,599616065221435214,79
1711622327564,599616065229101990,84
1711622327572,599616065236738710,103
1711622327580,599616065244405904,145
1711622327587,599616065252073098,195
1711622327595,599616065259740292,214
1711622327603,599616065267407486,202
1711622327609,599616065275074680,192
1711622327617,599616065282741874,195
1711622327625,599616065290409068,206
1711622327633,599616065298076262,228
1711622327641,599616065305743456,169
1711622327649,599616065313410650,-7
1711622327656,599616065321077844,-35
1711622327664,599616065328745038,263
1711622327672,599616065336412232,653
1711622327679,599616065344079426,816
1711622327687,599616065351746620,503
1711622327695,599616065359413814,-103
1711622327702,599616065367081008,-251
1711622327710,599616065374748202,4
1711622327718,599616065382415396,-14
1711622327725,599616065390082590,-112
1711622327733,599616065397749784,-2
1711622327741,599616065405416978,16
1711622327748,599616065413084172,-103
1711622327756,599616065420751366,-155
1711622327764,599616065428418560,-122
1711622327771,599616065436085754,-79
1711622327779,599616065443752948,-32
1711622327787,599616065451420142,-18
1711622327793,599616065459087336,-89
1711622327801,599616065466754530,-155
1711622327809,599616065474421724,-162
1711622327817,599616065482088918,-166
1711622327825,599616065489756112,-155
1711622327833,599616065497423306,-134
1711622327840,599616065505090500,-211
1711622327848,599616065512757694,-303
1711622327856,599616065520424888,-256
1711622327863,599616065528092082,-169
1711622327871,599616065535759276,-138
1711622327879,599616065543426470,-127
1711622327886,599616065551093664,-197
1711622327894,599616065558760858,-322
1711622327902,599616065566428052,-338
1711622327909,599616065574095246,-286
1711622327917,599616065581762440,-282
1711622327925,599616065589429634,-282
1711622327932,599616065597096828,-284
1711622327940,599616065604764022,-308
1711622327948,599616065612431216,-286
1711622327955,599616065620098410,-221
1711622327963,599616065627765604,-166
1711622327971,599616065635432798,-143
1711622327977,599616065643099992,-174
1711622327985,599616065650767186,-272
1711622327993,599616065658434380,-359
1711622328001,599616065666101574,-378
1711622328009,599616065673768768,-350
1711622328017,599616065681435962,-305
1711622328024,599616065689103156,-275
1711622328032,599616065696770350,-261
1711622328040,599616065704437544,-235
1711622328047,599616065712104738,-181
1711622328055,599616065719771932,-117
1711622328063,599616065727439126,-70
1711622328070,599616065735106320,-42
1711622328078,599616065742773514,-28
1711622328086,599616065750440708,-11
1711622328093,599616065758107902,21
1711622328101,599616065765775096,70
1711622328109,599616065773442290,110
1711622328116,599616065781109484,127
1711622328124,599616065788776678,145
1711622328132,599616065796474012,159
1711622328139,599616065804140788,169
1711622328147,599616065811807564,199
1711622328155,599616065819474340,211
1711622328161,599616065827141116,178
1711622328169,599616065834807892,166
1711622328177,599616065842474668,127
1711622328185,599616065850141444,-21
1711622328193,599616065857808220,-89
1711622328201,599616065865474996,-25
1711622328208,599616065873141772,-14
1711622328216,599616065880808548,-28
1711622328224,599616065888475324,11
1711622328231,599616065896142100,28
1711622328239,599616065903808876,-2
1711622328247,599616065911475652,-49
1711622328254,599616065919142428,-84
1711622328262,599616065926809204,-63
1711622328270,599616065934475980,-11
1711622328277,599616065942142756,2
1711622328285,599616065949809532,14
1711622328293,599616065957476308,51
1711622328300,599616065965143084,75
1711622328308,599616065972809860,117
1711622328316,599616065980476636,279
1711622328323,599616065988143412,540
1711622328331,599616065995810188,759
1711622328339,599616066003476964,632
1711622328345,599616066011143740,-47
1711622328353,599616066018810516,-595
1711622328361,599616066026477292,-385
1711622328369,599616066034144068,-181
1711622328377,599616066041810844,-413
1711622328385,599616066049477620,-503
1711622328392,599616066057144396,-411
1711622328400,599616066064811172,-446
1711622328408,599616066072477948,-482
1711622328415,599616066080144724,-456
1711622328423,599616066087811500,-557
1711622328431,599616066095478276,-686
1711622328438,599616066103145052,-656
1711622328446,599616066110811828,-576
1711622328454,599616066118478604,-529
1711622328461,599616066126145380,-463
1711622328469,599616066133812156,-402
1711622328477,599616066141478932,-388
1711622328484,599616066149145708,-392
1711622328492,599616066156812484,-397
1711622328500,599616066164479260,-378
1711622328507,599616066172146036,-312
1711622328515,599616066179812812,-289
1711622328523,599616066187479588,-376
1711622328529,599616066195146364,-446
1711622328537,599616066202813140,-395
1711622328545,599616066210479916,-319
1711622328553,599616066218146692,-293
1711622328561,599616066225813468,-268
1711622328569,599616066233480244,-270
1711622328576,599616066241147020,-315
1711622328584,599616066248813796,-315
1711622328592,599616066256480572,-258
1711622328599,599616066264147348,-209
1711622328607,599616066271814124,-159
1711622328615,599616066279480900,-129
1711622328622,599616066287147676,-145
1711622328630,599616066294814452,-136
1711622328638,599616066302481228,-68
1711622328645,599616066310148004,-4
1711622328653,599616066317814780,42
1711622328661,599616066325481556,82
1711622328668,599616066333148332,75
1711622328676,599616066340815108,61
1711622328684,599616066348481884,91
1711622328691,599616066356148702,119
1711622328699,599616066363815478,136
1711622328707,599616066371482254,162
1711622328713,599616066379149030,138
1711622328721,599616066386815806,77
1711622328729,599616066394482582,68
1711622328737,599616066402149358,58
1711622328745,599616066409816134,16
1711622328753,599616066417482910,23
1711622328760,599616066425149686,-14
1711622328768,599616066432816462,-188
1711622328776,599616066440483238,-296
1711622328783,599616066448150014,-221
1711622328791,599616066455816790,-141
1711622328799,599616066463483566,-119
1711622328806,599616066471150342,-89
1711622328814,599616066478817118,-75
1711622328822,599616066486483894,-65
1711622328829,599616066494150670,-9
1711622328837,599616066501817446,63
1711622328845,599616066509484222,58
1711622328852,599616066517150998,-39
1711622328860,599616066524817774,-124
1711622328868,599616066532484550,-136
1711622328875,599616066540151326,-119
1711622328883,599616066547818102,-89
1711622328891,599616066555484878,-42
1711622328897,599616066563151654,-14
1711622328905,599616066570818430,-23
1711622328913,599616066578485206,-98
1711622328921,599616066586151982,-159
1711622328929,599616066593818758,-143
1711622328937,599616066601485534,-148
1711622328944,599616066609152310,-188
1711622328952,599616066616819086,-181
1711622328960,599616066624485862,-143
1711622328967,599616066632152638,-25
1711622328975,599616066639819414,277
1711622328983,599616066647486190,613
1711622328990,599616066655152966,644
1711622328998,599616066662819742,162
1711622329006,599616066670486518,-465
1711622329013,599616066678153294,-512
1711622329021,599616066685820070,-249
1711622329029,599616066693486846,-331
1711622329036,599616066701153622,-460
1711622329044,599616066708820398,-397
1711622329052,599616066716487174,-413
1711622329059,599616066724153950,-524
1711622329067,599616066731820726,-543
1711622329075,599616066739487502,-479
1711622329081,599616066747154278,-449
1711622329089,599616066754821054,-418
1711622329097,599616066762487830,-345
1711622329105,599616066770154606,-298
1711622329113,599616066777821382,-286
1711622329121,599616066785488158,-239
1711622329128,599616066793154934,-185
1711622329136,599616066800821710,-136
1711622329144,599616066808488486,-63
1711622329151,599616066816155262,7
1711622329159,599616066823822038,39
1711622329167,599616066831488814,65
1711622329174,599616066839155590,98
1711622329182,599616066846822366,131
1711622329190,599616066854489142,164
1711622329197,599616066862155918,188
1711622329205,599616066869822694,174
1711622329213,599616066877489470,129
1711622329220,599616066885156246,63
1711622329228,599616066892823022,-32
1711622329236,599616066900489798,-115
1711622329243,599616066908156574,-127
1711622329251,599616066915808342,-171
1711622329259,599616066923475327,-289
1711622329265,599616066931142312,-333
1711622329273,599616066938809297,-272
1711622329281,599616066946476282,-206
1711622329289,599616066954143267,-148
1711622329297,599616066961810252,-98
1711622329305,599616066969477237,-94
1711622329312,599616066977144222,-108
1711622329320,599616066984811207,-75
1711622329328,599616066992478192,-7
1711622329335,599616067000145177,54
1711622329343,599616067007812162,89
1711622329351,599616067015479147,35
1711622329358,599616067023146132,-89
1711622329366,599616067030813117,-115
1711622329374,599616067038480102,-42
1711622329381,599616067046147087,2
1711622329389,599616067053814072,25
1711622329397,599616067061481057,-11
1711622329404,599616067069148042,-152
1711622329412,599616067076815027,-204
1711622329420,599616067084482012,-117
1711622329427,599616067092148997,-51
1711622329435,599616067099815982,-21
1711622329443,599616067107482967,-16
1711622329449,599616067115149952,-117
1711622329457,599616067122816937,-185
1711622329465,599616067130483922,-112
1711622329473,599616067138150907,-65
1711622329481,599616067145817892,-117
1711622329489,599616067153484877,-138
1711622329496,599616067161151862,-141
1711622329504,599616067168818847,-162
1711622329512,599616067176485832,-127
1711622329519,599616067184152817,-79
1711622329527,599616067191819802,-94
1711622329535,599616067199486787,-117
1711622329542,599616067207153772,-127
1711622329550,599616067214820757,-143
1711622329558,599616067222487742,-122
1711622329565,599616067230154727,-65
1711622329573,599616067237821712,-32
1711622329581,599616067245488697,-35
1711622329588,599616067253155682,-54
1711622329596,599616067260822667,-9
1711622329604,599616067268489652,209
1711622329611,599616067276156637,517
1711622329619,599616067283823622,517
1711622329627,599616067291490607,-103
1711622329633,599616067299157592,-717
1711622329641,599616067306824577,-573
1711622329649,599616067314491562,-312
1711622329657,599616067322158547,-418
1711622329665,599616067329825532,-397
1711622329673,599616067337492517,-256
1711622329680,599616067345159502,-272
1711622329688,599616067352826487,-296
1711622329696,599616067360493472,-239
1711622329703,599616067368160457,-197
1711622329711,599616067375827442,-159
1711622329719,599616067383494427,-143
1711622329726,599616067391161412,-185
1711622329734,599616067398828397,-199
1711622329742,599616067406495382,-157
1711622329749,599616067414162367,-127
1711622329757,599616067421829352,-96
1711622329765,599616067429496337,-49
1711622329772,599616067437163322,-4
1711622329780,599616067444830307,35
1711622329788,599616067452497292,21
1711622329795,599616067460164277,-51
1711622329803,599616067467831262,-51
1711622329811,599616067475508296,14
1711622329817,599616067483175142,23
1711622329825,599616067490841988,18
1711622329833,599616067498508834,32
1711622329841,599616067506175680,7
1711622329849,599616067513842526,-51
1711622329857,599616067521509372,-152
1711622329864,599616067529176218,-284
1711622329872,599616067536843064,-298
1711622329880,599616067544509910,-251
1711622329887,599616067552176756,-317
1711622329895,599616067559843602,-388
1711622329903,599616067567510448,-341
1711622329910,599616067575177294,-291
1711622329918,599616067582844140,-277
1711622329926,599616067590510986,-223
1711622329933,599616067598177832,-242
1711622329941,599616067605844678,-350
1711622329949,599616067613511524,-357
1711622329956,599616067621178370,-284
1711622329964,599616067628845216,-284
1711622329972,599616067636512062,-315
1711622329979,599616067644178908,-298
1711622329987,599616067651845754,-265
1711622329995,599616067659512600,-244
1711622330001,599616067667179446,-214
1711622330009,599616067674846292,-162
1711622330017,599616067682513138,-94
1711622330025,599616067690179984,-35
1711622330033,599616067697846830,-4
1711622330041,599616067705513676,11
1711622330048,599616067713180522,30
1711622330056,599616067720847368,63
1711622330064,599616067728514214,112
1711622330071,599616067736181060,166
1711622330079,599616067743847906,197
1711622330087,599616067751514752,192
1711622330094,599616067759181598,190
1711622330102,599616067766848444,202
1711622330110,599616067774515290,183
1711622330117,599616067782182136,134
1711622330125,599616067789848982,101
1711622330133,599616067797515828,32
1711622330140,599616067805182674,-54
1711622330148,599616067812849520,-51
1711622330156,599616067820516366,-4
1711622330163,599616067828183212,18
1711622330171,599616067835850058,32
1711622330179,599616067843516904,30
1711622330185,599616067851183750,-25
1711622330193,599616067858850596,-77
1711622330201,599616067866517442,-89
1711622330209,599616067874184288,-134
1711622330217,599616067881851134,-239
1711622330225,599616067889517980,-312
1711622330232,599616067897184826,-331
1711622330240,599616067904851672,-333
1711622330248,599616067912518518,-291
1711622330255,599616067920185364,-150
1711622330263,599616067927852210,143
1711622330271,599616067935519056,508
1711622330278,599616067943185902,653
1711622330286,599616067950852748,277
1711622330294,599616067958519594,-364
1711622330301,599616067966186440,-470
1711622330309,599616067973853286,-124
1711622330317,599616067981520132,-108
1711622330324,599616067989186978,-303
1711622330332,599616067996853824,-310
1711622330340,599616068004520670,-249
1711622330347,599616068012187516,-218
1711622330355,599616068019854362,-218
1711622330363,599616068027521208,-303
1711622330369,599616068035183102,-397
1711622330377,599616068042850017,-385
1711622330385,599616068050516932,-315
1711622330393,599616068058183847,-246
1711622330401,599616068065850762,-169
1711622330409,599616068073517677,-103
1711622330416,599616068081184592,-103
1711622330424,599616068088851507,-166
1711622330432,599616068096518422,-192
1711622330439,599616068104185337,-115
1711622330447,599616068111852252,-23
1711622330455,599616068119519167,0
1711622330462,599616068127186082,-51
1711622330470,599616068134852997,-166
1711622330478,599616068142519912,-254
1711622330485,599616068150186827,-230
1711622330493,599616068157853742,-169
1711622330501,599616068165520657,-162
1711622330508,599616068173187572,-174
1711622330516,599616068180854487,-181
1711622330524,599616068188521402,-190
1711622330531,599616068196188317,-176
1711622330539,599616068203855232,-127
1711622330547,599616068211522147,-89
1711622330553,599616068219189062,-77
1711622330561,599616068226855977,-51
1711622330569,599616068234522892,-23
1711622330577,599616068242189807,-2
1711622330585,599616068249856722,44
1711622330593,599616068257523637,96
1711622330600,599616068265190552,117
1711622330608,599616068272857467,138
1711622330616,599616068280524382,164
1711622330623,599616068288191297,174
1711622330631,599616068295858212,197
1711622330639,599616068303525127,230
1711622330646,599616068311192042,221
1711622330654,599616068318858957,202
1711622330662,599616068326525872,190
1711622330669,599616068334192787,115
1711622330677,599616068341859702,49
1711622330685,599616068349526617,77
1711622330692,599616068357193532,108
1711622330700,599616068364860447,89
1711622330708,599616068372527362,28
1711622330715,599616068380194277,-72
1711622330723,599616068387861192,-112
1711622330731,599616068395528107,-77
1711622330737,599616068403195022,-70
1711622330745,599616068410861937,-70
1711622330753,599616068418528852,-28
1711622330761,599616068426195767,0
1711622330769,599616068433862682,-4
1711622330777,599616068441529597,4
1711622330784,599616068449196512,-9
1711622330792,599616068456863427,-63
1711622330800,599616068464530342,-77
1711622330807,599616068472197257,-79
1711622330815,599616068479864172,-145
1711622330823,599616068487531087,-211
1711622330830,599616068495198002,-239
1711622330838,599616068502864917,-254
1711622330846,599616068510531832,-239
1711622330853,599616068518198747,-211
1711622330861,599616068525865662,-246
1711622330869,599616068533532577,-357
1711622330876,599616068541199492,-404
1711622330884,599616068548866407,-350
1711622330892,599616068556533322,-296
1711622330899,599616068564200237,-263
1711622330907,599616068571867152,-272
1711622330915,599616068579534067,-352
1711622330921,599616068587200982,-399
1711622330929,599616068594877972,-312
1711622330937,599616068602544748,-84
1711622330945,599616068610211524,258
1711622330953,599616068617878300,533
1711622330961,599616068625545076,399
1711622330968,599616068633211852,-225
1711622330976,599616068640878628,-665
1711622330984,599616068648545404,-425
1711622330991,599616068656212180,-178
1711622330999,599616068663878956,-272
1711622331007,599616068671545732,-298
1711622331014,599616068679212508,-251
1711622331022,599616068686879284,-251
1711622331030,599616068694546060,-190
1711622331037,599616068702212836,-94
1711622331045,599616068709879612,-42
1711622331053,599616068717546388,-77
1711622331060,599616068725213164,-204
1711622331068,599616068732879940,-265
1711622331076,599616068740546716,-176
1711622331083,599616068748213492,-87
1711622331091,599616068755880268,-35
1711622331099,599616068763547044,23
1711622331105,599616068771213820,39
1711622331113,599616068778880596,44
1711622331121,599616068786547372,117
1711622331129,599616068794214148,204
1711622331137,599616068801880924,261
1711622331145,599616068809547700,301
1711622331152,599616068817214476,293
1711622331160,599616068824881252,258
1711622331168,599616068832548028,265
1711622331175,599616068840214804,279
1711622331183,599616068847881580,249
1711622331191,599616068855548356,197
1711622331198,599616068863215132,75
1711622331206,599616068870881908,-122
1711622331214,599616068878548684,-206
1711622331221,599616068886215460,-143
1711622331229,599616068893882236,-94
1711622331237,599616068901549012,-79
1711622331244,599616068909215788,-68
1711622331252,599616068916882564,-70
1711622331260,599616068924549340,-61
1711622331267,599616068932216116,-9
1711622331275,599616068939882892,49
1711622331283,599616068947549668,89
1711622331289,599616068955216444,108
1711622331297,599616068962883220,112
1711622331305,599616068970549996,117
1711622331313,599616068978216772,150
1711622331321,599616068985883548,195
1711622331329,599616068993550324,225
1711622331336,599616069001217100,230
1711622331344,599616069008883876,197
1711622331352,599616069016550652,131
1711622331359,599616069024217428,63
1711622331367,599616069031884204,-18
1711622331375,599616069039550980,-145
1711622331382,599616069047217756,-218
1711622331390,599616069054884532,-206
1711622331398,599616069062551308,-270
1711622331405,599616069070218084,-378
1711622331413,599616069077884860,-355
1711622331421,599616069085551636,-293
1711622331428,599616069093218412,-341
1711622331436,599616069100885188,-383
1711622331444,599616069108551964,-399
1711622331451,599616069116218740,-468
1711622331459,599616069123885516,-491
1711622331467,599616069131552292,-442
1711622331473,599616069139219068,-425
1711622331481,599616069146885844,-416
1711622331489,599616069154552658,-383
1711622331497,599616069162219434,-373
1711622331505,599616069169886210,-352
1711622331513,599616069177552986,-296
1711622331520,599616069185219762,-270
1711622331528,599616069192886538,-265
1711622331536,599616069200553314,-275
1711622331543,599616069208220090,-402
1711622331551,599616069215886866,-578
1711622331559,599616069223553642,-587
1711622331566,599616069231220418,-510
1711622331574,599616069238887194,-472
1711622331582,599616069246553970,-420
1711622331589,599616069254220746,-359
1711622331597,599616069261887522,-341
1711622331605,599616069269554298,-312
1711622331612,599616069277221074,-268
1711622331620,599616069284887850,-223
1711622331628,599616069292554626,-164
1711622331635,599616069300221402,-75
1711622331643,599616069307888178,105
1711622331651,599616069315554954,425
1711622331657,599616069323221730,719
1711622331665,599616069330888506,653
1711622331673,599616069338555282,124
1711622331681,599616069346222058,-244
1711622331689,599616069353888834,-44
1711622331697,599616069361555610,68
1711622331704,599616069369222386,-91
1711622331712,599616069376889162,-65
1711622331720,599616069384555938,35
1711622331727,599616069392222714,25
1711622331735,599616069399889490,0
1711622331743,599616069407556266,-68
1711622331750,599616069415223042,-143
1711622331758,599616069422889818,-103
1711622331766,599616069430556594,-16
1711622331773,599616069438223370,32
1711622331781,599616069445890146,82
1711622331789,599616069453556922,108
1711622331796,599616069461223698,98
1711622331804,599616069468890474,127
1711622331812,599616069476557250,204
1711622331819,599616069484224026,272
1711622331827,599616069491890802,331
1711622331835,599616069499557578,364
1711622331841,599616069507224354,348
1711622331849,599616069514891130,343
1711622331857,599616069522557906,385
1711622331865,599616069530224682,402
1711622331873,599616069537891458,315
1711622331881,599616069545558234,159
1711622331888,599616069553225010,49
1711622331896,599616069560891786,2
1711622331904,599616069568558562,-11
1711622331911,599616069576225338,7
1711622331919,599616069583892114,37
1711622331927,599616069591558890,49
1711622331934,599616069599225666,9
1711622331942,599616069606892442,-58
1711622331950,599616069614559218,-68
1711622331957,599616069622225994,-16
1711622331965,599616069629892770,32
1711622331973,599616069637559546,54
1711622331980,599616069645226322,2
1711622331988,599616069652893098,-98
1711622331996,599616069660559874,-131
1711622332003,599616069668226650,-117
1711622332011,599616069675893426,-138
1711622332019,599616069683560202,-138
1711622332025,599616069691226978,-134
1711622332033,599616069698893754,-164
1711622332041,599616069706560530,-164
1711622332049,599616069714227350,-119
1711622332057,599616069721894126,-82
1711622332065,599616069729560902,-79
1711622332072,599616069737227678,-134
1711622332080,599616069744894454,-301
1711622332088,599616069752561230,-472
1711622332095,599616069760228006,-496
1711622332103,599616069767894782,-479
1711622332111,599616069775561558,-522
1711622332118,599616069783228334,-531
1711622332126,599616069790895110,-515
1711622332134,599616069798561886,-519
1711622332141,599616069806228662,-493
1711622332149,599616069813895438,-432
1711622332157,599616069821562214,-395
1711622332164,599616069829228990,-381
1711622332172,599616069836895766,-348
1711622332180,599616069844562542,-322
1711622332187,599616069852229318,-350
1711622332195,599616069859896094,-364
1711622332203,599616069867562870,-317
1711622332209,599616069875229646,-272
1711622332217,599616069882896422,-239
1711622332225,599616069890563198,-211
1711622332233,599616069898229974,-206
1711622332241,599616069905896750,-192
1711622332249,599616069913563526,-178
1711622332256,599616069921230302,-192
1711622332264,599616069928897078,-183
1711622332272,599616069936563854,-181
1711622332279,599616069944230630,-263
1711622332287,599616069951897406,-298
1711622332295,599616069959564182,-232
1711622332302,599616069967230958,-199
1711622332310,599616069974897734,-185
1711622332318,599616069982564510,-129
1711622332325,599616069990231286,-101
1711622332333,599616069997898062,-91
1711622332341,599616070005564838,16
1711622332348,599616070013231614,277
1711622332356,599616070020898390,630
1711622332364,599616070028565166,853
1711622332371,599616070036231942,555
1711622332379,599616070043898718,-178
1711622332387,599616070051565494,-456
1711622332393,599616070059232270,-143
1711622332401,599616070066899046,-63
1711622332409,599616070074565822,-152
1711622332417,599616070082232598,-30
1711622332425,599616070089899374,23
1711622332433,599616070097566150,-94
1711622332440,599616070105232926,-136
1711622332448,599616070112899702,-68
1711622332456,599616070120566478,-11
1711622332463,599616070128233254,4
1711622332471,599616070135900030,-47
1711622332479,599616070143566806,-134
1711622332486,599616070151233582,-129
1711622332494,599616070158900358,-56
1711622332502,599616070166567134,4
1711622332509,599616070174233910,70
1711622332517,599616070181900686,127
1711622332525,599616070189567462,148
1711622332532,599616070197234238,166
1711622332540,599616070204901014,218
1711622332548,599616070212567790,279
1711622332555,599616070220234566,329
1711622332563,599616070227901342,355
1711622332571,599616070235568118,338
1711622332577,599616070243234894,298
1711622332585,599616070250901670,279
1711622332593,599616070258568446,282
1711622332601,599616070266235222,272
1711622332609,599616070273902038,223
1711622332617,599616070281568814,98
1711622332624,599616070289235590,-44
1711622332632,599616070296902366,-63
1711622332640,599616070304569142,0
1711622332647,599616070312235918,23
1711622332655,599616070319902694,7
1711622332663,599616070327569470,-49
1711622332670,599616070335236246,-141
1711622332678,599616070342903022,-216
1711622332686,599616070350569798,-235
1711622332693,599616070358236574,-197
1711622332701,599616070365903350,-152
1711622332709,599616070373570126,-164
1711622332716,599616070381236902,-254
1711622332724,599616070388903678,-310
1711622332732,599616070396570454,-284
1711622332739,599616070404237230,-286
1711622332747,599616070411904006,-315
1711622332755,599616070419570782,-338
1711622332761,599616070427237558,-413
1711622332769,599616070434904334,-463
1711622332777,599616070442571110,-430
1711622332785,599616070450237886,-409
1711622332793,599616070457904662,-399
1711622332801,599616070465571438,-371
1711622332808,599616070473238214,-413
1711622332816,599616070480904990,-517
1711622332824,599616070488571766,-515
1711622332831,599616070496238542,-432
1711622332839,599616070503905318,-381
1711622332847,599616070511572094,-345
1711622332854,599616070519238870,-319
1711622332862,599616070526905646,-322
1711622332870,599616070534572422,-331
1711622332877,599616070542239198,-378
1711622332885,599616070549905974,-439
1711622332893,599616070557572750,-413
1711622332900,599616070565239526,-348
1711622332908,599616070572906302,-336
1711622332916,599616070580573078,-343
1711622332923,599616070588239854,-359
1711622332931,599616070595906630,-385
1711622332939,599616070603573406,-362
1711622332945,599616070611240182,-315
1711622332953,599616070618906958,-303
1711622332961,599616070626573734,-303
1711622332969,599616070634240510,-270
1711622332977,599616070641907286,-206
1711622332985,599616070649574062,-152
1711622332992,599616070657240838,-124
1711622333000,599616070664907614,-112
1711622333008,599616070672574390,-159
1711622333015,599616070680241166,-199
1711622333023,599616070687907942,-37
1711622333031,599616070695574718,331
1711622333038,599616070703241494,705
1711622333046,599616070710908270,827
1711622333054,599616070718575046,385
1711622333061,599616070726241822,-291
1711622333069,599616070733908598,-265
1711622333077,599616070741575374,134
1711622333084,599616070749242150,77
1711622333092,599616070756908926,-14
1711622333100,599616070764575702,145
1711622333107,599616070772242478,174
1711622333115,599616070779909254,131
1711622333123,599616070787576030,199
