value,timestamp
-0.0,1710811943000000
-0.0,1710811943015625
-0.0,1710811943031250
-0.0,1710811943046875
-0.0,1710811943062500
-0.0,1710811943078125
-0.0,1710811943093750
-0.0,1710811943109375
-0.0,1710811943125000
-0.0,1710811943140625
0.0,1710811943156250
0.01,1710811943171875
0.01,1710811943187500
-0.0,1710811943203125
-0.03,1710811943218750
-0.05,1710811943234375
-0.05,1710811943250000
0.0,1710811943265625
0.13,1710811943281250
0.36,1710811943296875
0.66,1710811943312500
1.01,1710811943328125
1.37,1710811943343750
1.72,1710811943359375
2.06,1710811943375000
2.4,1710811943390625
2.79,1710811943406250
3.24,1710811943421875
3.8,1710811943437500
4.42,1710811943453125
5.06,1710811943468750
5.66,1710811943484375
6.2,1710811943500000
6.68,1710811943515625
7.15,1710811943531250
7.68,1710811943546875
8.31,1710811943562500
9.14,1710811943578125
10.09,1710811943593750
11.04,1710811943609375
11.88,1710811943625000
12.56,1710811943640625
13.14,1710811943656250
13.76,1710811943671875
14.65,1710811943687500
15.96,1710811943703125
17.91,1710811943718750
20.32,1710811943734375
22.9,1710811943750000
25.38,1710811943765625
27.58,1710811943781250
29.57,1710811943796875
31.68,1710811943812500
34.32,1710811943828125
37.81,1710811943843750
42.54,1710811943859375
48.15,1710811943875000
54.1,1710811943890625
59.83,1710811943906250
64.97,1710811943921875
69.58,1710811943937500
74.14,1710811943953125
79.34,1710811943968750
85.71,1710811943984375
93.76,1710811944000000
103.0,1710811944015625
112.62,1710811944031250
121.73,1710811944046875
129.77,1710811944062500
136.75,1710811944078125
143.3,1710811944093750
150.75,1710811944109375
157.77,1710811944125000
166.64,1710811944140625
177.95,1710811944156250
191.79,1710811944171875
206.97,1710811944187500
220.57,1710811944203125
228.25,1710811944218750
225.36,1710811944234375
208.53,1710811944250000
176.87,1710811944265625
132.76,1710811944281250
80.05,1710811944296875
23.07,1710811944312500
-34.94,1710811944328125
-92.44,1710811944343750
-149.16,1710811944359375
-205.23,1710811944375000
-260.37,1710811944390625
-313.74,1710811944406250
-363.87,1710811944421875
-409.83,1710811944437500
-450.91,1710811944453125
-486.5,1710811944468750
-515.74,1710811944484375
-537.23,1710811944500000
-549.22,1710811944515625
-549.96,1710811944531250
-538.37,1710811944546875
-514.21,1710811944562500
-478.67,1710811944578125
-433.88,1710811944593750
-382.45,1710811944609375
-327.02,1710811944625000
-269.84,1710811944640625
-212.63,1710811944656250
-156.66,1710811944671875
-102.95,1710811944687500
-52.37,1710811944703125
-5.9,1710811944718750
35.58,1710811944734375
71.43,1710811944750000
101.35,1710811944765625
125.5,1710811944781250
144.38,1710811944796875
158.69,1710811944812500
169.15,1710811944828125
176.37,1710811944843750
180.75,1710811944859375
182.57,1710811944875000
182.07,1710811944890625
179.51,1710811944906250
175.23,1710811944921875
169.65,1710811944937500
163.18,1710811944953125
156.15,1710811944968750
148.81,1710811944984375
141.3,1710811945000000
133.69,1710811945015625
126.02,1710811945031250
118.33,1710811945046875
110.69,1710811945062500
103.16,1710811945078125
95.8,1710811945093750
88.68,1710811945109375
81.83,1710811945125000
75.25,1710811945140625
68.95,1710811945156250
62.95,1710811945171875
57.25,1710811945187500
51.86,1710811945203125
46.78,1710811945218750
42.03,1710811945234375
37.59,1710811945250000
33.45,1710811945265625
29.61,1710811945281250
26.07,1710811945296875
22.81,1710811945312500
19.83,1710811945328125
17.11,1710811945343750
14.67,1710811945359375
12.48,1710811945375000
10.54,1710811945390625
8.83,1710811945406250
7.35,1710811945421875
6.07,1710811945437500
4.97,1710811945453125
4.05,1710811945468750
3.27,1710811945484375
2.62,1710811945500000
2.09,1710811945515625
1.65,1710811945531250
1.3,1710811945546875
1.01,1710811945562500
0.79,1710811945578125
0.61,1710811945593750
0.47,1710811945609375
0.37,1710811945625000
0.29,1710811945640625
0.23,1710811945656250
0.19,1710811945671875
0.17,1710811945687500
0.15,1710811945703125
0.15,1710811945718750
0.16,1710811945734375
0.18,1710811945750000
0.2,1710811945765625
0.23,1710811945781250
0.26,1710811945796875
0.3,1710811945812500
0.34,1710811945828125
0.39,1710811945843750
0.43,1710811945859375
0.48,1710811945875000
0.52,1710811945890625
0.57,1710811945906250
0.62,1710811945921875
0.68,1710811945937500
0.74,1710811945953125
0.8,1710811945968750
0.87,1710811945984375
0.94,1710811946000000
1.03,1710811946015625
1.12,1710811946031250
1.22,1710811946046875
1.33,1710811946062500
1.46,1710811946078125
1.6,1710811946093750
1.76,1710811946109375
1.94,1710811946125000
2.14,1710811946140625
2.36,1710811946156250
2.6,1710811946171875
2.87,1710811946187500
3.17,1710811946203125
3.5,1710811946218750
3.85,1710811946234375
4.24,1710811946250000
4.66,1710811946265625
5.13,1710811946281250
5.64,1710811946296875
6.2,1710811946312500
6.79,1710811946328125
7.41,1710811946343750
8.03,1710811946359375
8.65,1710811946375000
9.29,1710811946390625
9.97,1710811946406250
10.71,1710811946421875
11.54,1710811946437500
12.44,1710811946453125
13.41,1710811946468750
14.42,1710811946484375
15.45,1710811946500000
16.5,1710811946515625
17.58,1710811946531250
18.71,1710811946546875
19.89,1710811946562500
21.09,1710811946578125
22.22,1710811946593750
23.14,1710811946609375
23.67,1710811946625000
23.64,1710811946640625
22.91,1710811946656250
21.43,1710811946671875
19.21,1710811946687500
16.36,1710811946703125
12.96,1710811946718750
9.05,1710811946734375
4.7,1710811946750000
-0.04,1710811946765625
-5.08,1710811946781250
-10.23,1710811946796875
-15.19,1710811946812500
-19.6,1710811946828125
-23.12,1710811946843750
-25.56,1710811946859375
-26.98,1710811946875000
-27.66,1710811946890625
-28.03,1710811946906250
-28.46,1710811946921875
-29.13,1710811946937500
-29.97,1710811946953125
-30.66,1710811946968750
-30.85,1710811946984375
-30.36,1710811947000000
-29.32,1710811947015625
-28.15,1710811947031250
-27.44,1710811947046875
-27.66,1710811947062500
-28.89,1710811947078125
-30.79,1710811947093750
-32.68,1710811947109375
-33.96,1710811947125000
-34.28,1710811947140625
-33.76,1710811947156250
-32.95,1710811947171875
-32.5,1710811947187500
-32.97,1710811947203125
-34.68,1710811947218750
-37.77,1710811947234375
-42.13,1710811947250000
-47.24,1710811947265625
-51.93,1710811947281250
-54.37,1710811947296875
-52.51,1710811947312500
-45.06,1710811947328125
-32.27,1710811947343750
-16.1,1710811947359375
0.42,1710811947375000
14.5,1710811947390625
24.78,1710811947406250
31.61,1710811947421875
36.5,1710811947437500
40.92,1710811947453125
45.3,1710811947468750
48.95,1710811947484375
50.66,1710811947500000
49.7,1710811947515625
46.34,1710811947531250
41.72,1710811947546875
37.13,1710811947562500
33.42,1710811947578125
30.58,1710811947593750
28.05,1710811947609375
25.1,1710811947625000
21.33,1710811947640625
16.89,1710811947656250
12.39,1710811947671875
8.54,1710811947687500
5.91,1710811947703125
4.63,1710811947718750
4.49,1710811947734375
4.97,1710811947750000
5.39,1710811947765625
5.21,1710811947781250
4.22,1710811947796875
2.57,1710811947812500
0.71,1710811947828125
-0.91,1710811947843750
-2.04,1710811947859375
-2.78,1710811947875000
-3.45,1710811947890625
-4.43,1710811947906250
-5.87,1710811947921875
-7.61,1710811947937500
-9.24,1710811947953125
-10.34,1710811947968750
-10.66,1710811947984375
-10.28,1710811948000000
-9.57,1710811948015625
-9.14,1710811948031250
-9.63,1710811948046875
-11.53,1710811948062500
-14.99,1710811948078125
-19.68,1710811948093750
-24.75,1710811948109375
-28.88,1710811948125000
-30.69,1710811948140625
-29.12,1710811948156250
-23.81,1710811948171875
-15.29,1710811948187500
-4.84,1710811948203125
6.0,1710811948218750
15.8,1710811948234375
23.65,1710811948250000
29.22,1710811948265625
32.55,1710811948281250
33.9,1710811948296875
33.6,1710811948312500
31.91,1710811948328125
29.13,1710811948343750
25.63,1710811948359375
21.84,1710811948375000
18.26,1710811948390625
15.34,1710811948406250
13.51,1710811948421875
13.04,1710811948437500
13.92,1710811948453125
15.84,1710811948468750
18.13,1710811948484375
19.93,1710811948500000
20.5,1710811948515625
19.44,1710811948531250
16.84,1710811948546875
13.19,1710811948562500
9.15,1710811948578125
5.28,1710811948593750
1.83,1710811948609375
-1.3,1710811948625000
-4.38,1710811948640625
-7.73,1710811948656250
-11.44,1710811948671875
-15.35,1710811948687500
-19.08,1710811948703125
-22.21,1710811948718750
-24.51,1710811948734375
-25.99,1710811948750000
-27.01,1710811948765625
-28.06,1710811948781250
-29.64,1710811948796875
-32.08,1710811948812500
-35.37,1710811948828125
-39.15,1710811948843750
-42.67,1710811948859375
-45.0,1710811948875000
-45.18,1710811948890625
-42.63,1710811948906250
-37.26,1710811948921875
-29.62,1710811948937500
-20.77,1710811948953125
-11.87,1710811948968750
-3.99,1710811948984375
2.17,1710811949000000
6.23,1710811949015625
8.07,1710811949031250
7.67,1710811949046875
5.19,1710811949062500
0.96,1710811949078125
-4.43,1710811949093750
-10.18,1710811949109375
-15.53,1710811949125000
-19.88,1710811949140625
-23.02,1710811949156250
-25.0,1710811949171875
-26.14,1710811949187500
-26.8,1710811949203125
-27.35,1710811949218750
-28.13,1710811949234375
-29.4,1710811949250000
-31.34,1710811949265625
-33.94,1710811949281250
-36.97,1710811949296875
-40.01,1710811949312500
-42.57,1710811949328125
-44.23,1710811949343750
-44.69,1710811949359375
-43.72,1710811949375000
-41.13,1710811949390625
-36.76,1710811949406250
-30.49,1710811949421875
-22.4,1710811949437500
-12.78,1710811949453125
-2.16,1710811949468750
8.84,1710811949484375
19.55,1710811949500000
29.37,1710811949515625
37.68,1710811949531250
43.9,1710811949546875
47.51,1710811949562500
48.25,1710811949578125
46.4,1710811949593750
42.83,1710811949609375
38.97,1710811949625000
36.33,1710811949640625
36.11,1710811949656250
38.73,1710811949671875
43.77,1710811949687500
50.17,1710811949703125
56.63,1710811949718750
62.03,1710811949734375
65.71,1710811949750000
67.46,1710811949765625
67.38,1710811949781250
65.64,1710811949796875
62.46,1710811949812500
58.07,1710811949828125
52.83,1710811949843750
47.24,1710811949859375
41.88,1710811949875000
37.26,1710811949890625
33.68,1710811949906250
31.17,1710811949921875
29.52,1710811949937500
28.42,1710811949953125
27.52,1710811949968750
26.57,1710811949984375
25.39,1710811950000000
23.91,1710811950015625
22.15,1710811950031250
20.19,1710811950046875
18.18,1710811950062500
16.17,1710811950078125
14.1,1710811950093750
11.77,1710811950109375
8.93,1710811950125000
5.45,1710811950140625
1.44,1710811950156250
-2.77,1710811950171875
-6.76,1710811950187500
-10.17,1710811950203125
-12.89,1710811950218750
-15.0,1710811950234375
-16.81,1710811950250000
-18.65,1710811950265625
-20.88,1710811950281250
-23.73,1710811950296875
-27.24,1710811950312500
-31.18,1710811950328125
-34.94,1710811950343750
-37.64,1710811950359375
-38.29,1710811950375000
-36.15,1710811950390625
-30.99,1710811950406250
-23.17,1710811950421875
-13.63,1710811950437500
-3.57,1710811950453125
5.78,1710811950468750
13.53,1710811950484375
19.11,1710811950500000
22.45,1710811950515625
23.72,1710811950531250
23.3,1710811950546875
21.63,1710811950562500
19.13,1710811950578125
16.23,1710811950593750
13.34,1710811950609375
10.89,1710811950625000
9.15,1710811950640625
8.27,1710811950656250
8.17,1710811950671875
8.56,1710811950687500
9.16,1710811950703125
9.65,1710811950718750
9.9,1710811950734375
9.81,1710811950750000
9.41,1710811950765625
8.62,1710811950781250
7.35,1710811950796875
5.46,1710811950812500
2.89,1710811950828125
-0.27,1710811950843750
-3.85,1710811950859375
-7.55,1710811950875000
-11.1,1710811950890625
-14.27,1710811950906250
-16.97,1710811950921875
-19.19,1710811950937500
-21.01,1710811950953125
-22.58,1710811950968750
-24.1,1710811950984375
-25.91,1710811951000000
-28.3,1710811951015625
-31.39,1710811951031250
-34.86,1710811951046875
-37.88,1710811951062500
-39.24,1710811951078125
-37.81,1710811951093750
-33.02,1710811951109375
-25.12,1710811951125000
-15.19,1710811951140625
-4.67,1710811951156250
5.11,1710811951171875
13.26,1710811951187500
19.43,1710811951203125
23.66,1710811951218750
26.14,1710811951234375
27.04,1710811951250000
26.48,1710811951265625
24.6,1710811951281250
21.68,1710811951296875
18.17,1710811951312500
14.63,1710811951328125
11.58,1710811951343750
9.44,1710811951359375
8.33,1710811951375000
8.15,1710811951390625
8.62,1710811951406250
9.36,1710811951421875
10.04,1710811951437500
10.41,1710811951453125
10.36,1710811951468750
9.85,1710811951484375
8.95,1710811951500000
7.75,1710811951515625
6.34,1710811951531250
4.84,1710811951546875
3.23,1710811951562500
1.47,1710811951578125
-0.51,1710811951593750
-2.72,1710811951609375
-5.12,1710811951625000
-7.55,1710811951640625
-9.89,1710811951656250
-12.09,1710811951671875
-14.15,1710811951687500
-16.21,1710811951703125
-18.47,1710811951718750
-21.19,1710811951734375
-24.57,1710811951750000
-28.57,1710811951765625
-32.73,1710811951781250
-36.13,1710811951796875
-37.63,1710811951812500
-36.27,1710811951828125
-31.69,1710811951843750
-24.35,1710811951859375
-15.36,1710811951875000
-6.04,1710811951890625
2.52,1710811951906250
9.76,1710811951921875
15.59,1710811951937500
20.09,1710811951953125
23.3,1710811951968750
25.06,1710811951984375
25.18,1710811952000000
23.65,1710811952015625
20.81,1710811952031250
17.31,1710811952046875
13.88,1710811952062500
11.19,1710811952078125
9.59,1710811952093750
9.17,1710811952109375
9.74,1710811952125000
10.96,1710811952140625
12.47,1710811952156250
13.99,1710811952171875
15.39,1710811952187500
16.6,1710811952203125
17.57,1710811952218750
18.18,1710811952234375
18.2,1710811952250000
17.38,1710811952265625
15.53,1710811952281250
12.71,1710811952296875
9.26,1710811952312500
5.69,1710811952328125
2.56,1710811952343750
0.29,1710811952359375
-0.98,1710811952375000
-1.41,1710811952390625
-1.34,1710811952406250
-1.26,1710811952421875
-1.65,1710811952437500
-2.89,1710811952453125
-5.17,1710811952468750
-8.33,1710811952484375
-11.86,1710811952500000
-14.9,1710811952515625
-16.34,1710811952531250
-15.21,1710811952546875
-10.87,1710811952562500
-3.32,1710811952578125
6.82,1710811952593750
18.42,1710811952609375
30.24,1710811952625000
41.23,1710811952640625
50.64,1710811952656250
58.07,1710811952671875
63.27,1710811952687500
65.96,1710811952703125
65.8,1710811952718750
62.48,1710811952734375
55.94,1710811952750000
46.41,1710811952765625
34.48,1710811952781250
20.88,1710811952796875
6.35,1710811952812500
-8.45,1710811952828125
-23.03,1710811952843750
-36.9,1710811952859375
-49.64,1710811952875000
-60.86,1710811952890625
-70.33,1710811952906250
-77.92,1710811952921875
-83.74,1710811952937500
-87.91,1710811952953125
-90.55,1710811952968750
-91.68,1710811952984375
-91.29,1710811953000000
-89.5,1710811953015625
-86.6,1710811953031250
-83.11,1710811953046875
-79.61,1710811953062500
-76.58,1710811953078125
-74.26,1710811953093750
-72.73,1710811953109375
-71.99,1710811953125000
-72.14,1710811953140625
-73.48,1710811953156250
-76.5,1710811953171875
-81.65,1710811953187500
-89.03,1710811953203125
-98.08,1710811953218750
-107.37,1710811953234375
-114.86,1710811953250000
-118.37,1710811953265625
-116.29,1710811953281250
-108.23,1710811953296875
-95.09,1710811953312500
-78.76,1710811953328125
-61.42,1710811953343750
-44.78,1710811953359375
-29.7,1710811953375000
-16.27,1710811953390625
-4.12,1710811953406250
7.18,1710811953421875
17.86,1710811953437500
28.01,1710811953453125
37.67,1710811953468750
46.99,1710811953484375
56.13,1710811953500000
65.25,1710811953515625
74.36,1710811953531250
83.25,1710811953546875
91.54,1710811953562500
98.71,1710811953578125
104.29,1710811953593750
107.88,1710811953609375
109.25,1710811953625000
108.42,1710811953640625
105.65,1710811953656250
101.39,1710811953671875
96.15,1710811953687500
90.41,1710811953703125
84.36,1710811953718750
78.02,1710811953734375
71.2,1710811953750000
63.75,1710811953765625
55.68,1710811953781250
47.22,1710811953796875
38.79,1710811953812500
30.7,1710811953828125
23.14,1710811953843750
16.06,1710811953859375
9.39,1710811953875000
3.16,1710811953890625
-2.44,1710811953906250
-7.17,1710811953921875
-10.76,1710811953937500
-12.99,1710811953953125
-13.74,1710811953968750
-12.8,1710811953984375
-10.04,1710811954000000
-5.53,1710811954015625
0.36,1710811954031250
6.97,1710811954046875
13.54,1710811954062500
19.46,1710811954078125
24.43,1710811954093750
28.43,1710811954109375
31.52,1710811954125000
33.68,1710811954140625
34.79,1710811954156250
34.81,1710811954171875
33.81,1710811954187500
32.09,1710811954203125
29.97,1710811954218750
27.67,1710811954234375
25.15,1710811954250000
22.33,1710811954265625
19.17,1710811954281250
15.9,1710811954296875
13.01,1710811954312500
11.03,1710811954328125
10.23,1710811954343750
10.55,1710811954359375
11.53,1710811954375000
12.53,1710811954390625
12.93,1710811954406250
12.34,1710811954421875
10.69,1710811954437500
8.21,1710811954453125
5.33,1710811954468750
2.51,1710811954484375
0.11,1710811954500000
-1.71,1710811954515625
-3.07,1710811954531250
-4.19,1710811954546875
-5.38,1710811954562500
-6.89,1710811954578125
-8.89,1710811954593750
-11.43,1710811954609375
-14.45,1710811954625000
-17.71,1710811954640625
-20.79,1710811954656250
-23.11,1710811954671875
-24.02,1710811954687500
-23.04,1710811954703125
-20.08,1710811954718750
-15.38,1710811954734375
-9.59,1710811954750000
-3.5,1710811954765625
2.17,1710811954781250
6.91,1710811954796875
10.38,1710811954812500
12.44,1710811954828125
13.05,1710811954843750
12.29,1710811954859375
10.33,1710811954875000
7.47,1710811954890625
4.11,1710811954906250
0.72,1710811954921875
-2.29,1710811954937500
-4.64,1710811954953125
-6.19,1710811954968750
-7.0,1710811954984375
-7.16,1710811955000000
-6.8,1710811955015625
-6.01,1710811955031250
-4.95,1710811955046875
-3.88,1710811955062500
-3.12,1710811955078125
-3.0,1710811955093750
-3.69,1710811955109375
-5.09,1710811955125000
-6.89,1710811955140625
-8.6,1710811955156250
-9.81,1710811955171875
-10.23,1710811955187500
-9.88,1710811955203125
-9.02,1710811955218750
-8.15,1710811955234375
-7.82,1710811955250000
-8.49,1710811955265625
-10.41,1710811955281250
-13.52,1710811955296875
-17.42,1710811955312500
-21.43,1710811955328125
-24.72,1710811955343750
-26.54,1710811955359375
-26.31,1710811955375000
-23.75,1710811955390625
-19.04,1710811955406250
-12.7,1710811955421875
-5.54,1710811955437500
1.53,1710811955453125
7.72,1710811955468750
12.58,1710811955484375
16.02,1710811955500000
18.19,1710811955515625
19.42,1710811955531250
19.97,1710811955546875
19.98,1710811955562500
19.47,1710811955578125
18.4,1710811955593750
16.8,1710811955609375
14.77,1710811955625000
12.6,1710811955640625
10.63,1710811955656250
9.17,1710811955671875
8.37,1710811955687500
8.19,1710811955703125
8.47,1710811955718750
8.94,1710811955734375
9.38,1710811955750000
9.6,1710811955765625
9.45,1710811955781250
8.78,1710811955796875
7.49,1710811955812500
5.58,1710811955828125
3.18,1710811955843750
0.6,1710811955859375
-1.84,1710811955875000
-3.84,1710811955890625
-5.37,1710811955906250
-6.57,1710811955921875
-7.79,1710811955937500
-9.4,1710811955953125
-11.73,1710811955968750
-14.85,1710811955984375
-18.52,1710811956000000
-22.11,1710811956015625
-24.69,1710811956031250
-25.33,1710811956046875
-23.36,1710811956062500
-18.7,1710811956078125
-11.95,1710811956093750
-4.14,1710811956109375
3.6,1710811956125000
10.43,1710811956140625
16.01,1710811956156250
20.4,1710811956171875
23.81,1710811956187500
26.41,1710811956203125
28.25,1710811956218750
29.26,1710811956234375
29.53,1710811956250000
29.23,1710811956265625
28.69,1710811956281250
28.18,1710811956296875
27.86,1710811956312500
27.78,1710811956328125
27.92,1710811956343750
28.29,1710811956359375
28.92,1710811956375000
29.83,1710811956390625
30.94,1710811956406250
32.1,1710811956421875
33.09,1710811956437500
33.71,1710811956453125
33.87,1710811956468750
33.59,1710811956484375
32.9,1710811956500000
31.74,1710811956515625
29.96,1710811956531250
27.22,1710811956546875
23.18,1710811956562500
17.63,1710811956578125
10.57,1710811956593750
2.26,1710811956609375
-6.84,1710811956625000
-16.26,1710811956640625
-25.67,1710811956656250
-34.84,1710811956671875
-43.59,1710811956687500
-51.58,1710811956703125
-58.33,1710811956718750
-63.23,1710811956734375
-65.8,1710811956750000
-65.85,1710811956765625
-63.57,1710811956781250
-59.45,1710811956796875
-54.03,1710811956812500
-47.88,1710811956828125
-41.4,1710811956843750
-34.95,1710811956859375
-28.83,1710811956875000
-23.34,1710811956890625
-18.78,1710811956906250
-15.39,1710811956921875
-13.36,1710811956937500
-12.72,1710811956953125
-13.33,1710811956968750
-14.81,1710811956984375
-16.53,1710811957000000
-17.83,1710811957015625
-18.14,1710811957031250
-17.31,1710811957046875
-15.57,1710811957062500
-13.42,1710811957078125
-11.33,1710811957093750
-9.55,1710811957109375
-7.99,1710811957125000
-6.44,1710811957140625
-4.7,1710811957156250
-2.72,1710811957171875
-0.59,1710811957187500
1.51,1710811957203125
3.43,1710811957218750
5.09,1710811957234375
6.44,1710811957250000
7.47,1710811957265625
8.16,1710811957281250
8.47,1710811957296875
8.33,1710811957312500
7.6,1710811957328125
6.2,1710811957343750
4.15,1710811957359375
1.75,1710811957375000
-0.54,1710811957390625
-2.13,1710811957406250
-2.56,1710811957421875
-1.71,1710811957437500
0.21,1710811957453125
2.73,1710811957468750
5.38,1710811957484375
7.76,1710811957500000
9.69,1710811957515625
11.06,1710811957531250
11.79,1710811957546875
11.82,1710811957562500
11.05,1710811957578125
9.51,1710811957593750
7.3,1710811957609375
4.72,1710811957625000
2.14,1710811957640625
-0.03,1710811957656250
-1.43,1710811957671875
-1.87,1710811957687500
-1.36,1710811957703125
-0.15,1710811957718750
1.42,1710811957734375
3.01,1710811957750000
4.4,1710811957765625
5.44,1710811957781250
6.13,1710811957796875
6.44,1710811957812500
6.4,1710811957828125
6.05,1710811957843750
5.4,1710811957859375
4.45,1710811957875000
3.14,1710811957890625
1.38,1710811957906250
-0.9,1710811957921875
-3.78,1710811957937500
-7.33,1710811957953125
-11.59,1710811957968750
-16.53,1710811957984375
-21.97,1710811958000000
-27.43,1710811958015625
-32.14,1710811958031250
-35.15,1710811958046875
-35.57,1710811958062500
-32.9,1710811958078125
-27.14,1710811958093750
-18.87,1710811958109375
-9.05,1710811958125000
1.19,1710811958140625
10.74,1710811958156250
18.61,1710811958171875
24.11,1710811958187500
26.88,1710811958203125
26.98,1710811958218750
24.87,1710811958234375
21.24,1710811958250000
16.83,1710811958265625
12.24,1710811958281250
7.93,1710811958296875
4.22,1710811958312500
1.27,1710811958328125
-0.79,1710811958343750
-2.02,1710811958359375
-2.62,1710811958375000
-2.9,1710811958390625
-3.22,1710811958406250
-3.85,1710811958421875
-4.9,1710811958437500
-6.34,1710811958453125
-8.02,1710811958468750
-9.71,1710811958484375
-11.26,1710811958500000
-12.54,1710811958515625
-13.55,1710811958531250
-14.36,1710811958546875
-15.14,1710811958562500
-16.1,1710811958578125
-17.44,1710811958593750
-19.29,1710811958609375
-21.57,1710811958625000
-23.92,1710811958640625
-25.67,1710811958656250
-26.04,1710811958671875
-24.31,1710811958687500
-20.17,1710811958703125
-13.84,1710811958718750
-6.02,1710811958734375
2.33,1710811958750000
10.29,1710811958765625
17.16,1710811958781250
22.55,1710811958796875
26.26,1710811958812500
28.22,1710811958828125
28.38,1710811958843750
26.75,1710811958859375
23.56,1710811958875000
19.22,1710811958890625
14.4,1710811958906250
9.78,1710811958921875
6.0,1710811958937500
3.42,1710811958953125
2.17,1710811958968750
2.07,1710811958984375
2.79,1710811959000000
3.94,1710811959015625
5.16,1710811959031250
6.18,1710811959046875
6.84,1710811959062500
7.05,1710811959078125
6.72,1710811959093750
5.84,1710811959109375
4.43,1710811959125000
2.59,1710811959140625
0.49,1710811959156250
-1.72,1710811959171875
-3.89,1710811959187500
-6.02,1710811959203125
-8.19,1710811959218750
-10.61,1710811959234375
-13.5,1710811959250000
-16.97,1710811959265625
-20.86,1710811959281250
-24.66,1710811959296875
-27.54,1710811959312500
-28.55,1710811959328125
-26.93,1710811959343750
-22.47,1710811959359375
-15.57,1710811959375000
-7.18,1710811959390625
1.5,1710811959406250
9.43,1710811959421875
15.91,1710811959437500
20.63,1710811959453125
23.57,1710811959468750
24.85,1710811959484375
24.64,1710811959500000
23.14,1710811959515625
20.65,1710811959531250
17.57,1710811959546875
14.38,1710811959562500
11.54,1710811959578125
9.4,1710811959593750
8.1,1710811959609375
7.56,1710811959625000
7.52,1710811959640625
7.63,1710811959656250
7.66,1710811959671875
7.52,1710811959687500
7.32,1710811959703125
7.23,1710811959718750
7.26,1710811959734375
7.17,1710811959750000
6.55,1710811959765625
5.04,1710811959781250
2.5,1710811959796875
-0.82,1710811959812500
-4.41,1710811959828125
-7.71,1710811959843750
-10.38,1710811959859375
-12.48,1710811959875000
-14.41,1710811959890625
-16.74,1710811959906250
-19.89,1710811959921875
-23.88,1710811959937500
-28.21,1710811959953125
-31.98,1710811959968750
-34.16,1710811959984375
-33.98,1710811960000000
-31.16,1710811960015625
-25.96,1710811960031250
-19.06,1710811960046875
-11.26,1710811960062500
-3.32,1710811960078125
4.13,1710811960093750
10.57,1710811960109375
15.5,1710811960125000
18.52,1710811960140625
19.37,1710811960156250
18.11,1710811960171875
15.21,1710811960187500
11.43,1710811960203125
7.65,1710811960218750
4.55,1710811960234375
2.49,1710811960250000
1.4,1710811960265625
0.93,1710811960281250
0.7,1710811960296875
0.48,1710811960312500
0.25,1710811960328125
0.25,1710811960343750
0.73,1710811960359375
1.81,1710811960375000
3.33,1710811960390625
4.79,1710811960406250
5.6,1710811960421875
5.19,1710811960437500
3.38,1710811960453125
0.4,1710811960468750
-3.08,1710811960484375
-6.27,1710811960500000
-8.64,1710811960515625
-10.03,1710811960531250
-10.77,1710811960546875
-11.38,1710811960562500
-12.4,1710811960578125
-14.15,1710811960593750
-16.66,1710811960609375
-19.73,1710811960625000
-22.91,1710811960640625
-25.57,1710811960656250
-26.9,1710811960671875
-26.11,1710811960687500
-22.75,1710811960703125
-16.95,1710811960718750
-9.48,1710811960734375
-1.47,1710811960750000
5.98,1710811960765625
12.22,1710811960781250
17.07,1710811960796875
20.69,1710811960812500
23.22,1710811960828125
24.79,1710811960843750
25.56,1710811960859375
25.84,1710811960875000
26.17,1710811960890625
27.07,1710811960906250
28.82,1710811960921875
31.29,1710811960937500
34.01,1710811960953125
36.42,1710811960968750
38.18,1710811960984375
39.26,1710811961000000
39.91,1710811961015625
40.51,1710811961031250
41.37,1710811961046875
42.69,1710811961062500
44.49,1710811961078125
46.67,1710811961093750
48.95,1710811961109375
51.0,1710811961125000
52.5,1710811961140625
53.4,1710811961156250
53.93,1710811961171875
54.53,1710811961187500
55.64,1710811961203125
57.37,1710811961218750
59.4,1710811961234375
61.14,1710811961250000
62.03,1710811961265625
61.76,1710811961281250
60.43,1710811961296875
58.37,1710811961312500
55.85,1710811961328125
53.01,1710811961343750
49.82,1710811961359375
46.37,1710811961375000
43.01,1710811961390625
40.27,1710811961406250
38.65,1710811961421875
38.23,1710811961437500
38.63,1710811961453125
39.04,1710811961468750
38.69,1710811961484375
37.1,1710811961500000
34.19,1710811961515625
30.14,1710811961531250
25.15,1710811961546875
19.26,1710811961562500
12.41,1710811961578125
4.64,1710811961593750
-3.72,1710811961609375
-12.08,1710811961625000
-19.74,1710811961640625
-26.14,1710811961656250
-31.08,1710811961671875
-34.69,1710811961687500
-37.33,1710811961703125
-39.39,1710811961718750
-41.18,1710811961734375
-42.89,1710811961750000
-44.66,1710811961765625
-46.6,1710811961781250
-48.76,1710811961796875
-51.07,1710811961812500
-53.35,1710811961828125
-55.33,1710811961843750
-56.88,1710811961859375
-57.99,1710811961875000
-58.9,1710811961890625
-59.85,1710811961906250
-61.03,1710811961921875
-62.48,1710811961937500
-64.14,1710811961953125
-65.96,1710811961968750
-67.96,1710811961984375
-70.26,1710811962000000
-72.96,1710811962015625
-76.1,1710811962031250
-79.54,1710811962046875
-82.98,1710811962062500
-85.94,1710811962078125
-87.97,1710811962093750
-88.68,1710811962109375
-88.02,1710811962125000
-86.29,1710811962140625
-84.15,1710811962156250
-82.47,1710811962171875
-82.07,1710811962187500
-83.52,1710811962203125
-87.01,1710811962218750
-92.39,1710811962234375
-99.43,1710811962250000
-107.94,1710811962265625
-117.88,1710811962281250
-129.24,1710811962296875
-141.95,1710811962312500
-155.82,1710811962328125
-170.53,1710811962343750
-185.72,1710811962359375
-200.87,1710811962375000
-215.4,1710811962390625
-228.66,1710811962406250
-240.12,1710811962421875
-249.59,1710811962437500
-257.42,1710811962453125
-264.48,1710811962468750
-271.79,1710811962484375
-279.82,1710811962500000
-287.86,1710811962515625
-293.84,1710811962531250
-294.7,1710811962546875
-287.49,1710811962562500
-270.41,1710811962578125
-243.51,1710811962593750
-208.35,1710811962609375
-167.22,1710811962625000
-122.05,1710811962640625
-73.72,1710811962656250
-22.21,1710811962671875
32.97,1710811962687500
92.26,1710811962703125
155.87,1710811962718750
223.84,1710811962734375
295.64,1710811962750000
369.38,1710811962765625
440.88,1710811962781250
503.51,1710811962796875
549.37,1710811962812500
571.73,1710811962828125
567.59,1710811962843750
539.16,1710811962859375
493.27,1710811962875000
439.08,1710811962890625
385.19,1710811962906250
337.47,1710811962921875
298.56,1710811962937500
268.59,1710811962953125
246.65,1710811962968750
231.79,1710811962984375
223.17,1710811963000000
219.66,1710811963015625
219.32,1710811963031250
219.44,1710811963046875
217.08,1710811963062500
210.03,1710811963078125
197.55,1710811963093750
180.69,1710811963109375
161.77,1710811963125000
143.45,1710811963140625
127.47,1710811963156250
114.08,1710811963171875
102.07,1710811963187500
89.56,1710811963203125
75.07,1710811963218750
58.24,1710811963234375
40.01,1710811963250000
22.05,1710811963265625
6.0,1710811963281250
-7.15,1710811963296875
-17.27,1710811963312500
-24.9,1710811963328125
-30.84,1710811963343750
-35.7,1710811963359375
-39.71,1710811963375000
-42.76,1710811963390625
-44.67,1710811963406250
-45.52,1710811963421875
-45.8,1710811963437500
-46.32,1710811963453125
-47.8,1710811963468750
-50.44,1710811963484375
-53.48,1710811963500000
-55.38,1710811963515625
-54.27,1710811963531250
-48.88,1710811963546875
-39.2,1710811963562500
-26.66,1710811963578125
-13.6,1710811963593750
-2.33,1710811963609375
5.73,1710811963625000
10.38,1710811963640625
12.28,1710811963656250
12.39,1710811963671875
11.39,1710811963687500
9.58,1710811963703125
7.14,1710811963718750
4.4,1710811963734375
1.92,1710811963750000
0.2,1710811963765625
-0.74,1710811963781250
-1.59,1710811963796875
-3.44,1710811963812500
-7.25,1710811963828125
-13.1,1710811963843750
-20.11,1710811963859375
-26.83,1710811963875000
-32.03,1710811963890625
-35.49,1710811963906250
-38.09,1710811963921875
-41.34,1710811963937500
-46.47,1710811963953125
-53.7,1710811963968750
-62.19,1710811963984375
-70.45,1710811964000000
-77.24,1710811964015625
-82.17,1710811964031250
-85.88,1710811964046875
-89.48,1710811964062500
-93.88,1710811964078125
-99.27,1710811964093750
-105.13,1710811964109375
-110.6,1710811964125000
-115.02,1710811964140625
-118.25,1710811964156250
-120.49,1710811964171875
-121.86,1710811964187500
-121.99,1710811964203125
-119.92,1710811964218750
-114.45,1710811964234375
-104.82,1710811964250000
-91.28,1710811964265625
-75.24,1710811964281250
-58.86,1710811964296875
-44.22,1710811964312500
-32.5,1710811964328125
-23.58,1710811964343750
-16.45,1710811964359375
-9.81,1710811964375000
-2.98,1710811964390625
3.82,1710811964406250
9.62,1710811964421875
13.35,1710811964437500
14.44,1710811964453125
13.02,1710811964468750
9.78,1710811964484375
5.51,1710811964500000
0.82,1710811964515625
-3.98,1710811964531250
-8.85,1710811964546875
-13.99,1710811964562500
-19.95,1710811964578125
-27.48,1710811964593750
-37.47,1710811964609375
-50.47,1710811964625000
-66.33,1710811964640625
-84.01,1710811964656250
-101.94,1710811964671875
-118.34,1710811964687500
-131.73,1710811964703125
-141.07,1710811964718750
-145.69,1710811964734375
-145.24,1710811964750000
-139.67,1710811964765625
-129.3,1710811964781250
-114.86,1710811964796875
-97.37,1710811964812500
-77.99,1710811964828125
-57.75,1710811964843750
-37.73,1710811964859375
-19.18,1710811964875000
-3.51,1710811964890625
8.06,1710811964906250
15.21,1710811964921875
19.23,1710811964937500
23.08,1710811964953125
30.63,1710811964968750
45.1,1710811964984375
67.54,1710811965000000
95.99,1710811965015625
125.89,1710811965031250
151.68,1710811965046875
168.66,1710811965062500
174.24,1710811965078125
168.14,1710811965093750
151.55,1710811965109375
126.45,1710811965125000
95.35,1710811965140625
61.78,1710811965156250
30.47,1710811965171875
6.62,1710811965187500
-5.94,1710811965203125
-6.76,1710811965218750
0.35,1710811965234375
8.38,1710811965250000
10.2,1710811965265625
1.72,1710811965281250
-16.07,1710811965296875
-37.71,1710811965312500
-55.85,1710811965328125
-64.58,1710811965343750
-61.7,1710811965359375
-48.92,1710811965375000
-30.47,1710811965390625
-10.81,1710811965406250
6.97,1710811965421875
21.66,1710811965437500
33.32,1710811965453125
42.3,1710811965468750
48.6,1710811965484375
51.88,1710811965500000
52.35,1710811965515625
51.55,1710811965531250
52.47,1710811965546875
58.61,1710811965562500
72.52,1710811965578125
94.4,1710811965593750
121.76,1710811965609375
150.22,1710811965625000
175.15,1710811965640625
193.3,1710811965656250
203.54,1710811965671875
206.56,1710811965687500
204.0,1710811965703125
197.57,1710811965718750
188.68,1710811965734375
178.53,1710811965750000
168.46,1710811965765625
159.83,1710811965781250
153.85,1710811965796875
151.0,1710811965812500
150.77,1710811965828125
151.9,1710811965843750
152.86,1710811965859375
152.66,1710811965875000
151.1,1710811965890625
148.86,1710811965906250
146.92,1710811965921875
146.01,1710811965937500
146.06,1710811965953125
146.16,1710811965968750
144.91,1710811965984375
140.99,1710811966000000
133.58,1710811966015625
122.51,1710811966031250
108.14,1710811966046875
90.95,1710811966062500
71.54,1710811966078125
50.43,1710811966093750
28.21,1710811966109375
5.48,1710811966125000
-17.23,1710811966140625
-39.63,1710811966156250
-61.73,1710811966171875
-83.69,1710811966187500
-105.66,1710811966203125
-127.52,1710811966218750
-149.08,1710811966234375
-170.13,1710811966250000
-190.76,1710811966265625
-211.59,1710811966281250
-233.76,1710811966296875
-258.82,1710811966312500
-288.37,1710811966328125
-323.46,1710811966343750
-363.66,1710811966359375
-406.42,1710811966375000
-447.0,1710811966390625
-479.42,1710811966406250
-498.25,1710811966421875
-500.32,1710811966437500
-485.85,1710811966453125
-458.24,1710811966468750
-422.76,1710811966484375
-384.82,1710811966500000
-348.58,1710811966515625
-316.35,1710811966531250
-288.82,1710811966546875
-265.69,1710811966562500
-246.1,1710811966578125
-228.96,1710811966593750
-212.9,1710811966609375
-196.43,1710811966625000
-177.84,1710811966640625
-155.62,1710811966656250
-128.7,1710811966671875
-96.82,1710811966687500
-60.94,1710811966703125
-23.13,1710811966718750
13.89,1710811966734375
47.69,1710811966750000
76.99,1710811966765625
102.08,1710811966781250
124.48,1710811966796875
146.08,1710811966812500
168.32,1710811966828125
191.7,1710811966843750
215.77,1710811966859375
239.55,1710811966875000
261.83,1710811966890625
281.47,1710811966906250
297.39,1710811966921875
308.54,1710811966937500
314.06,1710811966953125
313.34,1710811966968750
306.19,1710811966984375
292.92,1710811967000000
274.47,1710811967015625
252.37,1710811967031250
228.64,1710811967046875
205.5,1710811967062500
184.75,1710811967078125
167.21,1710811967093750
152.51,1710811967109375
139.32,1710811967125000
126.3,1710811967140625
112.88,1710811967156250
99.82,1710811967171875
88.84,1710811967187500
81.68,1710811967203125
79.11,1710811967218750
80.25,1710811967234375
82.85,1710811967250000
84.05,1710811967265625
81.65,1710811967281250
74.88,1710811967296875
64.7,1710811967312500
53.21,1710811967328125
42.68,1710811967343750
34.65,1710811967359375
29.36,1710811967375000
25.74,1710811967390625
22.04,1710811967406250
16.59,1710811967421875
8.54,1710811967437500
-1.54,1710811967453125
-11.83,1710811967468750
-19.83,1710811967484375
-23.31,1710811967500000
-21.31,1710811967515625
-14.56,1710811967531250
-5.3,1710811967546875
3.78,1710811967562500
10.58,1710811967578125
14.28,1710811967593750
15.32,1710811967609375
14.74,1710811967625000
13.36,1710811967640625
11.25,1710811967656250
7.73,1710811967671875
1.6,1710811967687500
-8.6,1710811967703125
-24.37,1710811967718750
-47.08,1710811967734375
-77.41,1710811967750000
-114.81,1710811967765625
-156.96,1710811967781250
-200.13,1710811967796875
-240.06,1710811967812500
-273.2,1710811967828125
-297.45,1710811967843750
-312.16,1710811967859375
-317.35,1710811967875000
-313.2,1710811967890625
-300.13,1710811967906250
-279.58,1710811967921875
-254.84,1710811967937500
-230.84,1710811967953125
-212.91,1710811967968750
-204.49,1710811967984375
-205.61,1710811968000000
-212.48,1710811968015625
-219.05,1710811968031250
-219.54,1710811968046875
-210.73,1710811968062500
-192.64,1710811968078125
-167.63,1710811968093750
-138.53,1710811968109375
-106.97,1710811968125000
-73.18,1710811968140625
-37.08,1710811968156250
0.24,1710811968171875
35.63,1710811968187500
64.56,1710811968203125
83.12,1710811968218750
89.92,1710811968234375
87.25,1710811968250000
80.14,1710811968265625
74.27,1710811968281250
73.45,1710811968296875
78.4,1710811968312500
87.07,1710811968328125
96.4,1710811968343750
104.21,1710811968359375
110.23,1710811968375000
115.67,1710811968390625
122.0,1710811968406250
129.37,1710811968421875
135.84,1710811968437500
137.74,1710811968453125
130.83,1710811968468750
111.91,1710811968484375
79.94,1710811968500000
36.69,1710811968515625
-13.64,1710811968531250
-65.3,1710811968546875
-112.37,1710811968562500
-149.95,1710811968578125
-175.08,1710811968593750
-187.14,1710811968609375
-187.77,1710811968625000
-180.49,1710811968640625
-170.07,1710811968656250
-161.46,1710811968671875
-158.33,1710811968687500
-161.79,1710811968703125
-169.71,1710811968718750
-177.49,1710811968734375
-180.15,1710811968750000
-174.72,1710811968765625
-161.73,1710811968781250
-144.83,1710811968796875
-128.6,1710811968812500
-116.16,1710811968828125
-107.82,1710811968843750
-101.49,1710811968859375
-94.41,1710811968875000
-84.92,1710811968890625
-72.76,1710811968906250
-58.26,1710811968921875
-41.06,1710811968937500
-19.8,1710811968953125
7.1,1710811968968750
39.93,1710811968984375
76.69,1710811969000000
113.36,1710811969015625
145.32,1710811969031250
169.11,1710811969046875
183.64,1710811969062500
190.13,1710811969078125
191.25,1710811969093750
189.81,1710811969109375
187.78,1710811969125000
185.94,1710811969140625
184.09,1710811969156250
181.48,1710811969171875
177.51,1710811969187500
172.11,1710811969203125
165.84,1710811969218750
159.59,1710811969234375
154.08,1710811969250000
149.41,1710811969265625
144.91,1710811969281250
139.62,1710811969296875
132.85,1710811969312500
124.78,1710811969328125
116.38,1710811969343750
108.74,1710811969359375
102.45,1710811969375000
97.07,1710811969390625
91.36,1710811969406250
83.97,1710811969421875
74.3,1710811969437500
62.84,1710811969453125
51.04,1710811969468750
40.61,1710811969484375
32.95,1710811969500000
28.81,1710811969515625
28.21,1710811969531250
30.6,1710811969546875
34.88,1710811969562500
39.48,1710811969578125
42.31,1710811969593750
41.22,1710811969609375
34.65,1710811969625000
22.38,1710811969640625
6.0,1710811969656250
-11.35,1710811969671875
-25.91,1710811969687500
-34.61,1710811969703125
-36.07,1710811969718750
-31.23,1710811969734375
-22.75,1710811969750000
-13.99,1710811969765625
-7.87,1710811969781250
-5.95,1710811969796875
-8.3,1710811969812500
-13.92,1710811969828125
-21.44,1710811969843750
-29.77,1710811969859375
-38.36,1710811969875000
-47.09,1710811969890625
-56.02,1710811969906250
-65.12,1710811969921875
-73.99,1710811969937500
-82.03,1710811969953125
-88.68,1710811969968750
-93.87,1710811969984375
-98.26,1710811970000000
-103.27,1710811970015625
-110.57,1710811970031250
-121.63,1710811970046875
-137.06,1710811970062500
-156.43,1710811970078125
-178.11,1710811970093750
-199.4,1710811970109375
-216.95,1710811970125000
-227.39,1710811970140625
-228.36,1710811970156250
-219.52,1710811970171875
-203.11,1710811970187500
-183.4,1710811970203125
-165.31,1710811970218750
-152.45,1710811970234375
-145.64,1710811970250000
-142.72,1710811970265625
-139.54,1710811970281250
-131.89,1710811970296875
-117.12,1710811970312500
-94.95,1710811970328125
-67.07,1710811970343750
-36.02,1710811970359375
-4.2,1710811970375000
26.96,1710811970390625
56.92,1710811970406250
86.09,1710811970421875
115.43,1710811970437500
146.12,1710811970453125
178.99,1710811970468750
213.68,1710811970484375
247.98,1710811970500000
277.55,1710811970515625
296.6,1710811970531250
299.31,1710811970546875
281.88,1710811970562500
244.37,1710811970578125
191.62,1710811970593750
132.63,1710811970609375
78.23,1710811970625000
37.76,1710811970640625
16.07,1710811970656250
12.02,1710811970671875
19.54,1710811970687500
30.55,1710811970703125
38.31,1710811970718750
39.6,1710811970734375
34.73,1710811970750000
25.65,1710811970765625
13.82,1710811970781250
-0.8,1710811970796875
-18.87,1710811970812500
-39.95,1710811970828125
-61.15,1710811970843750
-77.55,1710811970859375
-84.3,1710811970875000
-79.0,1710811970890625
-63.14,1710811970906250
-41.54,1710811970921875
-20.33,1710811970937500
-4.52,1710811970953125
3.65,1710811970968750
5.25,1710811970984375
3.88,1710811971000000
4.29,1710811971015625
11.1,1710811971031250
27.76,1710811971046875
55.83,1710811971062500
94.72,1710811971078125
141.63,1710811971093750
191.61,1710811971109375
238.23,1710811971125000
274.37,1710811971140625
293.55,1710811971156250
291.13,1710811971171875
265.42,1710811971187500
218.51,1710811971203125
156.33,1710811971218750
87.86,1710811971234375
23.46,1710811971250000
-27.34,1710811971265625
-58.31,1710811971281250
-68.0,1710811971296875
-59.9,1710811971312500
-41.23,1710811971328125
-20.38,1710811971343750
-4.39,1710811971359375
2.89,1710811971375000
1.03,1710811971390625
-7.86,1710811971406250
-20.6,1710811971421875
-34.15,1710811971437500
-46.13,1710811971453125
-55.13,1710811971468750
-60.49,1710811971484375
-62.3,1710811971500000
-61.25,1710811971515625
-58.22,1710811971531250
-53.8,1710811971546875
-48.14,1710811971562500
-41.04,1710811971578125
-32.51,1710811971593750
-23.35,1710811971609375
-15.25,1710811971625000
-10.12,1710811971640625
-8.84,1710811971656250
-10.2,1710811971671875
-10.62,1710811971687500
-5.28,1710811971703125
10.11,1710811971718750
37.32,1710811971734375
74.62,1710811971750000
117.1,1710811971765625
158.18,1710811971781250
191.56,1710811971796875
212.68,1710811971812500
219.53,1710811971828125
212.45,1710811971843750
193.34,1710811971859375
164.78,1710811971875000
129.48,1710811971890625
90.03,1710811971906250
49.03,1710811971921875
8.97,1710811971937500
-27.99,1710811971953125
-60.52,1710811971968750
-88.37,1710811971984375
-111.97,1710811972000000
-131.75,1710811972015625
-147.33,1710811972031250
-157.11,1710811972046875
-158.85,1710811972062500
-150.89,1710811972078125
-133.76,1710811972093750
-111.22,1710811972109375
-90.03,1710811972125000
-78.15,1710811972140625
-81.74,1710811972156250
-102.45,1710811972171875
-136.08,1710811972187500
-173.72,1710811972203125
-204.7,1710811972218750
-220.3,1710811972234375
-216.18,1710811972250000
-192.79,1710811972265625
-153.79,1710811972281250
-103.89,1710811972296875
-47.93,1710811972312500
8.64,1710811972328125
58.81,1710811972343750
94.26,1710811972359375
107.82,1710811972375000
97.2,1710811972390625
67.68,1710811972406250
31.59,1710811972421875
4.15,1710811972437500
-2.75,1710811972453125
14.5,1710811972468750
49.81,1710811972484375
90.16,1710811972500000
120.95,1710811972515625
131.58,1710811972531250
118.76,1710811972546875
86.6,1710811972562500
44.63,1710811972578125
4.43,1710811972593750
-23.5,1710811972609375
-32.21,1710811972625000
-19.8,1710811972640625
10.26,1710811972656250
50.09,1710811972671875
89.69,1710811972687500
119.64,1710811972703125
133.72,1710811972718750
130.19,1710811972734375
111.54,1710811972750000
82.93,1710811972765625
49.94,1710811972781250
17.04,1710811972796875
-13.08,1710811972812500
-39.23,1710811972828125
-61.31,1710811972843750
-79.82,1710811972859375
-95.88,1710811972875000
-111.03,1710811972890625
-126.81,1710811972906250
-143.92,1710811972921875
-161.31,1710811972937500
-176.05,1710811972953125
-184.23,1710811972968750
-182.57,1710811972984375
-170.13,1710811973000000
-149.32,1710811973015625
-125.29,1710811973031250
-103.99,1710811973046875
-89.84,1710811973062500
-83.72,1710811973078125
-82.69,1710811973093750
-81.24,1710811973109375
-73.82,1710811973125000
-57.05,1710811973140625
-31.02,1710811973156250
1.06,1710811973171875
34.56,1710811973187500
65.17,1710811973203125
90.26,1710811973218750
109.18,1710811973234375
122.82,1710811973250000
132.9,1710811973265625
141.37,1710811973281250
149.99,1710811973296875
160.14,1710811973312500
172.6,1710811973328125
187.17,1710811973343750
202.63,1710811973359375
216.92,1710811973375000
227.67,1710811973390625
232.9,1710811973406250
231.48,1710811973421875
223.31,1710811973437500
209.09,1710811973453125
190.03,1710811973468750
167.69,1710811973484375
143.87,1710811973500000
120.41,1710811973515625
98.85,1710811973531250
80.04,1710811973546875
63.81,1710811973562500
49.07,1710811973578125
34.43,1710811973593750
18.88,1710811973609375
2.28,1710811973625000
-14.6,1710811973640625
-30.8,1710811973656250
-45.94,1710811973671875
-60.75,1710811973687500
-76.54,1710811973703125
-94.14,1710811973718750
-112.8,1710811973734375
-129.94,1710811973750000
-142.23,1710811973765625
-147.26,1710811973781250
-144.93,1710811973796875
-137.37,1710811973812500
-127.7,1710811973828125
-118.09,1710811973843750
-108.52,1710811973859375
-97.23,1710811973875000
-82.25,1710811973890625
-63.32,1710811973906250
-42.69,1710811973921875
-24.2,1710811973937500
-11.26,1710811973953125
-4.82,1710811973968750
-2.83,1710811973984375
-1.2,1710811974000000
3.91,1710811974015625
14.24,1710811974031250
28.68,1710811974046875
44.25,1710811974062500
57.72,1710811974078125
67.6,1710811974093750
74.75,1710811974109375
82.08,1710811974125000
93.13,1710811974140625
110.34,1710811974156250
133.87,1710811974171875
161.27,1710811974187500
188.24,1710811974203125
210.14,1710811974218750
223.78,1710811974234375
228.48,1710811974250000
226.23,1710811974265625
220.59,1710811974281250
214.88,1710811974296875
210.83,1710811974312500
207.98,1710811974328125
204.35,1710811974343750
197.72,1710811974359375
186.9,1710811974375000
172.16,1710811974390625
155.06,1710811974406250
137.73,1710811974421875
122.08,1710811974437500
109.35,1710811974453125
99.98,1710811974468750
93.72,1710811974484375
89.96,1710811974500000
88.14,1710811974515625
87.97,1710811974531250
89.43,1710811974546875
92.36,1710811974562500
95.9,1710811974578125
98.33,1710811974593750
97.36,1710811974609375
91.11,1710811974625000
79.11,1710811974640625
62.74,1710811974656250
44.67,1710811974671875
27.58,1710811974687500
12.9,1710811974703125
0.14,1710811974718750
-12.71,1710811974734375
-28.2,1710811974750000
-48.28,1710811974765625
-73.96,1710811974781250
-105.13,1710811974796875
-140.61,1710811974812500
-177.69,1710811974828125
-211.86,1710811974843750
-237.29,1710811974859375
-248.38,1710811974875000
-242.36,1710811974890625
-220.98,1710811974906250
-190.57,1710811974921875
-159.68,1710811974937500
-135.52,1710811974953125
-121.08,1710811974968750
-114.54,1710811974984375
-111.18,1710811975000000
-106.44,1710811975015625
-98.23,1710811975031250
-87.39,1710811975046875
-76.37,1710811975062500
-67.29,1710811975078125
-60.71,1710811975093750
-55.45,1710811975109375
-49.4,1710811975125000
-40.61,1710811975140625
-28.02,1710811975156250
-12.06,1710811975171875
5.2,1710811975187500
20.51,1710811975203125
30.36,1710811975218750
32.09,1710811975234375
24.99,1710811975250000
10.42,1710811975265625
-9.0,1710811975281250
-30.87,1710811975296875
-54.18,1710811975312500
-79.46,1710811975328125
-107.57,1710811975343750
-138.27,1710811975359375
-169.14,1710811975375000
-195.98,1710811975390625
-214.63,1710811975406250
-223.32,1710811975421875
-224.06,1710811975437500
-222.01,1710811975453125
-222.88,1710811975468750
-229.62,1710811975484375
-240.22,1710811975500000
-248.15,1710811975515625
-245.33,1710811975531250
-225.76,1710811975546875
-188.2,1710811975562500
-136.22,1710811975578125
-75.96,1710811975593750
-13.29,1710811975609375
47.97,1710811975625000
105.74,1710811975640625
158.09,1710811975656250
201.81,1710811975671875
232.68,1710811975687500
247.2,1710811975703125
244.69,1710811975718750
228.03,1710811975734375
202.48,1710811975750000
173.42,1710811975765625
144.56,1710811975781250
117.72,1710811975796875
93.85,1710811975812500
74.43,1710811975828125
61.91,1710811975843750
58.89,1710811975859375
66.5,1710811975875000
83.49,1710811975890625
106.43,1710811975906250
131.11,1710811975921875
153.96,1710811975937500
172.78,1710811975953125
186.41,1710811975968750
193.99,1710811975984375
194.7,1710811976000000
188.07,1710811976015625
174.85,1710811976031250
157.43,1710811976046875
139.45,1710811976062500
124.72,1710811976078125
115.87,1710811976093750
113.5,1710811976109375
116.03,1710811976125000
120.35,1710811976140625
122.84,1710811976156250
120.55,1710811976171875
112.03,1710811976187500
97.57,1710811976203125
78.86,1710811976218750
58.07,1710811976234375
37.02,1710811976250000
16.38,1710811976265625
-4.36,1710811976281250
-26.34,1710811976296875
-50.43,1710811976312500
-76.39,1710811976328125
-102.72,1710811976343750
-127.18,1710811976359375
-147.69,1710811976375000
-163.34,1710811976390625
-174.74,1710811976406250
-183.79,1710811976421875
-192.68,1710811976437500
-202.99,1710811976453125
-214.94,1710811976468750
-227.49,1710811976484375
-239.0,1710811976500000
-248.19,1710811976515625
-254.75,1710811976531250
-259.41,1710811976546875
-263.37,1710811976562500
-267.32,1710811976578125
-270.92,1710811976593750
-272.76,1710811976609375
-271.07,1710811976625000
-264.5,1710811976640625
-252.71,1710811976656250
-236.32,1710811976671875
-216.36,1710811976687500
-193.85,1710811976703125
-169.59,1710811976718750
-144.47,1710811976734375
-119.47,1710811976750000
-95.54,1710811976765625
-73.04,1710811976781250
-51.3,1710811976796875
-28.74,1710811976812500
-3.5,1710811976828125
25.33,1710811976843750
56.79,1710811976859375
87.99,1710811976875000
114.88,1710811976890625
133.69,1710811976906250
142.09,1710811976921875
139.71,1710811976937500
127.77,1710811976953125
108.15,1710811976968750
82.67,1710811976984375
52.95,1710811977000000
20.61,1710811977015625
-12.3,1710811977031250
-43.33,1710811977046875
-70.25,1710811977062500
-91.92,1710811977078125
-109.04,1710811977093750
-124.15,1710811977109375
-140.78,1710811977125000
-162.06,1710811977140625
-189.35,1710811977156250
-221.65,1710811977171875
-255.7,1710811977187500
-286.86,1710811977203125
-310.29,1710811977218750
-322.23,1710811977234375
-320.8,1710811977250000
-306.46,1710811977265625
-281.62,1710811977281250
-249.92,1710811977296875
-214.94,1710811977312500
-179.3,1710811977328125
-144.16,1710811977343750
-109.42,1710811977359375
-74.62,1710811977375000
-39.8,1710811977390625
-6.2,1710811977406250
23.89,1710811977421875
47.85,1710811977437500
63.91,1710811977453125
72.01,1710811977468750
74.08,1710811977484375
73.53,1710811977500000
74.08,1710811977515625
78.48,1710811977531250
87.43,1710811977546875
99.53,1710811977562500
111.69,1710811977578125
120.41,1710811977593750
122.87,1710811977609375
117.67,1710811977625000
105.01,1710811977640625
86.39,1710811977656250
64.02,1710811977671875
40.34,1710811977687500
17.68,1710811977703125
-1.94,1710811977718750
-16.99,1710811977734375
-26.55,1710811977750000
-30.59,1710811977765625
-30.2,1710811977781250
-27.49,1710811977796875
-24.98,1710811977812500
-24.89,1710811977828125
-28.3,1710811977843750
-34.92,1710811977859375
-43.15,1710811977875000
-50.33,1710811977890625
-53.32,1710811977906250
-49.03,1710811977921875
-35.48,1710811977937500
-12.73,1710811977953125
16.54,1710811977968750
47.62,1710811977984375
75.3,1710811978000000
96.0,1710811978015625
109.29,1710811978031250
117.82,1710811978046875
125.91,1710811978062500
137.02,1710811978078125
152.15,1710811978093750
169.52,1710811978109375
185.94,1710811978125000
198.45,1710811978140625
205.64,1710811978156250
207.85,1710811978171875
206.68,1710811978187500
204.38,1710811978203125
203.55,1710811978218750
206.86,1710811978234375
216.6,1710811978250000
233.82,1710811978265625
257.28,1710811978281250
283.08,1710811978296875
305.39,1710811978312500
318.01,1710811978328125
316.71,1710811978343750
300.86,1710811978359375
273.79,1710811978375000
241.47,1710811978390625
210.11,1710811978406250
183.67,1710811978421875
162.7,1710811978437500
144.68,1710811978453125
125.67,1710811978468750
102.48,1710811978484375
73.99,1710811978500000
41.44,1710811978515625
7.48,1710811978531250
-25.12,1710811978546875
-54.58,1710811978562500
-80.48,1710811978578125
-103.52,1710811978593750
-125.18,1710811978609375
-147.07,1710811978625000
-170.62,1710811978640625
-196.43,1710811978656250
-223.71,1710811978671875
-249.84,1710811978687500
-270.69,1710811978703125
-281.56,1710811978718750
-278.86,1710811978734375
-261.59,1710811978750000
-231.84,1710811978765625
-194.28,1710811978781250
-154.41,1710811978796875
-116.8,1710811978812500
-84.19,1710811978828125
-57.67,1710811978843750
-37.61,1710811978859375
-24.49,1710811978875000
-18.82,1710811978890625
-20.24,1710811978906250
-26.57,1710811978921875
-33.55,1710811978937500
-35.88,1710811978953125
-29.1,1710811978968750
-11.45,1710811978984375
15.16,1710811979000000
45.72,1710811979015625
74.01,1710811979031250
94.92,1710811979046875
106.17,1710811979062500
108.57,1710811979078125
104.7,1710811979093750
96.96,1710811979109375
85.91,1710811979125000
69.97,1710811979140625
46.65,1710811979156250
14.37,1710811979171875
-26.03,1710811979187500
-71.16,1710811979203125
-116.23,1710811979218750
-156.62,1710811979234375
-188.87,1710811979250000
-210.65,1710811979265625
-220.09,1710811979281250
-215.46,1710811979296875
-195.64,1710811979312500
-161.33,1710811979328125
-115.99,1710811979343750
-65.56,1710811979359375
-16.95,1710811979375000
23.99,1710811979390625
54.06,1710811979406250
73.03,1710811979421875
82.67,1710811979437500
85.37,1710811979453125
83.23,1710811979468750
77.8,1710811979484375
70.42,1710811979500000
62.66,1710811979515625
56.33,1710811979531250
52.88,1710811979546875
52.79,1710811979562500
55.25,1710811979578125
58.41,1710811979593750
60.33,1710811979609375
59.78,1710811979625000
56.7,1710811979640625
52.05,1710811979656250
47.47,1710811979671875
44.51,1710811979687500
44.2,1710811979703125
46.64,1710811979718750
50.95,1710811979734375
55.4,1710811979750000
57.88,1710811979765625
56.53,1710811979781250
50.39,1710811979796875
39.78,1710811979812500
25.9,1710811979828125
10.32,1710811979843750
-5.78,1710811979859375
-21.79,1710811979875000
-37.12,1710811979890625
-50.52,1710811979906250
-59.42,1710811979921875
-60.43,1710811979937500
-50.59,1710811979953125
-28.93,1710811979968750
2.65,1710811979984375
39.73,1710811980000000
76.89,1710811980015625
109.42,1710811980031250
134.48,1710811980046875
151.08,1710811980062500
159.4,1710811980078125
159.93,1710811980093750
153.15,1710811980109375
139.71,1710811980125000
120.73,1710811980140625
97.86,1710811980156250
72.88,1710811980171875
47.21,1710811980187500
21.6,1710811980203125
-3.53,1710811980218750
-27.65,1710811980234375
-49.62,1710811980250000
-67.89,1710811980265625
-81.09,1710811980281250
-88.75,1710811980296875
-91.58,1710811980312500
-91.25,1710811980328125
-89.53,1710811980343750
-87.58,1710811980359375
-85.44,1710811980375000
-82.14,1710811980390625
-76.38,1710811980406250
-67.18,1710811980421875
-54.46,1710811980437500
-39.16,1710811980453125
-23.14,1710811980468750
-8.91,1710811980484375
0.84,1710811980500000
3.66,1710811980515625
-1.86,1710811980531250
-15.42,1710811980546875
-34.58,1710811980562500
-55.02,1710811980578125
-71.81,1710811980593750
-80.79,1710811980609375
-79.93,1710811980625000
-69.75,1710811980640625
-52.88,1710811980656250
-32.86,1710811980671875
-12.92,1710811980687500
4.82,1710811980703125
19.47,1710811980718750
31.14,1710811980734375
40.45,1710811980750000
48.15,1710811980765625
54.84,1710811980781250
60.83,1710811980796875
66.17,1710811980812500
70.68,1710811980828125
74.18,1710811980843750
76.54,1710811980859375
77.96,1710811980875000
78.93,1710811980890625
80.15,1710811980906250
82.21,1710811980921875
85.23,1710811980937500
88.48,1710811980953125
90.4,1710811980968750
89.14,1710811980984375
83.4,1710811981000000
73.23,1710811981015625
60.21,1710811981031250
46.71,1710811981046875
34.58,1710811981062500
24.0,1710811981078125
13.24,1710811981093750
-0.5,1710811981109375
-19.58,1710811981125000
-44.66,1710811981140625
-74.36,1710811981156250
-105.95,1710811981171875
-136.48,1710811981187500
-163.5,1710811981203125
-185.24,1710811981218750
-200.52,1710811981234375
-208.6,1710811981250000
-209.37,1710811981265625
-203.6,1710811981281250
-192.77,1710811981296875
-178.51,1710811981312500
-161.86,1710811981328125
-142.86,1710811981343750
-120.94,1710811981359375
-95.81,1710811981375000
-68.58,1710811981390625
-42.12,1710811981406250
-20.18,1710811981421875
-5.8,1710811981437500
0.5,1710811981453125
1.32,1710811981468750
1.62,1710811981484375
6.59,1710811981500000
19.31,1710811981515625
39.45,1710811981531250
63.47,1710811981546875
86.42,1710811981562500
104.04,1710811981578125
114.31,1710811981593750
117.27,1710811981609375
113.75,1710811981625000
103.77,1710811981640625
86.0,1710811981656250
58.86,1710811981671875
22.34,1710811981687500
-20.6,1710811981703125
-64.19,1710811981718750
-101.58,1710811981734375
-127.33,1710811981750000
-138.85,1710811981765625
-136.51,1710811981781250
-122.25,1710811981796875
-98.09,1710811981812500
-65.64,1710811981828125
-26.67,1710811981843750
15.77,1710811981859375
57.23,1710811981875000
92.93,1710811981890625
119.73,1710811981906250
137.67,1710811981921875
149.99,1710811981937500
161.56,1710811981953125
176.49,1710811981968750
196.42,1710811981984375
220.08,1710811982000000
244.39,1710811982015625
265.98,1710811982031250
282.39,1710811982046875
292.21,1710811982062500
294.65,1710811982078125
289.15,1710811982093750
275.38,1710811982109375
253.83,1710811982125000
226.32,1710811982140625
195.96,1710811982156250
166.38,1710811982171875
140.76,1710811982187500
120.76,1710811982203125
106.16,1710811982218750
95.42,1710811982234375
86.53,1710811982250000
77.95,1710811982265625
68.78,1710811982281250
58.45,1710811982296875
46.0,1710811982312500
29.79,1710811982328125
8.0,1710811982343750
-20.41,1710811982359375
-54.75,1710811982375000
-92.32,1710811982390625
-128.96,1710811982406250
-160.25,1710811982421875
-182.54,1710811982437500
-193.96,1710811982453125
-194.71,1710811982468750
-187.26,1710811982484375
-176.18,1710811982500000
-167.37,1710811982515625
-166.5,1710811982531250
-176.77,1710811982546875
-197.26,1710811982562500
-222.5,1710811982578125
-243.94,1710811982593750
-252.79,1710811982609375
-243.05,1710811982625000
-213.15,1710811982640625
-165.75,1710811982656250
-106.26,1710811982671875
-40.94,1710811982687500
24.16,1710811982703125
83.77,1710811982718750
133.55,1710811982734375
170.39,1710811982750000
192.99,1710811982765625
202.29,1710811982781250
201.28,1710811982796875
194.0,1710811982812500
184.35,1710811982828125
175.11,1710811982843750
167.47,1710811982859375
161.28,1710811982875000
155.6,1710811982890625
149.32,1710811982906250
141.51,1710811982921875
131.55,1710811982937500
118.9,1710811982953125
102.99,1710811982968750
83.22,1710811982984375
59.14,1710811983000000
30.68,1710811983015625
-1.83,1710811983031250
-37.43,1710811983046875
-74.54,1710811983062500
-110.96,1710811983078125
-144.04,1710811983093750
-171.04,1710811983109375
-189.92,1710811983125000
-199.99,1710811983140625
-202.23,1710811983156250
-198.87,1710811983171875
-192.27,1710811983187500
-183.98,1710811983203125
-174.01,1710811983218750
-161.16,1710811983234375
-143.86,1710811983250000
-121.36,1710811983265625
-94.29,1710811983281250
-64.49,1710811983296875
-34.38,1710811983312500
-6.15,1710811983328125
18.64,1710811983343750
39.02,1710811983359375
54.33,1710811983375000
63.92,1710811983390625
67.23,1710811983406250
63.95,1710811983421875
54.46,1710811983437500
40.19,1710811983453125
23.61,1710811983468750
7.83,1710811983484375
-4.11,1710811983500000
-10.06,1710811983515625
-9.14,1710811983531250
-1.85,1710811983546875
10.38,1710811983562500
25.62,1710811983578125
41.8,1710811983593750
56.9,1710811983609375
68.94,1710811983625000
76.26,1710811983640625
77.81,1710811983656250
73.43,1710811983671875
64.22,1710811983687500
52.18,1710811983703125
39.88,1710811983718750
29.56,1710811983734375
22.61,1710811983750000
19.05,1710811983765625
17.63,1710811983781250
16.26,1710811983796875
12.66,1710811983812500
5.02,1710811983828125
-7.62,1710811983843750
-25.1,1710811983859375
-46.17,1710811983875000
-68.55,1710811983890625
-89.21,1710811983906250
-105.09,1710811983921875
-113.98,1710811983937500
-115.76,1710811983953125
-112.97,1710811983968750
-110.56,1710811983984375
-114.43,1710811984000000
-129.44,1710811984015625
-157.53,1710811984031250
-196.82,1710811984046875
-241.99,1710811984062500
-285.61,1710811984078125
-320.12,1710811984093750
-339.53,1710811984109375
-340.65,1710811984125000
-323.43,1710811984140625
-290.58,1710811984156250
-246.6,1710811984171875
-196.52,1710811984187500
-144.72,1710811984203125
-94.23,1710811984218750
-46.68,1710811984234375
-2.6,1710811984250000
37.9,1710811984265625
74.81,1710811984281250
108.07,1710811984296875
137.76,1710811984312500
164.14,1710811984328125
187.53,1710811984343750
208.1,1710811984359375
225.59,1710811984375000
239.36,1710811984390625
248.86,1710811984406250
254.28,1710811984421875
257.1,1710811984437500
259.74,1710811984453125
264.49,1710811984468750
271.85,1710811984484375
279.4,1710811984500000
281.81,1710811984515625
272.42,1710811984531250
245.9,1710811984546875
200.67,1710811984562500
140.04,1710811984578125
71.41,1710811984593750
3.89,1710811984609375
-54.26,1710811984625000
-97.78,1710811984640625
-125.12,1710811984656250
-137.98,1710811984671875
-140.27,1710811984687500
-136.76,1710811984703125
-132.03,1710811984718750
-129.67,1710811984734375
-131.78,1710811984750000
-138.79,1710811984765625
-149.4,1710811984781250
-160.9,1710811984796875
-169.72,1710811984812500
-172.3,1710811984828125
-166.24,1710811984843750
-151.31,1710811984859375
-129.92,1710811984875000
-106.53,1710811984890625
-86.3,1710811984906250
-73.19,1710811984921875
-68.54,1710811984937500
-70.72,1710811984953125
-76.06,1710811984968750
-80.68,1710811984984375
-82.05,1710811985000000
-79.87,1710811985015625
-75.6,1710811985031250
-71.5,1710811985046875
-69.36,1710811985062500
-69.92,1710811985078125
-72.8,1710811985093750
-77.06,1710811985109375
-81.6,1710811985125000
-85.59,1710811985140625
-88.51,1710811985156250
-90.09,1710811985171875
-90.42,1710811985187500
-89.86,1710811985203125
-89.2,1710811985218750
-89.37,1710811985234375
-90.99,1710811985250000
-93.85,1710811985265625
-96.6,1710811985281250
-97.02,1710811985296875
-92.71,1710811985312500
-82.05,1710811985328125
-64.82,1710811985343750
-42.41,1710811985359375
-17.41,1710811985375000
7.21,1710811985390625
28.8,1710811985406250
45.5,1710811985421875
56.37,1710811985437500
61.26,1710811985453125
60.61,1710811985468750
55.32,1710811985484375
46.59,1710811985500000
35.8,1710811985515625
24.39,1710811985531250
13.58,1710811985546875
4.3,1710811985562500
-2.87,1710811985578125
-7.65,1710811985593750
-10.08,1710811985609375
-10.35,1710811985625000
-8.87,1710811985640625
-6.14,1710811985656250
-2.78,1710811985671875
0.47,1710811985687500
2.84,1710811985703125
3.64,1710811985718750
2.43,1710811985734375
-0.82,1710811985750000
-5.64,1710811985765625
-11.13,1710811985781250
-16.31,1710811985796875
-20.37,1710811985812500
-23.05,1710811985828125
-24.75,1710811985843750
-26.41,1710811985859375
-29.25,1710811985875000
-34.33,1710811985890625
-42.01,1710811985906250
-51.63,1710811985921875
-61.3,1710811985937500
-68.28,1710811985953125
-69.69,1710811985968750
-63.42,1710811985984375
-48.85,1710811986000000
-27.1,1710811986015625
-0.65,1710811986031250
27.54,1710811986046875
54.79,1710811986062500
79.24,1710811986078125
99.91,1710811986093750
116.29,1710811986109375
128.06,1710811986125000
134.96,1710811986140625
136.97,1710811986156250
134.64,1710811986171875
129.19,1710811986187500
122.31,1710811986203125
115.7,1710811986218750
110.55,1710811986234375
107.23,1710811986250000
105.4,1710811986265625
104.39,1710811986281250
103.69,1710811986296875
103.24,1710811986312500
103.3,1710811986328125
104.05,1710811986343750
105.24,1710811986359375
106.02,1710811986375000
105.17,1710811986390625
101.65,1710811986406250
95.08,1710811986421875
85.96,1710811986437500
75.44,1710811986453125
64.83,1710811986468750
55.14,1710811986484375
46.73,1710811986500000
39.28,1710811986515625
31.96,1710811986531250
23.78,1710811986546875
13.93,1710811986562500
2.11,1710811986578125
-11.1,1710811986593750
-24.18,1710811986609375
-34.8,1710811986625000
-40.46,1710811986640625
-39.18,1710811986656250
-30.3,1710811986671875
-14.64,1710811986687500
5.7,1710811986703125
28.04,1710811986718750
49.88,1710811986734375
69.38,1710811986750000
85.46,1710811986765625
97.58,1710811986781250
105.47,1710811986796875
108.99,1710811986812500
108.31,1710811986828125
104.01,1710811986843750
97.18,1710811986859375
89.29,1710811986875000
81.73,1710811986890625
75.5,1710811986906250
71.0,1710811986921875
68.13,1710811986937500
66.53,1710811986953125
65.87,1710811986968750
66.02,1710811986984375
66.88,1710811987000000
68.27,1710811987015625
69.64,1710811987031250
70.15,1710811987046875
68.86,1710811987062500
65.14,1710811987078125
58.94,1710811987093750
50.82,1710811987109375
41.78,1710811987125000
32.76,1710811987140625
24.39,1710811987156250
16.8,1710811987171875
9.7,1710811987187500
2.53,1710811987203125
-5.29,1710811987218750
-14.25,1710811987234375
-24.48,1710811987250000
-35.56,1710811987265625
-46.3,1710811987281250
-54.74,1710811987296875
-58.67,1710811987312500
-56.17,1710811987328125
-46.53,1710811987343750
-30.55,1710811987359375
-10.41,1710811987375000
11.02,1710811987390625
31.13,1710811987406250
48.15,1710811987421875
61.36,1710811987437500
70.7,1710811987453125
76.33,1710811987468750
78.32,1710811987484375
76.64,1710811987500000
71.53,1710811987515625
63.77,1710811987531250
54.73,1710811987546875
46.04,1710811987562500
39.12,1710811987578125
34.66,1710811987593750
32.57,1710811987609375
32.18,1710811987625000
32.69,1710811987640625
33.56,1710811987656250
34.58,1710811987671875
35.72,1710811987687500
36.79,1710811987703125
37.35,1710811987718750
36.63,1710811987734375
33.93,1710811987750000
28.97,1710811987765625
21.99,1710811987781250
13.85,1710811987796875
5.5,1710811987812500
-2.24,1710811987828125
-9.08,1710811987843750
-15.25,1710811987859375
-21.33,1710811987875000
-28.0,1710811987890625
-35.79,1710811987906250
-44.91,1710811987921875
-55.01,1710811987937500
-65.17,1710811987953125
-73.73,1710811987968750
-78.66,1710811987984375
-77.94,1710811988000000
-70.32,1710811988015625
-55.87,1710811988031250
-36.12,1710811988046875
-13.71,1710811988062500
8.42,1710811988078125
27.85,1710811988093750
43.22,1710811988109375
54.11,1710811988125000
60.72,1710811988140625
63.34,1710811988156250
62.25,1710811988171875
57.8,1710811988187500
50.69,1710811988203125
42.13,1710811988218750
33.55,1710811988234375
26.29,1710811988250000
21.12,1710811988265625
18.11,1710811988281250
16.79,1710811988296875
16.49,1710811988312500
16.68,1710811988328125
17.11,1710811988343750
17.67,1710811988359375
18.21,1710811988375000
18.33,1710811988390625
17.51,1710811988406250
15.22,1710811988421875
11.23,1710811988437500
5.71,1710811988453125
-0.8,1710811988468750
-7.6,1710811988484375
-14.11,1710811988500000
-20.09,1710811988515625
-25.67,1710811988531250
-31.27,1710811988546875
-37.46,1710811988562500
-44.69,1710811988578125
-53.11,1710811988593750
-62.33,1710811988609375
-71.34,1710811988625000
-78.42,1710811988640625
-81.57,1710811988656250
-78.99,1710811988671875
-69.74,1710811988687500
-54.18,1710811988703125
-33.98,1710811988718750
-11.66,1710811988734375
10.17,1710811988750000
29.38,1710811988765625
44.73,1710811988781250
55.72,1710811988796875
62.27,1710811988812500
64.52,1710811988828125
62.75,1710811988843750
57.57,1710811988859375
49.96,1710811988875000
41.24,1710811988890625
32.82,1710811988906250
25.79,1710811988921875
20.73,1710811988937500
17.69,1710811988953125
16.33,1710811988968750
16.16,1710811988984375
16.79,1710811989000000
17.89,1710811989015625
19.22,1710811989031250
20.42,1710811989046875
21.01,1710811989062500
20.4,1710811989078125
18.07,1710811989093750
13.8,1710811989109375
7.77,1710811989125000
0.6,1710811989140625
-6.89,1710811989156250
-13.92,1710811989171875
-20.03,1710811989187500
-25.13,1710811989203125
-29.57,1710811989218750
-34.02,1710811989234375
-39.3,1710811989250000
-46.13,1710811989265625
-54.72,1710811989281250
-64.51,1710811989296875
-73.85,1710811989312500
-80.37,1710811989328125
-81.52,1710811989343750
-75.53,1710811989359375
-62.19,1710811989375000
-42.99,1710811989390625
-20.69,1710811989406250
1.64,1710811989421875
21.5,1710811989437500
37.52,1710811989453125
49.36,1710811989468750
57.18,1710811989484375
61.17,1710811989500000
61.37,1710811989515625
57.87,1710811989531250
51.18,1710811989546875
42.48,1710811989562500
33.43,1710811989578125
25.72,1710811989593750
20.51,1710811989609375
18.03,1710811989625000
17.62,1710811989640625
18.16,1710811989656250
18.7,1710811989671875
18.72,1710811989687500
18.36,1710811989703125
18.04,1710811989718750
18.03,1710811989734375
18.11,1710811989750000
17.59,1710811989765625
15.58,1710811989781250
11.5,1710811989796875
5.4,1710811989812500
-2.05,1710811989828125
-9.81,1710811989843750
-16.91,1710811989859375
-22.85,1710811989875000
-27.66,1710811989890625
-31.87,1710811989906250
-36.23,1710811989921875
-41.55,1710811989937500
-48.28,1710811989953125
-56.41,1710811989968750
-65.15,1710811989984375
-72.88,1710811990000000
-77.46,1710811990015625
-76.75,1710811990031250
-69.49,1710811990046875
-55.85,1710811990062500
-37.6,1710811990078125
-17.44,1710811990093750
1.83,1710811990109375
18.27,1710811990125000
31.11,1710811990140625
40.47,1710811990156250
46.81,1710811990171875
50.27,1710811990187500
50.64,1710811990203125
47.7,1710811990218750
41.71,1710811990234375
33.69,1710811990250000
25.25,1710811990265625
18.02,1710811990281250
13.1,1710811990296875
10.81,1710811990312500
10.67,1710811990328125
11.84,1710811990343750
13.49,1710811990359375
15.15,1710811990375000
16.74,1710811990390625
18.36,1710811990406250
20.01,1710811990421875
21.32,1710811990437500
21.6,1710811990453125
19.99,1710811990468750
15.99,1710811990484375
9.69,1710811990500000
1.95,1710811990515625
-5.95,1710811990531250
-12.82,1710811990546875
-18.01,1710811990562500
-21.69,1710811990578125
-24.66,1710811990593750
-28.01,1710811990609375
-32.67,1710811990625000
-39.19,1710811990640625
-47.48,1710811990656250
-56.85,1710811990671875
-65.95,1710811990687500
-72.94,1710811990703125
-75.84,1710811990718750
-73.06,1710811990734375
-64.02,1710811990750000
-49.41,1710811990765625
-31.08,1710811990781250
-11.37,1710811990796875
7.44,1710811990812500
23.69,1710811990828125
36.48,1710811990843750
45.42,1710811990859375
50.42,1710811990875000
51.48,1710811990890625
48.8,1710811990906250
42.89,1710811990921875
34.71,1710811990937500
25.6,1710811990953125
17.01,1710811990968750
10.2,1710811990984375
5.84,1710811991000000
3.88,1710811991015625
3.7,1710811991031250
4.4,1710811991046875
5.24,1710811991062500
5.87,1710811991078125
6.42,1710811991093750
7.15,1710811991109375
8.15,1710811991125000
8.99,1710811991140625
8.88,1710811991156250
6.97,1710811991171875
2.85,1710811991187500
-3.23,1710811991203125
-10.32,1710811991218750
-17.23,1710811991234375
-23.01,1710811991250000
-27.33,1710811991265625
-30.57,1710811991281250
-33.55,1710811991296875
-37.21,1710811991312500
-42.21,1710811991328125
-48.76,1710811991343750
-56.55,1710811991359375
-64.61,1710811991375000
-71.51,1710811991390625
-75.38,1710811991406250
-74.5,1710811991421875
-67.74,1710811991437500
-55.11,1710811991453125
-37.85,1710811991468750
-18.13,1710811991484375
1.58,1710811991500000
19.13,1710811991515625
33.17,1710811991531250
43.16,1710811991546875
49.09,1710811991562500
51.26,1710811991578125
50.02,1710811991593750
45.86,1710811991609375
39.54,1710811991625000
32.05,1710811991640625
24.59,1710811991656250
18.23,1710811991671875
13.69,1710811991687500
11.11,1710811991703125
10.15,1710811991718750
10.15,1710811991734375
10.47,1710811991750000
10.69,1710811991765625
10.76,1710811991781250
10.84,1710811991796875
11.03,1710811991812500
11.17,1710811991828125
10.77,1710811991843750
9.15,1710811991859375
5.82,1710811991875000
0.7,1710811991890625
-5.78,1710811991906250
-12.82,1710811991921875
-19.55,1710811991937500
-25.33,1710811991953125
-29.96,1710811991968750
-33.66,1710811991984375
-36.99,1710811992000000
-40.64,1710811992015625
-45.24,1710811992031250
-51.11,1710811992046875
-58.02,1710811992062500
-65.0,1710811992078125
-70.44,1710811992093750
-72.41,1710811992109375
-69.29,1710811992125000
-60.37,1710811992140625
-46.14,1710811992156250
-28.19,1710811992171875
-8.76,1710811992187500
9.93,1710811992203125
26.14,1710811992218750
38.85,1710811992234375
47.66,1710811992250000
52.59,1710811992265625
53.84,1710811992281250
51.74,1710811992296875
46.76,1710811992312500
39.61,1710811992328125
31.27,1710811992343750
22.89,1710811992359375
15.59,1710811992375000
10.26,1710811992390625
7.24,1710811992406250
6.35,1710811992421875
6.97,1710811992437500
8.35,1710811992453125
9.88,1710811992468750
11.22,1710811992484375
12.25,1710811992500000
12.83,1710811992515625
12.72,1710811992531250
11.52,1710811992546875
8.85,1710811992562500
4.6,1710811992578125
-0.93,1710811992593750
-7.1,1710811992609375
-13.11,1710811992625000
-18.29,1710811992640625
-22.3,1710811992656250
-25.26,1710811992671875
-27.66,1710811992687500
-30.21,1710811992703125
-33.6,1710811992718750
-38.34,1710811992734375
-44.52,1710811992750000
-51.75,1710811992765625
-59.03,1710811992781250
-64.85,1710811992796875
-67.44,1710811992812500
-65.25,1710811992828125
-57.48,1710811992843750
-44.42,1710811992859375
-27.57,1710811992875000
-9.15,1710811992890625
8.52,1710811992906250
23.67,1710811992921875
35.42,1710811992937500
43.65,1710811992953125
48.66,1710811992968750
50.72,1710811992984375
49.89,1710811993000000
46.17,1710811993015625
39.86,1710811993031250
31.8,1710811993046875
23.29,1710811993062500
15.81,1710811993078125
10.46,1710811993093750
7.68,1710811993109375
7.11,1710811993125000
7.85,1710811993140625
8.93,1710811993156250
9.71,1710811993171875
10.1,1710811993187500
10.39,1710811993203125
10.92,1710811993218750
11.73,1710811993234375
12.34,1710811993250000
11.92,1710811993265625
9.73,1710811993281250
5.52,1710811993296875
-0.26,1710811993312500
-6.59,1710811993328125
-12.31,1710811993343750
-16.66,1710811993359375
-19.56,1710811993375000
-21.54,1710811993390625
-23.52,1710811993406250
-26.26,1710811993421875
-30.25,1710811993437500
-35.55,1710811993453125
-41.85,1710811993468750
-48.49,1710811993484375
-54.41,1710811993500000
-58.22,1710811993515625
-58.43,1710811993531250
-53.91,1710811993546875
-44.42,1710811993562500
-30.84,1710811993578125
-14.99,1710811993593750
1.0,1710811993609375
15.26,1710811993625000
26.66,1710811993640625
34.77,1710811993656250
39.66,1710811993671875
41.5,1710811993687500
40.43,1710811993703125
36.73,1710811993718750
30.97,1710811993734375
24.1,1710811993750000
17.27,1710811993765625
11.56,1710811993781250
7.62,1710811993796875
5.54,1710811993812500
4.94,1710811993828125
5.25,1710811993843750
5.99,1710811993859375
6.93,1710811993875000
8.14,1710811993890625
9.79,1710811993906250
12.01,1710811993921875
14.61,1710811993937500
17.11,1710811993953125
18.83,1710811993968750
19.11,1710811993984375
17.64,1710811994000000
14.48,1710811994015625
10.12,1710811994031250
5.22,1710811994046875
0.32,1710811994062500
-4.35,1710811994078125
-8.96,1710811994093750
-14.02,1710811994109375
-20.13,1710811994125000
-27.71,1710811994140625
-36.72,1710811994156250
-46.48,1710811994171875
-55.67,1710811994187500
-62.51,1710811994203125
-65.22,1710811994218750
-62.58,1710811994234375
-54.37,1710811994250000
-41.53,1710811994265625
-25.95,1710811994281250
-9.88,1710811994296875
4.66,1710811994312500
16.33,1710811994328125
24.58,1710811994343750
29.43,1710811994359375
31.17,1710811994375000
30.17,1710811994390625
26.9,1710811994406250
22.04,1710811994421875
16.46,1710811994437500
11.18,1710811994453125
7.05,1710811994468750
4.51,1710811994484375
3.55,1710811994500000
3.81,1710811994515625
4.77,1710811994531250
6.0,1710811994546875
7.26,1710811994562500
8.4,1710811994578125
9.34,1710811994593750
9.95,1710811994609375
9.98,1710811994625000
9.14,1710811994640625
7.14,1710811994656250
3.84,1710811994671875
-0.63,1710811994687500
-5.82,1710811994703125
-11.09,1710811994718750
-15.82,1710811994734375
-19.8,1710811994750000
-23.35,1710811994765625
-27.3,1710811994781250
-32.63,1710811994796875
-39.99,1710811994812500
-49.23,1710811994828125
-59.27,1710811994843750
-68.22,1710811994859375
-73.89,1710811994875000
-74.35,1710811994890625
-68.53,1710811994906250
-56.61,1710811994921875
-40.05,1710811994937500
-21.21,1710811994953125
-2.71,1710811994968750
13.27,1710811994984375
25.39,1710811995000000
33.24,1710811995015625
37.12,1710811995031250
37.6,1710811995046875
35.3,1710811995062500
30.81,1710811995078125
24.88,1710811995093750
18.47,1710811995109375
12.64,1710811995125000
8.32,1710811995140625
5.98,1710811995156250
5.56,1710811995171875
6.51,1710811995187500
8.15,1710811995203125
9.86,1710811995218750
11.26,1710811995234375
12.17,1710811995250000
12.44,1710811995265625
11.86,1710811995281250
10.12,1710811995296875
6.93,1710811995312500
2.14,1710811995328125
-4.04,1710811995343750
-11.09,1710811995359375
-18.19,1710811995375000
-24.57,1710811995390625
-29.8,1710811995406250
-33.93,1710811995421875
-37.45,1710811995437500
-41.01,1710811995453125
-45.02,1710811995468750
-49.37,1710811995484375
-53.48,1710811995500000
-56.33,1710811995515625
-56.58,1710811995531250
-52.52,1710811995546875
-42.06,1710811995562500
-23.15,1710811995578125
5.4,1710811995593750
42.98,1710811995609375
86.72,1710811995625000
132.01,1710811995640625
173.95,1710811995656250
208.98,1710811995671875
235.64,1710811995687500
254.15,1710811995703125
265.24,1710811995718750
268.97,1710811995734375
264.69,1710811995750000
251.87,1710811995765625
231.29,1710811995781250
205.44,1710811995796875
177.83,1710811995812500
151.51,1710811995828125
127.77,1710811995843750
105.8,1710811995859375
83.6,1710811995875000
59.4,1710811995890625
32.79,1710811995906250
4.92,1710811995921875
-22.02,1710811995937500
-45.8,1710811995953125
-64.96,1710811995968750
-79.1,1710811995984375
-88.73,1710811996000000
-94.83,1710811996015625
-98.35,1710811996031250
-100.02,1710811996046875
-100.31,1710811996062500
-99.69,1710811996078125
-98.83,1710811996093750
-98.6,1710811996109375
-99.96,1710811996125000
-103.61,1710811996140625
-109.66,1710811996156250
-117.51,1710811996171875
-125.73,1710811996187500
-132.48,1710811996203125
-135.84,1710811996218750
-134.36,1710811996234375
-127.53,1710811996250000
-115.94,1710811996265625
-101.14,1710811996281250
-85.09,1710811996296875
-69.63,1710811996312500
-55.9,1710811996328125
-44.35,1710811996343750
-34.95,1710811996359375
-27.57,1710811996375000
-22.34,1710811996390625
-19.53,1710811996406250
-19.35,1710811996421875
-21.63,1710811996437500
-25.64,1710811996453125
-30.22,1710811996468750
-34.14,1710811996484375
-36.38,1710811996500000
-36.35,1710811996515625
-34.08,1710811996531250
-29.99,1710811996546875
-24.87,1710811996562500
-19.63,1710811996578125
-15.12,1710811996593750
-11.99,1710811996609375
-10.6,1710811996625000
-10.96,1710811996640625
-12.77,1710811996656250
-15.53,1710811996671875
-18.69,1710811996687500
-21.76,1710811996703125
-24.42,1710811996718750
-26.64,1710811996734375
-28.64,1710811996750000
-30.92,1710811996765625
-34.09,1710811996781250
-38.54,1710811996796875
-44.17,1710811996812500
-50.0,1710811996828125
-54.25,1710811996843750
-54.8,1710811996859375
-49.94,1710811996875000
-39.16,1710811996890625
-23.48,1710811996906250
-5.25,1710811996921875
12.7,1710811996937500
27.95,1710811996953125
39.14,1710811996968750
46.07,1710811996984375
49.32,1710811997000000
49.61,1710811997015625
47.5,1710811997031250
43.35,1710811997046875
37.49,1710811997062500
30.58,1710811997078125
23.54,1710811997093750
17.44,1710811997109375
13.12,1710811997125000
10.97,1710811997140625
10.79,1710811997156250
12.0,1710811997171875
13.8,1710811997187500
15.49,1710811997203125
16.61,1710811997218750
16.97,1710811997234375
16.67,1710811997250000
15.91,1710811997265625
14.91,1710811997281250
13.76,1710811997296875
12.39,1710811997312500
10.61,1710811997328125
8.19,1710811997343750
5.01,1710811997359375
0.94,1710811997375000
-4.11,1710811997390625
-10.28,1710811997406250
-17.68,1710811997421875
-26.03,1710811997437500
-34.43,1710811997453125
-41.28,1710811997468750
-44.59,1710811997484375
-42.65,1710811997500000
-34.77,1710811997515625
-21.7,1710811997531250
-5.5,1710811997546875
11.09,1710811997562500
25.55,1710811997578125
36.23,1710811997593750
42.56,1710811997609375
44.83,1710811997625000
43.75,1710811997640625
40.04,1710811997656250
34.33,1710811997671875
27.25,1710811997687500
19.49,1710811997703125
11.89,1710811997718750
5.27,1710811997734375
0.23,1710811997750000
-2.99,1710811997765625
-4.48,1710811997781250
-4.61,1710811997796875
-3.8,1710811997812500
-2.42,1710811997828125
-0.8,1710811997843750
0.77,1710811997859375
1.88,1710811997875000
2.14,1710811997890625
1.21,1710811997906250
-1.02,1710811997921875
-4.32,1710811997937500
-8.25,1710811997953125
-12.28,1710811997968750
-16.04,1710811997984375
-19.46,1710811998000000
-22.71,1710811998015625
-26.2,1710811998031250
-30.35,1710811998046875
-35.46,1710811998062500
-41.52,1710811998078125
-48.04,1710811998093750
-53.93,1710811998109375
-57.65,1710811998125000
-57.52,1710811998140625
-52.34,1710811998156250
-41.87,1710811998171875
-27.08,1710811998187500
-9.91,1710811998203125
7.28,1710811998218750
22.36,1710811998234375
33.93,1710811998250000
41.49,1710811998265625
45.19,1710811998281250
45.57,1710811998296875
43.34,1710811998312500
39.28,1710811998328125
34.2,1710811998343750
28.96,1710811998359375
24.34,1710811998375000
20.92,1710811998390625
18.89,1710811998406250
18.15,1710811998421875
18.37,1710811998437500
19.14,1710811998453125
20.17,1710811998468750
21.22,1710811998484375
22.12,1710811998500000
22.63,1710811998515625
22.44,1710811998531250
21.19,1710811998546875
18.68,1710811998562500
14.98,1710811998578125
10.44,1710811998593750
5.56,1710811998609375
0.78,1710811998625000
-3.64,1710811998640625
-7.71,1710811998656250
-11.6,1710811998671875
-15.57,1710811998687500
-19.9,1710811998703125
-24.87,1710811998718750
-30.67,1710811998734375
-37.25,1710811998750000
-44.01,1710811998765625
-49.71,1710811998781250
-52.67,1710811998796875
-51.22,1710811998812500
-44.41,1710811998828125
-32.46,1710811998843750
-16.81,1710811998859375
0.31,1710811998875000
16.56,1710811998890625
30.13,1710811998906250
40.08,1710811998921875
46.25,1710811998937500
49.02,1710811998953125
48.97,1710811998968750
46.63,1710811998984375
42.54,1710811999000000
37.22,1710811999015625
31.35,1710811999031250
25.63,1710811999046875
20.79,1710811999062500
17.36,1710811999078125
15.53,1710811999093750
15.08,1710811999109375
15.46,1710811999125000
16.05,1710811999140625
16.36,1710811999156250
16.15,1710811999171875
15.41,1710811999187500
14.18,1710811999203125
12.45,1710811999218750
10.05,1710811999234375
6.82,1710811999250000
2.75,1710811999265625
-1.96,1710811999281250
-6.88,1710811999296875
-11.58,1710811999312500
-15.77,1710811999328125
-19.37,1710811999343750
-22.58,1710811999359375
-25.8,1710811999375000
-29.54,1710811999390625
-34.27,1710811999406250
-40.15,1710811999421875
-46.78,1710811999437500
-53.03,1710811999453125
-57.16,1710811999468750
-57.28,1710811999484375
-52.11,1710811999500000
-41.53,1710811999515625
-26.75,1710811999531250
-9.96,1710811999546875
6.42,1710811999562500
20.46,1710811999578125
31.17,1710811999593750
38.41,1710811999609375
42.51,1710811999625000
43.87,1710811999640625
42.81,1710811999656250
39.63,1710811999671875
34.78,1710811999687500
29.02,1710811999703125
23.29,1710811999718750
18.48,1710811999734375
15.11,1710811999750000
13.28,1710811999765625
12.67,1710811999781250
12.77,1710811999796875
13.13,1710811999812500
13.43,1710811999828125
13.55,1710811999843750
13.43,1710811999859375
12.89,1710811999875000
11.65,1710811999890625
9.4,1710811999906250
6.0,1710811999921875
1.62,1710811999937500
-3.26,1710811999953125
-8.05,1710811999968750
-12.23,1710811999984375
-15.66,1710812000000000
-18.49,1710812000015625
-21.18,1710812000031250
-24.22,1710812000046875
-28.0,1710812000062500
-32.68,1710812000078125
-38.01,1710812000093750
-43.27,1710812000109375
-47.25,1710812000125000
-48.42,1710812000140625
-45.45,1710812000156250
-37.66,1710812000171875
-25.49,1710812000187500
-10.48,1710812000203125
5.17,1710812000218750
19.37,1710812000234375
30.65,1710812000250000
38.49,1710812000265625
43.06,1710812000281250
44.82,1710812000296875
44.15,1710812000312500
41.33,1710812000328125
36.67,1710812000343750
30.74,1710812000359375
24.41,1710812000375000
18.66,1710812000390625
14.3,1710812000406250
11.68,1710812000421875
10.68,1710812000437500
10.89,1710812000453125
11.76,1710812000468750
12.94,1710812000484375
14.18,1710812000500000
15.35,1710812000515625
16.21,1710812000531250
16.39,1710812000546875
15.47,1710812000562500
13.1,1710812000578125
9.24,1710812000593750
4.21,1710812000609375
-1.33,1710812000625000
-6.64,1710812000640625
-11.1,1710812000656250
-14.48,1710812000671875
-17.0,1710812000687500
-19.22,1710812000703125
-21.91,1710812000718750
-25.76,1710812000734375
-31.1,1710812000750000
-37.69,1710812000765625
-44.55,1710812000781250
-50.06,1710812000796875
-52.33,1710812000812500
-49.79,1710812000828125
-41.75,1710812000843750
-28.88,1710812000859375
-13.02,1710812000875000
3.29,1710812000890625
17.69,1710812000906250
28.63,1710812000921875
35.64,1710812000937500
39.12,1710812000953125
39.8,1710812000968750
38.36,1710812000984375
35.21,1710812001000000
30.69,1710812001015625
25.26,1710812001031250
19.66,1710812001046875
14.74,1710812001062500
11.24,1710812001078125
9.46,1710812001093750
9.21,1710812001109375
9.92,1710812001125000
10.95,1710812001140625
11.79,1710812001156250
12.23,1710812001171875
12.32,1710812001187500
12.19,1710812001203125
11.89,1710812001218750
11.25,1710812001234375
9.97,1710812001250000
7.74,1710812001265625
4.48,1710812001281250
0.4,1710812001296875
-4.04,1710812001312500
-8.3,1710812001328125
-11.99,1710812001343750
-15.07,1710812001359375
-17.81,1710812001375000
-20.77,1710812001390625
-24.46,1710812001406250
-29.25,1710812001421875
-35.04,1710812001437500
-41.16,1710812001453125
-46.43,1710812001468750
-49.29,1710812001484375
-48.32,1710812001500000
-42.73,1710812001515625
-32.73,1710812001531250
-19.55,1710812001546875
-5.11,1710812001562500
8.61,1710812001578125
20.12,1710812001593750
28.69,1710812001609375
34.26,1710812001625000
37.04,1710812001640625
37.34,1710812001656250
35.37,1710812001671875
31.44,1710812001687500
26.13,1710812001703125
20.32,1710812001718750
15.03,1710812001734375
11.14,1710812001750000
9.07,1710812001765625
8.65,1710812001781250
9.32,1710812001796875
10.32,1710812001812500
11.15,1710812001828125
11.68,1710812001843750
12.08,1710812001859375
12.56,1710812001875000
13.1,1710812001890625
13.36,1710812001906250
12.7,1710812001921875
10.59,1710812001937500
6.87,1710812001953125
1.95,1710812001968750
-3.35,1710812001984375
-8.15,1710812002000000
-11.81,1710812002015625
-14.33,1710812002031250
-16.15,1710812002046875
-18.04,1710812002062500
-20.79,1710812002078125
-24.87,1710812002093750
-30.26,1710812002109375
-36.41,1710812002125000
-42.17,1710812002140625
-46.04,1710812002156250
-46.57,1710812002171875
-42.68,1710812002187500
-34.22,1710812002203125
-22.02,1710812002218750
-7.72,1710812002234375
6.66,1710812002250000
19.3,1710812002265625
29.04,1710812002281250
35.4,1710812002296875
38.46,1710812002312500
38.62,1710812002328125
36.38,1710812002343750
32.31,1710812002359375
27.09,1710812002375000
21.43,1710812002390625
16.03,1710812002406250
11.42,1710812002421875
7.87,1710812002437500
5.4,1710812002453125
3.94,1710812002468750
3.32,1710812002484375
3.39,1710812002500000
4.0,1710812002515625
4.87,1710812002531250
5.7,1710812002546875
6.07,1710812002562500
5.67,1710812002578125
4.26,1710812002593750
1.8,1710812002609375
-1.56,1710812002625000
-5.53,1710812002640625
-9.71,1710812002656250
-13.69,1710812002671875
-17.12,1710812002687500
-19.86,1710812002703125
-22.06,1710812002718750
-24.14,1710812002734375
-26.67,1710812002750000
-30.11,1710812002765625
-34.48,1710812002781250
-39.12,1710812002796875
-42.74,1710812002812500
-43.77,1710812002828125
-40.92,1710812002843750
-33.71,1710812002859375
-22.72,1710812002875000
-9.45,1710812002890625
4.15,1710812002906250
16.29,1710812002921875
25.77,1710812002937500
32.06,1710812002953125
35.23,1710812002968750
35.62,1710812002984375
33.66,1710812003000000
29.81,1710812003015625
24.59,1710812003031250
18.68,1710812003046875
12.83,1710812003062500
7.81,1710812003078125
4.08,1710812003093750
1.86,1710812003109375
0.98,1710812003125000
1.13,1710812003140625
1.9,1710812003156250
2.97,1710812003171875
4.07,1710812003187500
4.94,1710812003203125
5.31,1710812003218750
4.88,1710812003234375
3.48,1710812003250000
1.11,1710812003265625
-1.95,1710812003281250
-5.31,1710812003296875
-8.54,1710812003312500
-11.42,1710812003328125
-14.03,1710812003343750
-16.66,1710812003359375
-19.8,1710812003375000
-23.85,1710812003390625
-28.96,1710812003406250
-34.79,1710812003421875
-40.41,1710812003437500
-44.44,1710812003453125
-45.38,1710812003468750
-42.19,1710812003484375
-34.6,1710812003500000
-23.37,1710812003515625
-10.02,1710812003531250
3.56,1710812003546875
15.72,1710812003562500
25.29,1710812003578125
31.78,1710812003593750
35.18,1710812003609375
35.77,1710812003625000
33.98,1710812003640625
30.3,1710812003656250
25.33,1710812003671875
19.72,1710812003687500
14.23,1710812003703125
9.48,1710812003718750
5.96,1710812003734375
3.88,1710812003750000
3.14,1710812003765625
3.47,1710812003781250
4.49,1710812003796875
5.87,1710812003812500
7.36,1710812003828125
8.75,1710812003843750
9.75,1710812003859375
10.01,1710812003875000
9.11,1710812003890625
6.8,1710812003906250
3.19,1710812003921875
-1.34,1710812003937500
-6.15,1710812003953125
-10.64,1710812003968750
-14.46,1710812003984375
-17.59,1710812004000000
-20.33,1710812004015625
-23.16,1710812004031250
-26.58,1710812004046875
-30.88,1710812004062500
-35.92,1710812004078125
-41.01,1710812004093750
-44.88,1710812004109375
-46.01,1710812004125000
-43.17,1710812004140625
-35.91,1710812004156250
-24.8,1710812004171875
-11.35,1710812004187500
2.55,1710812004203125
15.21,1710812004218750
25.46,1710812004234375
32.8,1710812004250000
37.14,1710812004265625
38.63,1710812004281250
37.5,1710812004296875
34.17,1710812004312500
29.25,1710812004328125
23.61,1710812004343750
18.18,1710812004359375
13.71,1710812004375000
10.65,1710812004390625
9.04,1710812004406250
8.63,1710812004421875
8.97,1710812004437500
9.63,1710812004453125
10.24,1710812004468750
10.58,1710812004484375
10.59,1710812004500000
10.24,1710812004515625
9.49,1710812004531250
8.18,1710812004546875
6.14,1710812004562500
3.26,1710812004578125
-0.37,1710812004593750
-4.48,1710812004609375
-8.6,1710812004625000
-12.27,1710812004640625
-15.22,1710812004656250
-17.47,1710812004671875
-19.39,1710812004687500
-21.57,1710812004703125
-24.63,1710812004718750
-28.88,1710812004734375
-34.06,1710812004750000
-39.18,1710812004765625
-42.71,1710812004781250
-43.08,1710812004796875
-39.21,1710812004812500
-31.06,1710812004828125
-19.59,1710812004843750
-6.51,1710812004859375
6.33,1710812004875000
17.51,1710812004890625
26.21,1710812004906250
32.17,1710812004921875
35.39,1710812004937500
36.04,1710812004953125
34.33,1710812004968750
30.7,1710812004984375
25.84,1710812005000000
20.71,1710812005015625
16.25,1710812005031250
13.12,1710812005046875
11.52,1710812005062500
11.12,1710812005078125
11.36,1710812005093750
11.58,1710812005109375
11.45,1710812005125000
10.99,1710812005140625
10.46,1710812005156250
10.2,1710812005171875
10.26,1710812005187500
10.4,1710812005203125
10.06,1710812005218750
8.74,1710812005234375
6.2,1710812005250000
2.57,1710812005265625
-1.68,1710812005281250
-6.0,1710812005296875
-9.89,1710812005312500
-13.14,1710812005328125
-15.75,1710812005343750
-18.02,1710812005359375
-20.36,1710812005375000
-23.23,1710812005390625
-26.96,1710812005406250
-31.51,1710812005421875
-36.32,1710812005437500
-40.33,1710812005453125
-42.17,1710812005468750
-40.63,1710812005484375
-35.09,1710812005500000
-25.8,1710812005515625
-13.86,1710812005531250
-0.93,1710812005546875
11.29,1710812005562500
21.46,1710812005578125
28.79,1710812005593750
33.09,1710812005609375
34.58,1710812005625000
33.64,1710812005640625
30.76,1710812005656250
26.51,1710812005671875
21.57,1710812005687500
16.83,1710812005703125
13.11,1710812005718750
11.02,1710812005734375
10.69,1710812005750000
11.72,1710812005765625
13.37,1710812005781250
14.88,1710812005796875
15.83,1710812005812500
16.15,1710812005828125
16.06,1710812005843750
15.77,1710812005859375
15.21,1710812005875000
14.13,1710812005890625
12.14,1710812005906250
9.07,1710812005921875
4.99,1710812005937500
0.31,1710812005953125
-4.45,1710812005968750
-8.79,1710812005984375
-12.45,1710812006000000
-15.42,1710812006015625
-17.94,1710812006031250
-20.35,1710812006046875
-23.02,1710812006062500
-26.22,1710812006078125
-29.97,1710812006093750
-33.97,1710812006109375
-37.48,1710812006125000
-39.52,1710812006140625
-39.02,1710812006156250
-35.21,1710812006171875
-27.94,1710812006187500
-17.77,1710812006203125
-5.91,1710812006218750
6.16,1710812006234375
17.0,1710812006250000
25.66,1710812006265625
31.66,1710812006281250
34.99,1710812006296875
35.84,1710812006312500
34.51,1710812006328125
31.33,1710812006343750
26.72,1710812006359375
21.35,1710812006375000
15.98,1710812006390625
11.38,1710812006406250
8.09,1710812006421875
6.28,1710812006437500
5.75,1710812006453125
6.03,1710812006468750
6.67,1710812006484375
7.33,1710812006500000
7.88,1710812006515625
8.3,1710812006531250
8.51,1710812006546875
8.34,1710812006562500
7.52,1710812006578125
5.8,1710812006593750
3.11,1710812006609375
-0.29,1710812006625000
-3.97,1710812006640625
-7.37,1710812006656250
-10.15,1710812006671875
-12.24,1710812006687500
-13.85,1710812006703125
-15.37,1710812006718750
-17.15,1710812006734375
-19.49,1710812006750000
-22.55,1710812006765625
-26.36,1710812006781250
-30.62,1710812006796875
-34.66,1710812006812500
-37.27,1710812006828125
-37.09,1710812006843750
-33.03,1710812006859375
-24.86,1710812006875000
-13.47,1710812006890625
-0.63,1710812006906250
11.62,1710812006921875
21.69,1710812006937500
28.77,1710812006953125
32.88,1710812006968750
34.42,1710812006984375
33.8,1710812007000000
31.3,1710812007015625
27.17,1710812007031250
21.87,1710812007046875
16.14,1710812007062500
10.85,1710812007078125
6.69,1710812007093750
4.01,1710812007109375
2.75,1710812007125000
2.57,1710812007140625
3.03,1710812007156250
3.85,1710812007171875
4.87,1710812007187500
6.03,1710812007203125
7.19,1710812007218750
8.13,1710812007234375
8.49,1710812007250000
7.97,1710812007265625
6.4,1710812007281250
3.87,1710812007296875
0.65,1710812007312500
-2.91,1710812007328125
-6.56,1710812007343750
-10.16,1710812007359375
-13.78,1710812007375000
-17.45,1710812007390625
-21.28,1710812007406250
-25.33,1710812007421875
-29.64,1710812007437500
-34.22,1710812007453125
-38.79,1710812007468750
-42.72,1710812007484375
-44.98,1710812007500000
-44.43,1710812007515625
-40.27,1710812007531250
-32.41,1710812007546875
-21.7,1710812007562500
-9.55,1710812007578125
2.42,1710812007593750
12.94,1710812007609375
21.35,1710812007625000
27.53,1710812007640625
31.63,1710812007656250
33.8,1710812007671875
34.09,1710812007687500
32.55,1710812007703125
29.46,1710812007718750
25.33,1710812007734375
20.89,1710812007750000
16.89,1710812007765625
13.87,1710812007781250
12.02,1710812007796875
11.19,1710812007812500
11.02,1710812007828125
11.11,1710812007843750
11.21,1710812007859375
11.2,1710812007875000
11.06,1710812007890625
10.71,1710812007906250
9.95,1710812007921875
8.49,1710812007937500
6.09,1710812007953125
2.75,1710812007968750
-1.25,1710812007984375
-5.35,1710812008000000
-8.97,1710812008015625
-11.64,1710812008031250
-13.3,1710812008046875
-14.34,1710812008062500
-15.51,1710812008078125
-17.69,1710812008093750
-21.51,1710812008109375
-26.99,1710812008125000
-33.31,1710812008140625
-39.0,1710812008156250
-42.35,1710812008171875
-41.95,1710812008187500
-37.31,1710812008203125
-28.92,1710812008218750
-18.2,1710812008234375
-6.84,1710812008250000
3.59,1710812008265625
12.05,1710812008281250
18.11,1710812008296875
21.73,1710812008312500
23.1,1710812008328125
22.43,1710812008343750
19.99,1710812008359375
16.16,1710812008375000
11.53,1710812008390625
6.83,1710812008406250
2.77,1710812008421875
-0.1,1710812008437500
-1.61,1710812008453125
-1.9,1710812008468750
-1.37,1710812008484375
-0.41,1710812008500000
0.71,1710812008515625
1.9,1710812008531250
3.13,1710812008546875
4.29,1710812008562500
5.15,1710812008578125
5.31,1710812008593750
4.49,1710812008609375
2.57,1710812008625000
-0.29,1710812008640625
-3.7,1710812008656250
-7.24,1710812008671875
-10.5,1710812008687500
-13.26,1710812008703125
-15.48,1710812008718750
-17.37,1710812008734375
-19.28,1710812008750000
-21.68,1710812008765625
-24.85,1710812008781250
-28.6,1710812008796875
-32.12,1710812008812500
-34.12,1710812008828125
-33.27,1710812008843750
-28.71,1710812008859375
-20.55,1710812008875000
-9.83,1710812008890625
1.82,1710812008906250
12.71,1710812008921875
21.65,1710812008937500
28.08,1710812008953125
31.99,1710812008968750
33.64,1710812008984375
33.3,1710812009000000
31.2,1710812009015625
27.63,1710812009031250
23.03,1710812009046875
18.04,1710812009062500
13.43,1710812009078125
9.87,1710812009093750
7.71,1710812009109375
6.93,1710812009125000
7.16,1710812009140625
7.85,1710812009156250
8.55,1710812009171875
8.97,1710812009187500
9.03,1710812009203125
8.82,1710812009218750
8.41,1710812009234375
7.76,1710812009250000
6.78,1710812009265625
5.34,1710812009281250
3.4,1710812009296875
1.02,1710812009312500
-1.64,1710812009328125
-4.4,1710812009343750
-7.13,1710812009359375
-9.79,1710812009375000
-12.46,1710812009390625
-15.37,1710812009406250
-18.71,1710812009421875
-22.5,1710812009437500
-26.28,1710812009453125
-29.16,1710812009468750
-29.95,1710812009484375
-27.66,1710812009500000
-21.94,1710812009515625
-13.27,1710812009531250
-2.92,1710812009546875
7.57,1710812009562500
16.81,1710812009578125
23.98,1710812009593750
28.74,1710812009609375
31.07,1710812009625000
31.07,1710812009640625
28.84,1710812009656250
24.67,1710812009671875
19.11,1710812009687500
12.96,1710812009703125
7.16,1710812009718750
2.44,1710812009734375
-0.75,1710812009750000
-2.39,1710812009765625
-2.65,1710812009781250
-1.79,1710812009796875
-0.0,1710812009812500
2.56,1710812009828125
5.75,1710812009843750
9.28,1710812009859375
12.69,1710812009875000
15.45,1710812009890625
17.09,1710812009906250
17.38,1710812009921875
16.51,1710812009937500
14.96,1710812009953125
13.33,1710812009968750
12.1,1710812009984375
11.4,1710812010000000
11.05,1710812010015625
10.65,1710812010031250
9.73,1710812010046875
7.94,1710812010062500
5.15,1710812010078125
1.47,1710812010093750
-2.65,1710812010109375
-6.41,1710812010125000
-8.84,1710812010140625
-9.0,1710812010156250
-6.33,1710812010171875
-0.91,1710812010187500
6.62,1710812010203125
15.19,1710812010218750
23.72,1710812010234375
31.35,1710812010250000
37.58,1710812010265625
42.11,1710812010281250
44.79,1710812010296875
45.54,1710812010312500
44.54,1710812010328125
42.35,1710812010343750
39.97,1710812010359375
38.7,1710812010375000
39.77,1710812010390625
43.84,1710812010406250
50.63,1710812010421875
58.81,1710812010437500
66.33,1710812010453125
71.0,1710812010468750
71.18,1710812010484375
66.21,1710812010500000
56.58,1710812010515625
43.64,1710812010531250
29.08,1710812010546875
14.49,1710812010562500
1.03,1710812010578125
-10.63,1710812010593750
-20.21,1710812010609375
-27.77,1710812010625000
-33.6,1710812010640625
-38.26,1710812010656250
-42.64,1710812010671875
-47.8,1710812010687500
-54.66,1710812010703125
-63.72,1710812010718750
-74.64,1710812010734375
-86.18,1710812010750000
-96.43,1710812010765625
-103.39,1710812010781250
-105.63,1710812010796875
-102.86,1710812010812500
-95.99,1710812010828125
-86.75,1710812010843750
-76.99,1710812010859375
-68.11,1710812010875000
-60.71,1710812010890625
-54.75,1710812010906250
-49.89,1710812010921875
-45.87,1710812010937500
-42.74,1710812010953125
-40.71,1710812010968750
-39.94,1710812010984375
-40.27,1710812011000000
-41.25,1710812011015625
-42.25,1710812011031250
-42.73,1710812011046875
-42.49,1710812011062500
-41.71,1710812011078125
-40.89,1710812011093750
-40.63,1710812011109375
-41.33,1710812011125000
-43.08,1710812011140625
-45.48,1710812011156250
-47.89,1710812011171875
-49.59,1710812011187500
-50.11,1710812011203125
-49.32,1710812011218750
-47.43,1710812011234375
-44.83,1710812011250000
-41.85,1710812011265625
-38.79,1710812011281250
-35.93,1710812011296875
-33.74,1710812011312500
-32.75,1710812011328125
-33.46,1710812011343750
-35.79,1710812011359375
-38.93,1710812011375000
-41.29,1710812011390625
-41.0,1710812011406250
-36.59,1710812011421875
-27.47,1710812011437500
-14.01,1710812011453125
2.82,1710812011468750
21.97,1710812011484375
42.51,1710812011500000
63.46,1710812011515625
83.48,1710812011531250
100.66,1710812011546875
112.83,1710812011562500
118.41,1710812011578125
117.11,1710812011593750
110.3,1710812011609375
100.56,1710812011625000
90.81,1710812011640625
83.26,1710812011656250
79.02,1710812011671875
78.1,1710812011687500
79.88,1710812011703125
83.53,1710812011718750
88.14,1710812011734375
92.7,1710812011750000
96.13,1710812011765625
97.54,1710812011781250
96.56,1710812011796875
93.54,1710812011812500
89.29,1710812011828125
84.56,1710812011843750
79.6,1710812011859375
74.19,1710812011875000
67.9,1710812011890625
60.56,1710812011906250
52.36,1710812011921875
43.46,1710812011937500
33.55,1710812011953125
21.68,1710812011968750
6.8,1710812011984375
-11.34,1710812012000000
-31.46,1710812012015625
-50.84,1710812012031250
-66.07,1710812012046875
-74.23,1710812012062500
-73.69,1710812012078125
-64.33,1710812012093750
-47.09,1710812012109375
-23.61,1710812012125000
4.08,1710812012140625
33.55,1710812012156250
61.92,1710812012171875
86.06,1710812012187500
103.25,1710812012203125
111.83,1710812012218750
111.98,1710812012234375
105.82,1710812012250000
96.93,1710812012265625
89.21,1710812012281250
85.47,1710812012296875
86.42,1710812012312500
90.49,1710812012328125
94.68,1710812012343750
96.0,1710812012359375
92.85,1710812012375000
85.58,1710812012390625
76.13,1710812012406250
66.96,1710812012421875
60.12,1710812012437500
56.9,1710812012453125
57.96,1710812012468750
63.69,1710812012484375
74.21,1710812012500000
89.15,1710812012515625
107.38,1710812012531250
127.08,1710812012546875
146.25,1710812012562500
163.17,1710812012578125
176.75,1710812012593750
186.39,1710812012609375
191.67,1710812012625000
192.24,1710812012640625
188.1,1710812012656250
179.92,1710812012671875
169.24,1710812012687500
158.07,1710812012703125
148.15,1710812012718750
140.04,1710812012734375
132.73,1710812012750000
124.0,1710812012765625
111.15,1710812012781250
91.79,1710812012796875
64.51,1710812012812500
29.14,1710812012828125
-12.98,1710812012843750
-59.01,1710812012859375
-104.83,1710812012875000
-145.58,1710812012890625
-177.05,1710812012906250
-197.27,1710812012921875
-207.62,1710812012937500
-212.53,1710812012953125
-217.34,1710812012968750
-225.63,1710812012984375
-237.36,1710812013000000
-249.17,1710812013015625
-256.72,1710812013031250
-257.7,1710812013046875
-253.7,1710812013062500
-249.72,1710812013078125
-251.7,1710812013093750
-263.47,1710812013109375
-285.04,1710812013125000
-312.82,1710812013140625
-341.27,1710812013156250
-364.74,1710812013171875
-378.79,1710812013187500
-380.6,1710812013203125
-369.02,1710812013218750
-344.87,1710812013234375
-311.05,1710812013250000
-272.31,1710812013265625
-234.09,1710812013281250
-201.0,1710812013296875
-175.61,1710812013312500
-158.15,1710812013328125
-146.92,1710812013343750
-139.33,1710812013359375
-132.78,1710812013375000
-125.2,1710812013390625
-115.22,1710812013406250
-102.13,1710812013421875
-85.9,1710812013437500
-66.94,1710812013453125
-46.07,1710812013468750
-24.16,1710812013484375
-2.09,1710812013500000
19.23,1710812013515625
38.66,1710812013531250
54.9,1710812013546875
66.82,1710812013562500
73.85,1710812013578125
76.27,1710812013593750
75.03,1710812013609375
71.35,1710812013625000
66.15,1710812013640625
59.85,1710812013656250
52.46,1710812013671875
43.95,1710812013687500
34.42,1710812013703125
24.08,1710812013718750
13.06,1710812013734375
1.27,1710812013750000
-11.37,1710812013765625
-24.56,1710812013781250
-37.15,1710812013796875
-47.29,1710812013812500
-52.81,1710812013828125
-52.2,1710812013843750
-45.35,1710812013859375
-33.86,1710812013875000
-20.55,1710812013890625
-8.49,1710812013906250
0.04,1710812013921875
4.23,1710812013937500
4.73,1710812013953125
3.07,1710812013968750
0.87,1710812013984375
-0.84,1710812014000000
-1.77,1710812014015625
-2.15,1710812014031250
-2.2,1710812014046875
-1.75,1710812014062500
-0.03,1710812014078125
4.17,1710812014093750
11.95,1710812014109375
23.72,1710812014125000
38.81,1710812014140625
55.53,1710812014156250
71.55,1710812014171875
84.67,1710812014187500
93.47,1710812014203125
97.62,1710812014218750
97.82,1710812014234375
95.37,1710812014250000
91.64,1710812014265625
87.58,1710812014281250
83.6,1710812014296875
79.38,1710812014312500
74.05,1710812014328125
66.32,1710812014343750
55.13,1710812014359375
40.21,1710812014375000
22.83,1710812014390625
5.87,1710812014406250
-6.83,1710812014421875
-11.69,1710812014437500
-6.93,1710812014453125
6.7,1710812014468750
25.93,1710812014484375
46.25,1710812014500000
63.43,1710812014515625
74.95,1710812014531250
80.53,1710812014546875
81.87,1710812014562500
81.65,1710812014578125
82.43,1710812014593750
85.85,1710812014609375
92.09,1710812014625000
99.91,1710812014640625
107.05,1710812014656250
110.87,1710812014671875
109.3,1710812014687500
101.42,1710812014703125
87.93,1710812014718750
70.86,1710812014734375
53.02,1710812014750000
37.04,1710812014765625
24.66,1710812014781250
16.3,1710812014796875
11.05,1710812014812500
7.24,1710812014828125
3.03,1710812014843750
-2.92,1710812014859375
-11.15,1710812014875000
-21.38,1710812014890625
-32.8,1710812014906250
-44.47,1710812014921875
-55.63,1710812014937500
-65.99,1710812014953125
-75.73,1710812014968750
-85.43,1710812014984375
-95.78,1710812015000000
-107.18,1710812015015625
-119.29,1710812015031250
-130.81,1710812015046875
-139.51,1710812015062500
-142.85,1710812015078125
-138.84,1710812015093750
-126.84,1710812015109375
-107.96,1710812015125000
-84.73,1710812015140625
-60.25,1710812015156250
-37.12,1710812015171875
-16.75,1710812015187500
0.76,1710812015203125
16.25,1710812015218750
30.73,1710812015234375
44.76,1710812015250000
58.09,1710812015265625
69.83,1710812015281250
78.77,1710812015296875
83.88,1710812015312500
84.67,1710812015328125
81.3,1710812015343750
74.54,1710812015359375
65.6,1710812015375000
55.93,1710812015390625
47.14,1710812015406250
40.75,1710812015421875
37.97,1710812015437500
39.37,1710812015453125
44.61,1710812015468750
52.34,1710812015484375
60.65,1710812015500000
67.58,1710812015515625
71.77,1710812015531250
72.66,1710812015546875
70.39,1710812015562500
65.39,1710812015578125
57.95,1710812015593750
48.28,1710812015609375
36.82,1710812015625000
24.74,1710812015640625
14.07,1710812015656250
7.61,1710812015671875
8.3,1710812015687500
18.71,1710812015703125
40.42,1710812015718750
73.56,1710812015734375
116.66,1710812015750000
166.35,1710812015765625
217.59,1710812015781250
264.11,1710812015796875
299.65,1710812015812500
319.29,1710812015828125
320.61,1710812015843750
304.24,1710812015859375
273.49,1710812015875000
233.29,1710812015890625
188.92,1710812015906250
144.93,1710812015921875
104.6,1710812015937500
69.87,1710812015953125
41.48,1710812015968750
19.23,1710812015984375
2.27,1710812016000000
-10.6,1710812016015625
-20.56,1710812016031250
-28.56,1710812016046875
-35.1,1710812016062500
-40.38,1710812016078125
-44.47,1710812016093750
-47.74,1710812016109375
-50.98,1710812016125000
-55.29,1710812016140625
-61.75,1710812016156250
-71.03,1710812016171875
-83.04,1710812016187500
-96.91,1710812016203125
-111.27,1710812016218750
-124.66,1710812016234375
-135.93,1710812016250000
-144.52,1710812016265625
-150.41,1710812016281250
-154.11,1710812016296875
-156.35,1710812016312500
-157.95,1710812016328125
-159.57,1710812016343750
-161.39,1710812016359375
-163.01,1710812016375000
-163.37,1710812016390625
-160.97,1710812016406250
-154.27,1710812016421875
-142.29,1710812016437500
-124.97,1710812016453125
-103.35,1710812016468750
-79.35,1710812016484375
-55.29,1710812016500000
-33.3,1710812016515625
-14.82,1710812016531250
-0.42,1710812016546875
10.09,1710812016562500
17.28,1710812016578125
21.74,1710812016593750
23.91,1710812016609375
24.06,1710812016625000
22.45,1710812016640625
19.48,1710812016656250
15.8,1710812016671875
12.16,1710812016687500
9.24,1710812016703125
7.36,1710812016718750
6.41,1710812016734375
5.91,1710812016750000
5.19,1710812016765625
3.84,1710812016781250
1.88,1710812016796875
-0.18,1710812016812500
-1.59,1710812016828125
-1.8,1710812016843750
-0.83,1710812016859375
0.62,1710812016875000
1.5,1710812016890625
0.75,1710812016906250
-2.13,1710812016921875
-6.94,1710812016937500
-12.93,1710812016953125
-19.24,1710812016968750
-25.29,1710812016984375
-31.04,1710812017000000
-36.89,1710812017015625
-43.43,1710812017031250
-51.14,1710812017046875
-60.08,1710812017062500
-69.88,1710812017078125
-79.68,1710812017093750
-88.29,1710812017109375
-94.24,1710812017125000
-96.04,1710812017140625
-92.5,1710812017156250
-82.98,1710812017171875
-67.61,1710812017187500
-47.31,1710812017203125
-23.66,1710812017218750
1.3,1710812017234375
25.49,1710812017250000
47.05,1710812017265625
64.6,1710812017281250
77.22,1710812017296875
84.36,1710812017312500
85.63,1710812017328125
81.0,1710812017343750
71.0,1710812017359375
57.09,1710812017375000
41.5,1710812017390625
26.77,1710812017406250
14.86,1710812017421875
6.45,1710812017437500
0.88,1710812017453125
-3.33,1710812017468750
-7.33,1710812017484375
-11.24,1710812017500000
-14.02,1710812017515625
-14.2,1710812017531250
-10.89,1710812017546875
-4.37,1710812017562500
3.86,1710812017578125
11.93,1710812017593750
18.36,1710812017609375
22.59,1710812017625000
24.91,1710812017640625
26.05,1710812017656250
26.89,1710812017671875
28.43,1710812017687500
31.86,1710812017703125
38.31,1710812017718750
48.45,1710812017734375
61.78,1710812017750000
76.57,1710812017765625
90.34,1710812017781250
100.72,1710812017796875
106.24,1710812017812500
106.57,1710812017828125
102.28,1710812017843750
94.24,1710812017859375
83.55,1710812017875000
71.44,1710812017890625
59.6,1710812017906250
50.07,1710812017921875
44.72,1710812017937500
44.56,1710812017953125
49.17,1710812017968750
56.86,1710812017984375
65.23,1710812018000000
72.12,1710812018015625
76.16,1710812018031250
76.81,1710812018046875
74.23,1710812018062500
68.81,1710812018078125
61.09,1710812018093750
51.6,1710812018109375
40.94,1710812018125000
29.76,1710812018140625
18.9,1710812018156250
9.24,1710812018171875
1.6,1710812018187500
-3.54,1710812018203125
-6.31,1710812018218750
-7.45,1710812018234375
-8.15,1710812018250000
-9.56,1710812018265625
-12.33,1710812018281250
-16.35,1710812018296875
-20.9,1710812018312500
-25.09,1710812018328125
-28.27,1710812018343750
-30.36,1710812018359375
-31.73,1710812018375000
-33.05,1710812018390625
-34.78,1710812018406250
-36.99,1710812018421875
-39.25,1710812018437500
-40.97,1710812018453125
-41.66,1710812018468750
-41.28,1710812018484375
-40.31,1710812018500000
-39.62,1710812018515625
-40.17,1710812018531250
-42.79,1710812018546875
-47.9,1710812018562500
-55.38,1710812018578125
-64.4,1710812018593750
-73.43,1710812018609375
-80.42,1710812018625000
-83.43,1710812018640625
-81.1,1710812018656250
-73.25,1710812018671875
-60.88,1710812018687500
-45.85,1710812018703125
-30.28,1710812018718750
-15.95,1710812018734375
-4.01,1710812018750000
5.11,1710812018765625
11.45,1710812018781250
15.39,1710812018796875
17.44,1710812018812500
18.18,1710812018828125
18.18,1710812018843750
17.98,1710812018859375
17.97,1710812018875000
18.37,1710812018890625
19.24,1710812018906250
20.45,1710812018921875
21.83,1710812018937500
23.15,1710812018953125
24.29,1710812018968750
25.08,1710812018984375
25.34,1710812019000000
24.77,1710812019015625
23.01,1710812019031250
19.95,1710812019046875
15.8,1710812019062500
11.03,1710812019078125
5.99,1710812019093750
0.44,1710812019109375
-6.6,1710812019125000
-16.5,1710812019140625
-30.11,1710812019156250
-46.99,1710812019171875
-64.97,1710812019187500
-80.99,1710812019203125
-92.12,1710812019218750
-96.8,1710812019234375
-95.26,1710812019250000
-89.13,1710812019265625
-80.54,1710812019281250
-71.27,1710812019296875
-62.66,1710812019312500
-55.75,1710812019328125
-51.52,1710812019343750
-50.52,1710812019359375
-52.11,1710812019375000
-54.12,1710812019390625
-53.1,1710812019406250
-45.72,1710812019421875
-30.38,1710812019437500
-8.33,1710812019453125
16.6,1710812019468750
39.47,1710812019484375
56.23,1710812019500000
65.13,1710812019515625
66.89,1710812019531250
63.82,1710812019546875
58.38,1710812019562500
52.22,1710812019578125
45.89,1710812019593750
39.42,1710812019609375
32.84,1710812019625000
26.58,1710812019640625
21.34,1710812019656250
17.59,1710812019671875
15.47,1710812019687500
14.6,1710812019703125
14.31,1710812019718750
13.96,1710812019734375
13.09,1710812019750000
11.37,1710812019765625
8.44,1710812019781250
3.74,1710812019796875
-3.41,1710812019812500
-13.52,1710812019828125
-26.56,1710812019843750
-41.69,1710812019859375
-57.24,1710812019875000
-71.16,1710812019890625
-81.53,1710812019906250
-87.24,1710812019921875
-88.34,1710812019937500
-86.09,1710812019953125
-82.59,1710812019968750
-80.15,1710812019984375
-80.57,1710812020000000
-84.63,1710812020015625
-91.8,1710812020031250
-100.69,1710812020046875
-109.65,1710812020062500
-117.57,1710812020078125
-124.37,1710812020093750
-130.79,1710812020109375
-137.71,1710812020125000
-145.3,1710812020140625
-152.4,1710812020156250
-156.78,1710812020171875
-155.93,1710812020187500
-148.2,1710812020203125
-133.52,1710812020218750
-113.49,1710812020234375
-90.63,1710812020250000
-67.29,1710812020265625
-44.94,1710812020281250
-24.01,1710812020296875
-4.34,1710812020312500
14.03,1710812020328125
30.52,1710812020343750
44.05,1710812020359375
53.64,1710812020375000
58.96,1710812020390625
60.73,1710812020406250
60.5,1710812020421875
60.1,1710812020437500
60.85,1710812020453125
63.17,1710812020468750
66.48,1710812020484375
69.75,1710812020500000
71.99,1710812020515625
72.84,1710812020531250
72.7,1710812020546875
72.43,1710812020562500
72.9,1710812020578125
74.46,1710812020593750
76.73,1710812020609375
78.53,1710812020625000
78.4,1710812020640625
75.06,1710812020656250
67.97,1710812020671875
57.58,1710812020687500
45.19,1710812020703125
32.57,1710812020718750
21.34,1710812020734375
12.5,1710812020750000
6.13,1710812020765625
1.45,1710812020781250
-3.03,1710812020796875
-9.16,1710812020812500
-18.69,1710812020828125
-32.77,1710812020843750
-51.41,1710812020859375
-73.19,1710812020875000
-95.42,1710812020890625
-114.79,1710812020906250
-128.2,1710812020921875
-133.62,1710812020937500
-130.6,1710812020953125
-120.1,1710812020968750
-104.25,1710812020984375
-85.48,1710812021000000
-66.17,1710812021015625
-48.13,1710812021031250
-32.6,1710812021046875
-20.18,1710812021062500
-11.05,1710812021078125
-4.87,1710812021093750
-0.65,1710812021109375
3.15,1710812021125000
8.37,1710812021140625
16.53,1710812021156250
28.11,1710812021171875
42.16,1710812021187500
56.56,1710812021203125
68.95,1710812021218750
77.87,1710812021234375
83.55,1710812021250000
87.53,1710812021265625
91.77,1710812021281250
97.34,1710812021296875
103.8,1710812021312500
109.52,1710812021328125
112.6,1710812021343750
111.97,1710812021359375
107.66,1710812021375000
100.62,1710812021390625
91.92,1710812021406250
82.25,1710812021421875
71.77,1710812021437500
60.33,1710812021453125
47.86,1710812021468750
34.45,1710812021484375
20.38,1710812021500000
5.74,1710812021515625
-9.49,1710812021531250
-25.46,1710812021546875
-42.06,1710812021562500
-58.66,1710812021578125
-73.87,1710812021593750
-85.66,1710812021609375
-91.71,1710812021625000
-90.19,1710812021640625
-80.41,1710812021656250
-63.25,1710812021671875
-41.11,1710812021687500
-17.27,1710812021703125
5.06,1710812021718750
23.56,1710812021734375
37.27,1710812021750000
46.46,1710812021765625
52.17,1710812021781250
55.52,1710812021796875
57.32,1710812021812500
57.78,1710812021828125
56.76,1710812021843750
54.05,1710812021859375
49.75,1710812021875000
44.37,1710812021890625
38.85,1710812021906250
34.19,1710812021921875
31.09,1710812021937500
29.72,1710812021953125
29.68,1710812021968750
30.26,1710812021984375
30.82,1710812022000000
30.87,1710812022015625
30.31,1710812022031250
29.15,1710812022046875
27.45,1710812022062500
25.23,1710812022078125
22.46,1710812022093750
19.1,1710812022109375
15.13,1710812022125000
10.58,1710812022140625
5.43,1710812022156250
-0.27,1710812022171875
-6.43,1710812022187500
-12.83,1710812022203125
-19.23,1710812022218750
-25.34,1710812022234375
-30.95,1710812022250000
-36.01,1710812022265625
-40.63,1710812022281250
-45.16,1710812022296875
-50.2,1710812022312500
-56.5,1710812022328125
-64.66,1710812022343750
-74.68,1710812022359375
-85.49,1710812022375000
-95.0,1710812022390625
-100.52,1710812022406250
-99.53,1710812022421875
-90.59,1710812022437500
-73.89,1710812022453125
-51.23,1710812022468750
-25.48,1710812022484375
0.26,1710812022500000
23.47,1710812022515625
42.58,1710812022531250
57.02,1710812022546875
66.95,1710812022562500
72.74,1710812022578125
74.85,1710812022593750
73.74,1710812022609375
70.01,1710812022625000
64.53,1710812022640625
58.42,1710812022656250
52.9,1710812022671875
48.86,1710812022687500
46.67,1710812022703125
46.07,1710812022718750
46.36,1710812022734375
46.78,1710812022750000
46.74,1710812022765625
46.05,1710812022781250
44.86,1710812022796875
43.58,1710812022812500
42.46,1710812022828125
41.58,1710812022843750
40.54,1710812022859375
38.66,1710812022875000
35.23,1710812022890625
29.84,1710812022906250
22.67,1710812022921875
14.48,1710812022937500
6.29,1710812022953125
-1.07,1710812022968750
-7.29,1710812022984375
-12.63,1710812023000000
-17.73,1710812023015625
-23.25,1710812023031250
-29.73,1710812023046875
-37.53,1710812023062500
-46.81,1710812023078125
-57.32,1710812023093750
-68.12,1710812023109375
-77.38,1710812023125000
-82.68,1710812023140625
-81.64,1710812023156250
-72.88,1710812023171875
-56.68,1710812023187500
-35.01,1710812023203125
-10.95,1710812023218750
12.37,1710812023234375
32.54,1710812023250000
48.4,1710812023265625
59.79,1710812023281250
