value,timestamp
-0.0,1710832191000000
-0.0,1710832191015625
-0.0,1710832191031250
-0.0,1710832191046875
-0.0,1710832191062500
-0.0,1710832191078125
-0.0,1710832191093750
-0.0,1710832191109375
-0.0,1710832191125000
-0.0,1710832191140625
0.0,1710832191156250
0.01,1710832191171875
0.01,1710832191187500
-0.0,1710832191203125
-0.03,1710832191218750
-0.05,1710832191234375
-0.05,1710832191250000
0.0,1710832191265625
0.13,1710832191281250
0.36,1710832191296875
0.66,1710832191312500
1.01,1710832191328125
1.37,1710832191343750
1.72,1710832191359375
2.06,1710832191375000
2.4,1710832191390625
2.79,1710832191406250
3.24,1710832191421875
3.8,1710832191437500
4.42,1710832191453125
5.06,1710832191468750
5.66,1710832191484375
6.2,1710832191500000
6.68,1710832191515625
7.15,1710832191531250
7.68,1710832191546875
8.31,1710832191562500
9.14,1710832191578125
10.09,1710832191593750
11.04,1710832191609375
11.88,1710832191625000
12.56,1710832191640625
13.14,1710832191656250
13.76,1710832191671875
14.65,1710832191687500
15.96,1710832191703125
17.91,1710832191718750
20.32,1710832191734375
22.9,1710832191750000
25.38,1710832191765625
27.58,1710832191781250
29.57,1710832191796875
31.68,1710832191812500
34.32,1710832191828125
37.81,1710832191843750
42.54,1710832191859375
48.15,1710832191875000
54.1,1710832191890625
59.83,1710832191906250
64.97,1710832191921875
69.58,1710832191937500
74.14,1710832191953125
79.34,1710832191968750
85.71,1710832191984375
93.76,1710832192000000
103.0,1710832192015625
112.62,1710832192031250
121.73,1710832192046875
129.77,1710832192062500
136.75,1710832192078125
143.3,1710832192093750
150.75,1710832192109375
157.77,1710832192125000
166.64,1710832192140625
177.95,1710832192156250
191.79,1710832192171875
206.97,1710832192187500
220.57,1710832192203125
228.25,1710832192218750
225.36,1710832192234375
208.53,1710832192250000
176.87,1710832192265625
132.76,1710832192281250
80.05,1710832192296875
23.07,1710832192312500
-34.94,1710832192328125
-92.44,1710832192343750
-149.16,1710832192359375
-205.23,1710832192375000
-260.37,1710832192390625
-313.74,1710832192406250
-363.87,1710832192421875
-409.83,1710832192437500
-450.91,1710832192453125
-486.5,1710832192468750
-515.74,1710832192484375
-537.23,1710832192500000
-549.22,1710832192515625
-549.96,1710832192531250
-538.37,1710832192546875
-514.21,1710832192562500
-478.67,1710832192578125
-433.88,1710832192593750
-382.45,1710832192609375
-327.02,1710832192625000
-269.84,1710832192640625
-212.63,1710832192656250
-156.66,1710832192671875
-102.95,1710832192687500
-52.37,1710832192703125
-5.9,1710832192718750
35.58,1710832192734375
71.43,1710832192750000
101.35,1710832192765625
125.5,1710832192781250
144.38,1710832192796875
158.69,1710832192812500
169.15,1710832192828125
176.37,1710832192843750
180.75,1710832192859375
182.57,1710832192875000
182.07,1710832192890625
179.51,1710832192906250
175.23,1710832192921875
169.65,1710832192937500
163.18,1710832192953125
156.15,1710832192968750
148.81,1710832192984375
141.3,1710832193000000
133.69,1710832193015625
126.02,1710832193031250
118.33,1710832193046875
110.69,1710832193062500
103.16,1710832193078125
95.8,1710832193093750
88.68,1710832193109375
81.83,1710832193125000
75.25,1710832193140625
68.95,1710832193156250
62.95,1710832193171875
57.25,1710832193187500
51.86,1710832193203125
46.78,1710832193218750
42.03,1710832193234375
37.59,1710832193250000
33.45,1710832193265625
29.61,1710832193281250
26.07,1710832193296875
22.81,1710832193312500
19.83,1710832193328125
17.11,1710832193343750
14.67,1710832193359375
12.48,1710832193375000
10.54,1710832193390625
8.83,1710832193406250
7.35,1710832193421875
6.07,1710832193437500
4.97,1710832193453125
4.05,1710832193468750
3.27,1710832193484375
2.62,1710832193500000
2.09,1710832193515625
1.65,1710832193531250
1.3,1710832193546875
1.01,1710832193562500
0.79,1710832193578125
0.61,1710832193593750
0.48,1710832193609375
0.37,1710832193625000
0.28,1710832193640625
0.22,1710832193656250
0.17,1710832193671875
0.14,1710832193687500
0.11,1710832193703125
0.09,1710832193718750
0.08,1710832193734375
0.07,1710832193750000
0.07,1710832193765625
0.08,1710832193781250
0.1,1710832193796875
0.12,1710832193812500
0.16,1710832193828125
0.2,1710832193843750
0.25,1710832193859375
0.32,1710832193875000
0.39,1710832193890625
0.46,1710832193906250
0.54,1710832193921875
0.63,1710832193937500
0.71,1710832193953125
0.8,1710832193968750
0.88,1710832193984375
0.96,1710832194000000
1.04,1710832194015625
1.12,1710832194031250
1.2,1710832194046875
1.29,1710832194062500
1.38,1710832194078125
1.48,1710832194093750
1.58,1710832194109375
1.71,1710832194125000
1.84,1710832194140625
2.0,1710832194156250
2.18,1710832194171875
2.39,1710832194187500
2.62,1710832194203125
2.89,1710832194218750
3.19,1710832194234375
3.52,1710832194250000
3.9,1710832194265625
4.31,1710832194281250
4.77,1710832194296875
5.28,1710832194312500
5.84,1710832194328125
6.44,1710832194343750
7.11,1710832194359375
7.82,1710832194375000
8.6,1710832194390625
9.43,1710832194406250
10.33,1710832194421875
11.28,1710832194437500
12.29,1710832194453125
13.36,1710832194468750
14.49,1710832194484375
15.68,1710832194500000
16.93,1710832194515625
18.25,1710832194531250
19.62,1710832194546875
21.05,1710832194562500
22.55,1710832194578125
24.13,1710832194593750
25.78,1710832194609375
27.53,1710832194625000
29.34,1710832194640625
31.19,1710832194656250
33.02,1710832194671875
34.71,1710832194687500
36.12,1710832194703125
37.04,1710832194718750
37.23,1710832194734375
36.45,1710832194750000
34.48,1710832194765625
31.14,1710832194781250
26.31,1710832194796875
19.93,1710832194812500
12.08,1710832194828125
2.96,1710832194843750
-7.09,1710832194859375
-17.61,1710832194875000
-28.06,1710832194890625
-37.85,1710832194906250
-46.45,1710832194921875
-53.4,1710832194937500
-58.39,1710832194953125
-61.24,1710832194968750
-61.94,1710832194984375
-60.61,1710832195000000
-57.46,1710832195015625
-52.78,1710832195031250
-46.91,1710832195046875
-40.3,1710832195062500
-33.37,1710832195078125
-26.55,1710832195093750
-20.2,1710832195109375
-14.63,1710832195125000
-9.99,1710832195140625
-6.21,1710832195156250
-3.15,1710832195171875
-0.55,1710832195187500
1.78,1710832195203125
3.93,1710832195218750
5.86,1710832195234375
7.46,1710832195250000
8.47,1710832195265625
8.81,1710832195281250
8.62,1710832195296875
8.22,1710832195312500
7.95,1710832195328125
8.03,1710832195343750
8.4,1710832195359375
8.78,1710832195375000
8.8,1710832195390625
7.85,1710832195406250
5.72,1710832195421875
2.71,1710832195437500
-0.55,1710832195453125
-3.32,1710832195468750
-5.16,1710832195484375
-6.1,1710832195500000
-6.59,1710832195515625
-7.28,1710832195531250
-9.27,1710832195546875
-12.96,1710832195562500
-18.04,1710832195578125
-23.7,1710832195593750
-28.97,1710832195609375
-33.18,1710832195625000
-36.27,1710832195640625
-38.64,1710832195656250
-41.05,1710832195671875
-45.25,1710832195687500
-52.79,1710832195703125
-64.71,1710832195718750
-81.15,1710832195734375
-100.79,1710832195750000
-120.89,1710832195765625
-138.04,1710832195781250
-149.46,1710832195796875
-148.93,1710832195812500
-135.34,1710832195828125
-111.14,1710832195843750
-81.27,1710832195859375
-51.19,1710832195875000
-24.95,1710832195890625
-4.28,1710832195906250
11.21,1710832195921875
22.96,1710832195937500
32.43,1710832195953125
39.71,1710832195968750
44.81,1710832195984375
47.93,1710832196000000
49.79,1710832196015625
51.31,1710832196031250
53.06,1710832196046875
55.0,1710832196062500
56.56,1710832196078125
56.97,1710832196093750
55.18,1710832196109375
51.05,1710832196125000
45.22,1710832196140625
38.8,1710832196156250
32.88,1710832196171875
28.05,1710832196187500
24.25,1710832196203125
20.83,1710832196218750
16.97,1710832196234375
11.59,1710832196250000
4.33,1710832196265625
-4.38,1710832196281250
-13.31,1710832196296875
-20.78,1710832196312500
-25.23,1710832196328125
-25.81,1710832196343750
-22.62,1710832196359375
-16.68,1710832196375000
-9.69,1710832196390625
-3.06,1710832196406250
2.5,1710832196421875
7.1,1710832196437500
11.39,1710832196453125
15.98,1710832196468750
21.03,1710832196484375
26.07,1710832196500000
30.26,1710832196515625
32.78,1710832196531250
33.24,1710832196546875
31.84,1710832196562500
29.23,1710832196578125
26.15,1710832196593750
23.16,1710832196609375
20.61,1710832196625000
18.69,1710832196640625
17.39,1710832196656250
16.71,1710832196671875
16.51,1710832196687500
16.58,1710832196703125
16.6,1710832196718750
16.27,1710832196734375
15.34,1710832196750000
13.73,1710832196765625
11.53,1710832196781250
8.93,1710832196796875
6.09,1710832196812500
3.05,1710832196828125
-0.32,1710832196843750
-4.33,1710832196859375
-9.37,1710832196875000
-15.76,1710832196890625
-23.59,1710832196906250
-32.43,1710832196921875
-41.34,1710832196937500
-48.96,1710832196953125
-53.8,1710832196968750
-54.77,1710832196984375
-51.46,1710832197000000
-44.22,1710832197015625
-33.96,1710832197031250
-21.81,1710832197046875
-8.81,1710832197062500
4.27,1710832197078125
16.91,1710832197093750
28.68,1710832197109375
39.12,1710832197125000
47.73,1710832197140625
54.0,1710832197156250
57.6,1710832197171875
58.6,1710832197187500
57.49,1710832197203125
55.2,1710832197218750
52.79,1710832197234375
51.2,1710832197250000
50.9,1710832197265625
51.73,1710832197281250
53.0,1710832197296875
53.84,1710832197312500
53.5,1710832197328125
51.6,1710832197343750
48.15,1710832197359375
43.36,1710832197375000
37.52,1710832197390625
30.88,1710832197406250
23.6,1710832197421875
15.82,1710832197437500
7.7,1710832197453125
-0.7,1710832197468750
-9.35,1710832197484375
-18.18,1710832197500000
-26.95,1710832197515625
-35.02,1710832197531250
-41.38,1710832197546875
-44.87,1710832197562500
-44.5,1710832197578125
-39.86,1710832197593750
-31.4,1710832197609375
-20.25,1710832197625000
-7.96,1710832197640625
3.99,1710832197656250
14.53,1710832197671875
23.13,1710832197687500
29.71,1710832197703125
34.45,1710832197718750
37.61,1710832197734375
39.37,1710832197750000
39.89,1710832197765625
39.37,1710832197781250
38.02,1710832197796875
36.2,1710832197812500
34.22,1710832197828125
32.37,1710832197843750
30.88,1710832197859375
29.75,1710832197875000
28.81,1710832197890625
27.72,1710832197906250
26.07,1710832197921875
23.49,1710832197937500
19.84,1710832197953125
15.24,1710832197968750
10.0,1710832197984375
4.53,1710832198000000
-0.89,1710832198015625
-6.19,1710832198031250
-11.51,1710832198046875
-17.09,1710832198062500
-23.16,1710832198078125
-29.85,1710832198093750
-37.08,1710832198109375
-44.61,1710832198125000
-51.88,1710832198140625
-58.03,1710832198156250
-62.04,1710832198171875
-62.95,1710832198187500
-60.27,1710832198203125
-54.2,1710832198218750
-45.67,1710832198234375
-35.99,1710832198250000
-26.46,1710832198265625
-17.92,1710832198281250
-10.68,1710832198296875
-4.57,1710832198312500
0.76,1710832198328125
5.58,1710832198343750
10.01,1710832198359375
13.92,1710832198375000
17.09,1710832198390625
19.3,1710832198406250
20.5,1710832198421875
20.77,1710832198437500
20.39,1710832198453125
19.74,1710832198468750
19.13,1710832198484375
18.69,1710832198500000
18.29,1710832198515625
17.58,1710832198531250
16.16,1710832198546875
13.79,1710832198562500
10.5,1710832198578125
6.63,1710832198593750
2.69,1710832198609375
-0.9,1710832198625000
-3.95,1710832198640625
-6.55,1710832198656250
-9.0,1710832198671875
-11.73,1710832198687500
-15.08,1710832198703125
-19.26,1710832198718750
-24.32,1710832198734375
-30.09,1710832198750000
-36.11,1710832198765625
-41.64,1710832198781250
-45.61,1710832198796875
-46.91,1710832198812500
-44.71,1710832198828125
-38.79,1710832198843750
-29.7,1710832198859375
-18.6,1710832198875000
-6.85,1710832198890625
4.38,1710832198906250
14.44,1710832198921875
23.2,1710832198937500
30.88,1710832198953125
37.78,1710832198968750
44.09,1710832198984375
49.78,1710832199000000
54.71,1710832199015625
58.68,1710832199031250
61.57,1710832199046875
63.3,1710832199062500
63.91,1710832199078125
63.43,1710832199093750
61.96,1710832199109375
59.66,1710832199125000
56.78,1710832199140625
53.63,1710832199156250
50.52,1710832199171875
47.59,1710832199187500
44.73,1710832199203125
41.58,1710832199218750
37.63,1710832199234375
32.51,1710832199250000
26.1,1710832199265625
18.71,1710832199281250
10.98,1710832199296875
3.72,1710832199312500
-2.5,1710832199328125
-7.5,1710832199343750
-11.68,1710832199359375
-15.87,1710832199375000
-20.99,1710832199390625
-27.61,1710832199406250
-35.63,1710832199421875
-44.17,1710832199437500
-51.76,1710832199453125
-56.88,1710832199468750
-58.38,1710832199484375
-55.9,1710832199500000
-49.92,1710832199515625
-41.5,1710832199531250
-32.02,1710832199546875
-22.69,1710832199562500
-14.33,1710832199578125
-7.29,1710832199593750
-1.53,1710832199609375
3.16,1710832199625000
6.93,1710832199640625
9.72,1710832199656250
11.28,1710832199671875
11.33,1710832199687500
9.73,1710832199703125
6.66,1710832199718750
2.57,1710832199734375
-1.94,1710832199750000
-6.32,1710832199765625
-10.2,1710832199781250
-13.43,1710832199796875
-16.01,1710832199812500
-18.0,1710832199828125
-19.46,1710832199843750
-20.41,1710832199859375
-20.9,1710832199875000
-21.01,1710832199890625
-20.88,1710832199906250
-20.67,1710832199921875
-20.56,1710832199937500
-20.65,1710832199953125
-20.96,1710832199968750
-21.41,1710832199984375
-21.79,1710832200000000
-21.87,1710832200015625
-21.53,1710832200031250
-20.92,1710832200046875
-20.45,1710832200062500
-20.66,1710832200078125
-22.02,1710832200093750
-24.57,1710832200109375
-27.84,1710832200125000
-30.86,1710832200140625
-32.46,1710832200156250
-31.61,1710832200171875
-27.8,1710832200187500
-21.0,1710832200203125
-11.71,1710832200218750
-0.71,1710832200234375
11.14,1710832200250000
22.99,1710832200265625
34.07,1710832200281250
43.84,1710832200296875
51.99,1710832200312500
58.46,1710832200328125
63.36,1710832200343750
66.94,1710832200359375
69.35,1710832200375000
70.69,1710832200390625
70.96,1710832200406250
70.19,1710832200421875
68.41,1710832200437500
65.72,1710832200453125
62.26,1710832200468750
58.26,1710832200484375
53.99,1710832200500000
49.76,1710832200515625
45.77,1710832200531250
42.03,1710832200546875
38.3,1710832200562500
34.12,1710832200578125
29.06,1710832200593750
22.93,1710832200609375
15.94,1710832200625000
8.62,1710832200640625
1.55,1710832200656250
-4.84,1710832200671875
-10.48,1710832200687500
-15.65,1710832200703125
-20.87,1710832200718750
-26.81,1710832200734375
-34.09,1710832200750000
-43.05,1710832200765625
-53.53,1710832200781250
-64.7,1710832200796875
-75.04,1710832200812500
-82.79,1710832200828125
-86.34,1710832200843750
-84.82,1710832200859375
-78.32,1710832200875000
-67.8,1710832200890625
-54.71,1710832200906250
-40.53,1710832200921875
-26.52,1710832200937500
-13.62,1710832200953125
-2.5,1710832200968750
6.38,1710832200984375
12.78,1710832201000000
16.79,1710832201015625
18.84,1710832201031250
19.57,1710832201046875
19.66,1710832201062500
19.6,1710832201078125
19.64,1710832201093750
19.71,1710832201109375
19.54,1710832201125000
18.75,1710832201140625
16.97,1710832201156250
13.94,1710832201171875
9.57,1710832201187500
3.99,1710832201203125
-2.48,1710832201218750
-9.31,1710832201234375
-15.97,1710832201250000
-22.08,1710832201265625
-27.46,1710832201281250
-32.17,1710832201296875
-36.44,1710832201312500
-40.52,1710832201328125
-44.6,1710832201343750
-48.83,1710832201359375
-53.29,1710832201375000
-57.95,1710832201390625
-62.6,1710832201406250
-66.66,1710832201421875
-69.21,1710832201437500
-69.3,1710832201453125
-66.25,1710832201468750
-60.1,1710832201484375
-51.59,1710832201500000
-41.96,1710832201515625
-32.4,1710832201531250
-23.63,1710832201546875
-15.8,1710832201562500
-8.66,1710832201578125
-1.97,1710832201593750
4.21,1710832201609375
9.53,1710832201625000
13.54,1710832201640625
16.05,1710832201656250
17.32,1710832201671875
17.92,1710832201687500
18.47,1710832201703125
19.34,1710832201718750
20.48,1710832201734375
21.61,1710832201750000
22.37,1710832201765625
22.55,1710832201781250
22.08,1710832201796875
20.99,1710832201812500
19.32,1710832201828125
17.13,1710832201843750
14.67,1710832201859375
12.34,1710832201875000
10.66,1710832201890625
9.94,1710832201906250
10.07,1710832201921875
10.4,1710832201937500
10.04,1710832201953125
8.29,1710832201968750
4.88,1710832201984375
0.13,1710832202000000
-5.33,1710832202015625
-10.93,1710832202031250
-16.12,1710832202046875
-20.43,1710832202062500
-23.22,1710832202078125
-23.68,1710832202093750
-21.17,1710832202109375
-15.48,1710832202125000
-7.09,1710832202140625
2.94,1710832202156250
13.35,1710832202171875
23.08,1710832202187500
31.59,1710832202203125
38.8,1710832202218750
44.93,1710832202234375
50.22,1710832202250000
54.77,1710832202265625
58.45,1710832202281250
60.96,1710832202296875
61.99,1710832202312500
61.43,1710832202328125
59.45,1710832202343750
56.58,1710832202359375
53.49,1710832202375000
50.68,1710832202390625
48.29,1710832202406250
46.04,1710832202421875
43.44,1710832202437500
40.04,1710832202453125
35.73,1710832202468750
30.66,1710832202484375
25.06,1710832202500000
19.04,1710832202515625
12.52,1710832202531250
5.44,1710832202546875
-2.19,1710832202562500
-10.1,1710832202578125
-17.93,1710832202593750
-25.35,1710832202609375
-32.23,1710832202625000
-38.65,1710832202640625
-44.78,1710832202656250
-50.77,1710832202671875
-56.67,1710832202687500
-62.29,1710832202703125
-67.23,1710832202718750
-70.77,1710832202734375
-72.08,1710832202750000
-70.34,1710832202765625
-65.09,1710832202781250
-56.56,1710832202796875
-45.7,1710832202812500
-33.9,1710832202828125
-22.54,1710832202843750
-12.58,1710832202859375
-4.34,1710832202875000
2.27,1710832202890625
7.64,1710832202906250
12.13,1710832202921875
15.96,1710832202937500
19.09,1710832202953125
21.38,1710832202968750
22.62,1710832202984375
22.68,1710832203000000
21.63,1710832203015625
19.6,1710832203031250
16.85,1710832203046875
13.7,1710832203062500
10.34,1710832203078125
6.69,1710832203093750
2.5,1710832203109375
-2.52,1710832203125000
-8.54,1710832203140625
-15.49,1710832203156250
-23.13,1710832203171875
-30.87,1710832203187500
-37.69,1710832203203125
-42.63,1710832203218750
-45.28,1710832203234375
-46.14,1710832203250000
-46.37,1710832203265625
-47.53,1710832203281250
-50.72,1710832203296875
-56.45,1710832203312500
-63.94,1710832203328125
-71.16,1710832203343750
-76.0,1710832203359375
-77.57,1710832203375000
-76.66,1710832203390625
-74.81,1710832203406250
-73.63,1710832203421875
-73.43,1710832203437500
-73.71,1710832203453125
-72.79,1710832203468750
-68.3,1710832203484375
-58.93,1710832203500000
-45.78,1710832203515625
-32.17,1710832203531250
-21.71,1710832203546875
-16.94,1710832203562500
-17.56,1710832203578125
-21.71,1710832203593750
-25.88,1710832203609375
-25.17,1710832203625000
-14.8,1710832203640625
8.41,1710832203656250
45.59,1710832203671875
96.13,1710832203687500
156.76,1710832203703125
222.17,1710832203718750
278.76,1710832203734375
307.94,1710832203750000
298.32,1710832203765625
255.94,1710832203781250
200.31,1710832203796875
150.71,1710832203812500
120.02,1710832203828125
104.26,1710832203843750
96.16,1710832203859375
89.01,1710832203875000
79.66,1710832203890625
69.01,1710832203906250
58.41,1710832203921875
48.13,1710832203937500
36.41,1710832203953125
21.11,1710832203968750
1.15,1710832203984375
-21.39,1710832204000000
-43.16,1710832204015625
-59.99,1710832204031250
-68.19,1710832204046875
-66.28,1710832204062500
-56.0,1710832204078125
-41.72,1710832204093750
-28.26,1710832204109375
-19.38,1710832204125000
-16.07,1710832204140625
-17.66,1710832204156250
-21.89,1710832204171875
-25.45,1710832204187500
-25.23,1710832204203125
-19.81,1710832204218750
-10.07,1710832204234375
1.56,1710832204250000
12.08,1710832204265625
19.74,1710832204281250
24.06,1710832204296875
26.05,1710832204312500
27.65,1710832204328125
30.62,1710832204343750
35.6,1710832204359375
41.79,1710832204375000
47.82,1710832204390625
52.47,1710832204406250
55.54,1710832204421875
57.44,1710832204437500
58.8,1710832204453125
60.02,1710832204468750
60.87,1710832204484375
60.51,1710832204500000
57.77,1710832204515625
51.8,1710832204531250
42.37,1710832204546875
29.99,1710832204562500
15.44,1710832204578125
-0.51,1710832204593750
-17.2,1710832204609375
-33.91,1710832204625000
-49.66,1710832204640625
-63.27,1710832204656250
-73.66,1710832204671875
-80.31,1710832204687500
-83.49,1710832204703125
-84.24,1710832204718750
-84.01,1710832204734375
-84.16,1710832204750000
-85.62,1710832204765625
-88.64,1710832204781250
-92.92,1710832204796875
-97.78,1710832204812500
-102.38,1710832204828125
-106.01,1710832204843750
-108.17,1710832204859375
-108.73,1710832204875000
-107.88,1710832204890625
-105.95,1710832204906250
-103.31,1710832204921875
-100.17,1710832204937500
-96.59,1710832204953125
-92.56,1710832204968750
-88.12,1710832204984375
-83.42,1710832205000000
-78.63,1710832205015625
-73.85,1710832205031250
-69.09,1710832205046875
-64.24,1710832205062500
-59.24,1710832205078125
-54.21,1710832205093750
-49.49,1710832205109375
-45.56,1710832205125000
-42.87,1710832205140625
-41.63,1710832205156250
-41.68,1710832205171875
-42.64,1710832205187500
-44.07,1710832205203125
-45.73,1710832205218750
-47.61,1710832205234375
-49.75,1710832205250000
-51.97,1710832205265625
-53.6,1710832205281250
-53.55,1710832205296875
-50.68,1710832205312500
-44.3,1710832205328125
-34.44,1710832205343750
-22.04,1710832205359375
-8.52,1710832205375000
4.63,1710832205390625
16.3,1710832205406250
25.98,1710832205421875
33.6,1710832205437500
39.34,1710832205453125
43.35,1710832205468750
45.66,1710832205484375
46.34,1710832205500000
45.6,1710832205515625
43.95,1710832205531250
42.05,1710832205546875
40.52,1710832205562500
39.64,1710832205578125
39.32,1710832205593750
39.21,1710832205609375
38.95,1710832205625000
38.42,1710832205640625
37.74,1710832205656250
37.21,1710832205671875
37.06,1710832205687500
37.27,1710832205703125
37.5,1710832205718750
37.29,1710832205734375
36.19,1710832205750000
34.01,1710832205765625
30.83,1710832205781250
27.02,1710832205796875
22.99,1710832205812500
19.08,1710832205828125
15.36,1710832205843750
11.56,1710832205859375
7.21,1710832205875000
1.86,1710832205890625
-4.64,1710832205906250
-11.79,1710832205921875
-18.53,1710832205937500
-23.39,1710832205953125
-25.02,1710832205968750
-22.69,1710832205984375
-16.49,1710832206000000
-7.36,1710832206015625
3.35,1710832206031250
14.25,1710832206046875
24.38,1710832206062500
33.17,1710832206078125
40.39,1710832206093750
45.93,1710832206109375
49.7,1710832206125000
51.7,1710832206140625
52.15,1710832206156250
51.58,1710832206171875
50.61,1710832206187500
49.77,1710832206203125
49.12,1710832206218750
48.32,1710832206234375
46.84,1710832206250000
44.33,1710832206265625
40.92,1710832206281250
37.19,1710832206296875
33.88,1710832206312500
31.5,1710832206328125
30.03,1710832206343750
28.93,1710832206359375
27.43,1710832206375000
24.92,1710832206390625
21.16,1710832206406250
16.39,1710832206421875
11.1,1710832206437500
5.85,1710832206453125
1.03,1710832206468750
-3.15,1710832206484375
-6.77,1710832206500000
-10.1,1710832206515625
-13.61,1710832206531250
-17.83,1710832206546875
-23.04,1710832206562500
-29.11,1710832206578125
-35.27,1710832206593750
-40.33,1710832206609375
-42.9,1710832206625000
-41.92,1710832206640625
-37.08,1710832206656250
-28.86,1710832206671875
-18.45,1710832206687500
-7.33,1710832206703125
3.12,1710832206718750
12.01,1710832206734375
19.02,1710832206750000
24.33,1710832206765625
28.34,1710832206781250
31.37,1710832206796875
33.61,1710832206812500
35.02,1710832206828125
35.55,1710832206843750
35.22,1710832206859375
34.24,1710832206875000
32.95,1710832206890625
31.64,1710832206906250
30.53,1710832206921875
29.61,1710832206937500
28.81,1710832206953125
28.01,1710832206968750
27.11,1710832206984375
26.05,1710832207000000
24.72,1710832207015625
22.94,1710832207031250
20.52,1710832207046875
17.34,1710832207062500
13.38,1710832207078125
8.82,1710832207093750
3.9,1710832207109375
-1.15,1710832207125000
-6.23,1710832207140625
-11.47,1710832207156250
-17.18,1710832207171875
-23.65,1710832207187500
-30.88,1710832207203125
-38.39,1710832207218750
-45.17,1710832207234375
-49.88,1710832207250000
-51.35,1710832207265625
-48.95,1710832207281250
-42.92,1710832207296875
-34.26,1710832207312500
-24.35,1710832207328125
-14.48,1710832207343750
-5.54,1710832207359375
2.12,1710832207375000
8.53,1710832207390625
13.8,1710832207406250
18.03,1710832207421875
21.22,1710832207437500
23.37,1710832207453125
24.59,1710832207468750
25.13,1710832207484375
25.26,1710832207500000
25.2,1710832207515625
25.02,1710832207531250
24.62,1710832207546875
23.84,1710832207562500
22.62,1710832207578125
21.02,1710832207593750
19.23,1710832207609375
17.44,1710832207625000
15.7,1710832207640625
13.88,1710832207656250
11.7,1710832207671875
8.86,1710832207687500
5.2,1710832207703125
0.83,1710832207718750
-3.93,1710832207734375
-8.6,1710832207750000
-12.82,1710832207765625
-16.43,1710832207781250
-19.58,1710832207796875
-22.69,1710832207812500
-26.37,1710832207828125
-31.16,1710832207843750
-37.26,1710832207859375
-44.28,1710832207875000
-51.16,1710832207890625
-56.41,1710832207906250
-58.54,1710832207921875
-56.61,1710832207937500
-50.61,1710832207953125
-41.42,1710832207968750
-30.46,1710832207984375
-19.21,1710832208000000
-8.78,1710832208015625
0.27,1710832208031250
7.83,1710832208046875
14.03,1710832208062500
19.04,1710832208078125
23.01,1710832208093750
26.01,1710832208109375
28.19,1710832208125000
29.71,1710832208140625
30.83,1710832208156250
31.8,1710832208171875
32.83,1710832208187500
33.92,1710832208203125
34.87,1710832208218750
35.34,1710832208234375
34.96,1710832208250000
33.62,1710832208265625
31.47,1710832208281250
28.89,1710832208296875
26.28,1710832208312500
23.87,1710832208328125
21.49,1710832208343750
18.82,1710832208359375
15.5,1710832208375000
11.39,1710832208390625
6.65,1710832208406250
1.64,1710832208421875
-3.25,1710832208437500
-7.79,1710832208453125
-11.98,1710832208468750
-16.03,1710832208484375
-20.31,1710832208500000
-25.23,1710832208515625
-31.04,1710832208531250
-37.67,1710832208546875
-44.55,1710832208562500
-50.64,1710832208578125
-54.65,1710832208593750
-55.45,1710832208609375
-52.47,1710832208625000
-45.96,1710832208640625
-36.93,1710832208656250
-26.8,1710832208671875
-16.87,1710832208687500
-7.98,1710832208703125
-0.35,1710832208718750
6.26,1710832208734375
12.19,1710832208750000
17.62,1710832208765625
22.43,1710832208781250
26.28,1710832208796875
28.94,1710832208812500
30.43,1710832208828125
31.1,1710832208843750
31.44,1710832208859375
31.79,1710832208875000
32.2,1710832208890625
32.33,1710832208906250
31.82,1710832208921875
30.43,1710832208937500
28.31,1710832208953125
25.9,1710832208968750
23.73,1710832208984375
22.02,1710832209000000
20.64,1710832209015625
19.08,1710832209031250
16.8,1710832209046875
13.52,1710832209062500
9.35,1710832209078125
4.7,1710832209093750
0.1,1710832209109375
-4.08,1710832209125000
-7.78,1710832209140625
-11.19,1710832209156250
-14.7,1710832209171875
-18.71,1710832209187500
-23.51,1710832209203125
-29.19,1710832209218750
-35.55,1710832209234375
-42.0,1710832209250000
-47.59,1710832209265625
-51.22,1710832209281250
-51.9,1710832209296875
-49.15,1710832209312500
-43.13,1710832209328125
-34.64,1710832209343750
-24.79,1710832209359375
-14.73,1710832209375000
-5.26,1710832209390625
3.19,1710832209406250
10.48,1710832209421875
16.67,1710832209437500
21.76,1710832209453125
25.71,1710832209468750
28.52,1710832209484375
30.27,1710832209500000
31.2,1710832209515625
31.67,1710832209531250
32.03,1710832209546875
32.5,1710832209562500
33.07,1710832209578125
33.48,1710832209593750
33.36,1710832209609375
32.41,1710832209625000
30.6,1710832209640625
28.16,1710832209656250
25.53,1710832209671875
23.03,1710832209687500
20.76,1710832209703125
18.48,1710832209718750
15.79,1710832209734375
12.37,1710832209750000
8.17,1710832209765625
3.43,1710832209781250
-1.39,1710832209796875
-5.79,1710832209812500
-9.46,1710832209828125
-12.41,1710832209843750
-14.92,1710832209859375
-17.51,1710832209875000
-20.73,1710832209890625
-24.93,1710832209906250
-30.11,1710832209921875
-35.76,1710832209937500
-40.94,1710832209953125
-44.54,1710832209968750
-45.58,1710832209984375
-43.54,1710832210000000
-38.55,1710832210015625
-31.29,1710832210031250
-22.76,1710832210046875
-13.91,1710832210062500
-5.44,1710832210078125
2.31,1710832210093750
9.25,1710832210109375
15.33,1710832210125000
20.45,1710832210140625
24.44,1710832210156250
27.2,1710832210171875
28.81,1710832210187500
29.55,1710832210203125
29.79,1710832210218750
29.89,1710832210234375
30.05,1710832210250000
30.28,1710832210265625
30.45,1710832210281250
30.41,1710832210296875
30.03,1710832210312500
29.27,1710832210328125
28.19,1710832210343750
26.82,1710832210359375
25.18,1710832210375000
23.19,1710832210390625
20.74,1710832210406250
17.71,1710832210421875
14.1,1710832210437500
10.16,1710832210453125
6.28,1710832210468750
2.88,1710832210484375
0.21,1710832210500000
-1.81,1710832210515625
-3.55,1710832210531250
-5.56,1710832210546875
-8.28,1710832210562500
-11.9,1710832210578125
-16.29,1710832210593750
-21.06,1710832210609375
-25.64,1710832210625000
-29.38,1710832210640625
-31.57,1710832210656250
-31.56,1710832210671875
-28.88,1710832210687500
-23.45,1710832210703125
-15.73,1710832210718750
-6.65,1710832210734375
2.59,1710832210750000
10.85,1710832210765625
17.42,1710832210781250
22.08,1710832210796875
25.14,1710832210812500
27.09,1710832210828125
28.33,1710832210843750
28.99,1710832210859375
28.99,1710832210875000
28.19,1710832210890625
26.66,1710832210906250
24.67,1710832210921875
22.68,1710832210937500
21.05,1710832210953125
19.93,1710832210968750
19.14,1710832210984375
18.32,1710832211000000
17.07,1710832211015625
15.14,1710832211031250
12.44,1710832211046875
9.09,1710832211062500
5.33,1710832211078125
1.45,1710832211093750
-2.24,1710832211109375
-5.51,1710832211125000
-8.3,1710832211140625
-10.82,1710832211156250
-13.52,1710832211171875
-16.91,1710832211187500
-21.35,1710832211203125
-26.77,1710832211218750
-32.6,1710832211234375
-37.9,1710832211250000
-41.64,1710832211265625
-43.05,1710832211281250
-41.86,1710832211296875
-38.29,1710832211312500
-32.95,1710832211328125
-26.59,1710832211343750
-19.87,1710832211359375
-13.34,1710832211375000
-7.4,1710832211390625
-2.33,1710832211406250
1.7,1710832211421875
4.68,1710832211437500
6.76,1710832211453125
8.18,1710832211468750
9.17,1710832211484375
9.85,1710832211500000
10.24,1710832211515625
10.29,1710832211531250
10.03,1710832211546875
9.63,1710832211562500
9.29,1710832211578125
9.18,1710832211593750
9.22,1710832211609375
9.17,1710832211625000
8.67,1710832211640625
7.44,1710832211656250
5.39,1710832211671875
2.69,1710832211687500
-0.36,1710832211703125
-3.45,1710832211718750
-6.42,1710832211734375
-9.29,1710832211750000
-12.28,1710832211765625
-15.68,1710832211781250
-19.8,1710832211796875
-24.83,1710832211812500
-30.82,1710832211828125
-37.58,1710832211843750
-44.62,1710832211859375
-51.14,1710832211875000
-56.18,1710832211890625
-58.78,1710832211906250
-58.34,1710832211921875
-54.89,1710832211937500
-49.07,1710832211953125
-41.98,1710832211968750
-34.73,1710832211984375
-28.11,1710832212000000
-22.3,1710832212015625
-17.02,1710832212031250
-11.8,1710832212046875
-6.32,1710832212062500
-0.62,1710832212078125
4.91,1710832212093750
9.78,1710832212109375
13.55,1710832212125000
16.05,1710832212140625
17.37,1710832212156250
17.79,1710832212171875
17.64,1710832212187500
17.26,1710832212203125
16.89,1710832212218750
16.67,1710832212234375
16.55,1710832212250000
16.32,1710832212265625
15.71,1710832212281250
14.44,1710832212296875
12.37,1710832212312500
9.53,1710832212328125
6.1,1710832212343750
2.34,1710832212359375
-1.56,1710832212375000
-5.44,1710832212390625
-9.25,1710832212406250
-13.0,1710832212421875
-16.82,1710832212437500
-20.94,1710832212453125
-25.6,1710832212468750
-30.99,1710832212484375
-36.95,1710832212500000
-42.96,1710832212515625
-48.09,1710832212531250
-51.25,1710832212546875
-51.56,1710832212562500
-48.58,1710832212578125
-42.58,1710832212593750
-34.38,1710832212609375
-25.16,1710832212625000
-16.01,1710832212640625
-7.72,1710832212656250
-0.54,1710832212671875
5.68,1710832212687500
11.31,1710832212703125
16.64,1710832212718750
21.77,1710832212734375
26.49,1710832212750000
30.49,1710832212765625
33.56,1710832212781250
35.71,1710832212796875
37.13,1710832212812500
38.1,1710832212828125
38.72,1710832212843750
38.9,1710832212859375
38.42,1710832212875000
37.11,1710832212890625
35.0,1710832212906250
32.39,1710832212921875
29.7,1710832212937500
27.29,1710832212953125
25.25,1710832212968750
23.38,1710832212984375
21.31,1710832213000000
18.64,1710832213015625
15.17,1710832213031250
10.95,1710832213046875
6.25,1710832213062500
1.41,1710832213078125
-3.33,1710832213093750
-7.84,1710832213109375
-12.15,1710832213125000
-16.43,1710832213140625
-20.88,1710832213156250
-25.7,1710832213171875
-30.96,1710832213187500
-36.64,1710832213203125
-42.51,1710832213218750
-48.11,1710832213234375
-52.76,1710832213250000
-55.64,1710832213265625
-56.04,1710832213281250
-53.56,1710832213296875
-48.25,1710832213312500
-40.67,1710832213328125
-31.7,1710832213343750
-22.27,1710832213359375
-13.13,1710832213375000
-4.71,1710832213390625
2.9,1710832213406250
9.77,1710832213421875
15.95,1710832213437500
21.44,1710832213453125
26.14,1710832213468750
29.99,1710832213484375
33.0,1710832213500000
35.34,1710832213515625
37.19,1710832213531250
38.7,1710832213546875
39.91,1710832213562500
40.74,1710832213578125
41.05,1710832213593750
40.75,1710832213609375
39.81,1710832213625000
38.34,1710832213640625
36.5,1710832213656250
34.4,1710832213671875
32.15,1710832213687500
29.75,1710832213703125
27.25,1710832213718750
24.69,1710832213734375
22.06,1710832213750000
19.32,1710832213765625
16.4,1710832213781250
13.17,1710832213796875
9.55,1710832213812500
5.63,1710832213828125
1.56,1710832213843750
-2.38,1710832213859375
-5.95,1710832213875000
-9.07,1710832213890625
-11.85,1710832213906250
-14.57,1710832213921875
-17.6,1710832213937500
-21.28,1710832213953125
-25.81,1710832213968750
-31.2,1710832213984375
-37.17,1710832214000000
-43.13,1710832214015625
-48.27,1710832214031250
-51.62,1710832214046875
-52.44,1710832214062500
-50.36,1710832214078125
-45.59,1710832214093750
-38.81,1710832214109375
-30.88,1710832214125000
-22.61,1710832214140625
-14.49,1710832214156250
-6.71,1710832214171875
0.71,1710832214187500
7.75,1710832214203125
14.28,1710832214218750
20.05,1710832214234375
24.83,1710832214250000
28.46,1710832214265625
30.96,1710832214281250
32.55,1710832214296875
33.56,1710832214312500
34.37,1710832214328125
35.2,1710832214343750
36.02,1710832214359375
36.61,1710832214375000
36.63,1710832214390625
35.91,1710832214406250
34.54,1710832214421875
32.9,1710832214437500
31.39,1710832214453125
30.27,1710832214468750
29.5,1710832214484375
28.82,1710832214500000
27.92,1710832214515625
26.59,1710832214531250
24.76,1710832214546875
22.57,1710832214562500
20.19,1710832214578125
17.81,1710832214593750
15.52,1710832214609375
13.4,1710832214625000
11.32,1710832214640625
9.15,1710832214656250
6.68,1710832214671875
3.75,1710832214687500
0.38,1710832214703125
-3.28,1710832214718750
-7.03,1710832214734375
-10.67,1710832214750000
-14.08,1710832214765625
-17.28,1710832214781250
-20.38,1710832214796875
-23.56,1710832214812500
-27.1,1710832214828125
-31.28,1710832214843750
-36.19,1710832214859375
-41.51,1710832214875000
-46.49,1710832214890625
-50.06,1710832214906250
-51.24,1710832214921875
-49.58,1710832214937500
-45.36,1710832214953125
-39.45,1710832214968750
-32.92,1710832214984375
-26.58,1710832215000000
-20.73,1710832215015625
-15.23,1710832215031250
-9.74,1710832215046875
-4.11,1710832215062500
1.51,1710832215078125
6.81,1710832215093750
11.4,1710832215109375
15.12,1710832215125000
18.02,1710832215140625
20.34,1710832215156250
22.28,1710832215171875
23.94,1710832215187500
25.33,1710832215203125
26.37,1710832215218750
27.01,1710832215234375
27.26,1710832215250000
27.16,1710832215265625
26.82,1710832215281250
26.33,1710832215296875
25.78,1710832215312500
25.24,1710832215328125
24.72,1710832215343750
24.17,1710832215359375
23.48,1710832215375000
22.48,1710832215390625
21.08,1710832215406250
19.36,1710832215421875
17.58,1710832215437500
16.08,1710832215453125
15.13,1710832215468750
14.75,1710832215484375
14.68,1710832215500000
14.45,1710832215515625
13.59,1710832215531250
11.84,1710832215546875
9.25,1710832215562500
6.11,1710832215578125
2.84,1710832215593750
-0.25,1710832215609375
-3.04,1710832215625000
-5.7,1710832215640625
-8.53,1710832215656250
-11.89,1710832215671875
-15.97,1710832215687500
-20.81,1710832215703125
-26.16,1710832215718750
-31.54,1710832215734375
-36.33,1710832215750000
-39.9,1710832215765625
-41.71,1710832215781250
-41.51,1710832215796875
-39.32,1710832215812500
-35.42,1710832215828125
-30.33,1710832215843750
-24.69,1710832215859375
-19.11,1710832215875000
-14.05,1710832215890625
-9.75,1710832215906250
-6.13,1710832215921875
-2.94,1710832215937500
0.07,1710832215953125
2.99,1710832215968750
5.66,1710832215984375
7.82,1710832216000000
9.31,1710832216015625
10.24,1710832216031250
10.94,1710832216046875
11.79,1710832216062500
12.98,1710832216078125
14.42,1710832216093750
15.8,1710832216109375
16.82,1710832216125000
17.36,1710832216140625
17.55,1710832216156250
17.66,1710832216171875
17.91,1710832216187500
18.28,1710832216203125
18.53,1710832216218750
18.3,1710832216234375
17.27,1710832216250000
15.38,1710832216265625
12.88,1710832216281250
10.23,1710832216296875
7.94,1710832216312500
6.32,1710832216328125
5.39,1710832216343750
4.83,1710832216359375
4.18,1710832216375000
3.1,1710832216390625
1.48,1710832216406250
-0.57,1710832216421875
-2.84,1710832216437500
-5.19,1710832216453125
-7.64,1710832216468750
-10.28,1710832216484375
-13.27,1710832216500000
-16.69,1710832216515625
-20.61,1710832216531250
-25.01,1710832216546875
-29.77,1710832216562500
-34.53,1710832216578125
-38.69,1710832216593750
-41.51,1710832216609375
-42.4,1710832216625000
-41.12,1710832216640625
-37.97,1710832216656250
-33.66,1710832216671875
-29.02,1710832216687500
-24.65,1710832216703125
-20.76,1710832216718750
-17.21,1710832216734375
-13.78,1710832216750000
-10.37,1710832216765625
-7.14,1710832216781250
-4.37,1710832216796875
-2.25,1710832216812500
-0.71,1710832216828125
0.58,1710832216843750
2.0,1710832216859375
3.79,1710832216875000
5.89,1710832216890625
8.03,1710832216906250
9.84,1710832216921875
11.14,1710832216937500
11.95,1710832216953125
12.48,1710832216968750
12.97,1710832216984375
13.53,1710832217000000
14.13,1710832217015625
14.65,1710832217031250
14.99,1710832217046875
15.08,1710832217062500
14.81,1710832217078125
14.05,1710832217093750
12.61,1710832217109375
10.31,1710832217125000
7.14,1710832217140625
3.27,1710832217156250
-0.92,1710832217171875
-4.98,1710832217187500
-8.48,1710832217203125
-11.16,1710832217218750
-13.02,1710832217234375
-14.26,1710832217250000
-15.29,1710832217265625
-16.5,1710832217281250
-18.14,1710832217296875
-20.17,1710832217312500
-22.27,1710832217328125
-23.92,1710832217343750
-24.56,1710832217359375
-23.77,1710832217375000
-21.35,1710832217390625
-17.37,1710832217406250
-12.11,1710832217421875
-5.97,1710832217437500
0.57,1710832217453125
6.97,1710832217468750
12.72,1710832217484375
17.42,1710832217500000
20.8,1710832217515625
22.86,1710832217531250
23.84,1710832217546875
24.13,1710832217562500
24.15,1710832217578125
24.17,1710832217593750
24.24,1710832217609375
24.2,1710832217625000
23.85,1710832217640625
23.05,1710832217656250
21.85,1710832217671875
20.47,1710832217687500
19.12,1710832217703125
17.87,1710832217718750
16.57,1710832217734375
15.0,1710832217750000
13.01,1710832217765625
10.71,1710832217781250
8.36,1710832217796875
6.26,1710832217812500
4.5,1710832217828125
2.93,1710832217843750
1.22,1710832217859375
-0.88,1710832217875000
-3.44,1710832217890625
-6.29,1710832217906250
-9.2,1710832217921875
-12.05,1710832217937500
-14.91,1710832217953125
-18.05,1710832217968750
-21.71,1710832217984375
-25.9,1710832218000000
-30.24,1710832218015625
-34.03,1710832218031250
-36.41,1710832218046875
-36.69,1710832218062500
-34.56,1710832218078125
-30.26,1710832218093750
-24.44,1710832218109375
-17.96,1710832218125000
-11.62,1710832218140625
-5.97,1710832218156250
-1.3,1710832218171875
2.3,1710832218187500
4.86,1710832218203125
6.4,1710832218218750
6.97,1710832218234375
6.66,1710832218250000
5.66,1710832218265625
4.21,1710832218281250
2.6,1710832218296875
1.03,1710832218312500
-0.33,1710832218328125
-1.41,1710832218343750
-2.19,1710832218359375
-2.73,1710832218375000
-3.12,1710832218390625
-3.56,1710832218406250
-4.32,1710832218421875
-5.66,1710832218437500
-7.82,1710832218453125
-10.89,1710832218468750
-14.8,1710832218484375
-19.27,1710832218500000
-23.98,1710832218515625
-28.63,1710832218531250
-33.12,1710832218546875
-37.63,1710832218562500
-42.59,1710832218578125
-48.6,1710832218593750
-56.1,1710832218609375
-65.19,1710832218625000
-75.23,1710832218640625
-84.81,1710832218656250
-92.04,1710832218671875
-95.05,1710832218687500
-92.61,1710832218703125
-84.57,1710832218718750
-71.82,1710832218734375
-55.85,1710832218750000
-38.16,1710832218765625
-19.93,1710832218781250
-1.96,1710832218796875
15.15,1710832218812500
30.82,1710832218828125
44.53,1710832218843750
55.98,1710832218859375
65.26,1710832218875000
72.84,1710832218890625
79.18,1710832218906250
84.45,1710832218921875
88.43,1710832218937500
90.7,1710832218953125
91.07,1710832218968750
89.8,1710832218984375
87.57,1710832219000000
85.17,1710832219015625
83.2,1710832219031250
81.85,1710832219046875
80.89,1710832219062500
79.72,1710832219078125
77.53,1710832219093750
73.39,1710832219109375
66.47,1710832219125000
56.38,1710832219140625
43.46,1710832219156250
29.02,1710832219171875
15.09,1710832219187500
4.06,1710832219203125
-2.07,1710832219218750
-2.32,1710832219234375
2.9,1710832219250000
11.81,1710832219265625
21.73,1710832219281250
29.74,1710832219296875
33.44,1710832219312500
31.48,1710832219328125
23.97,1710832219343750
12.48,1710832219359375
-0.41,1710832219375000
-11.85,1710832219390625
-19.64,1710832219406250
-23.11,1710832219421875
-23.31,1710832219437500
-22.63,1710832219453125
-23.7,1710832219468750
-28.19,1710832219484375
-35.98,1710832219500000
-45.1,1710832219515625
-52.63,1710832219531250
-55.85,1710832219546875
-53.46,1710832219562500
-45.94,1710832219578125
-35.2,1710832219593750
-23.69,1710832219609375
-13.45,1710832219625000
-5.62,1710832219640625
-0.33,1710832219656250
2.89,1710832219671875
4.71,1710832219687500
5.64,1710832219703125
5.94,1710832219718750
5.69,1710832219734375
4.94,1710832219750000
3.85,1710832219765625
2.73,1710832219781250
1.99,1710832219796875
1.99,1710832219812500
3.0,1710832219828125
5.06,1710832219843750
7.94,1710832219859375
11.3,1710832219875000
14.66,1710832219890625
17.52,1710832219906250
19.38,1710832219921875
19.79,1710832219937500
18.36,1710832219953125
14.95,1710832219968750
9.8,1710832219984375
3.61,1710832220000000
-2.55,1710832220015625
-7.68,1710832220031250
-11.15,1710832220046875
-13.04,1710832220062500
-13.93,1710832220078125
-14.48,1710832220093750
-14.96,1710832220109375
-14.97,1710832220125000
-13.69,1710832220140625
-10.35,1710832220156250
-4.68,1710832220171875
2.84,1710832220187500
11.18,1710832220203125
19.2,1710832220218750
25.98,1710832220234375
31.05,1710832220250000
34.28,1710832220265625
35.67,1710832220281250
35.22,1710832220296875
32.98,1710832220312500
29.19,1710832220328125
24.38,1710832220343750
19.35,1710832220359375
14.96,1710832220375000
11.87,1710832220390625
10.32,1710832220406250
10.2,1710832220421875
11.2,1710832220437500
13.12,1710832220453125
15.95,1710832220468750
19.71,1710832220484375
24.17,1710832220500000
28.63,1710832220515625
32.21,1710832220531250
34.18,1710832220546875
34.44,1710832220562500
33.55,1710832220578125
32.26,1710832220593750
30.87,1710832220609375
28.85,1710832220625000
25.04,1710832220640625
18.38,1710832220656250
8.67,1710832220671875
-3.05,1710832220687500
-14.91,1710832220703125
-25.04,1710832220718750
-32.34,1710832220734375
-36.72,1710832220750000
-38.77,1710832220765625
-39.09,1710832220781250
-37.91,1710832220796875
-35.12,1710832220812500
-30.65,1710832220828125
-24.91,1710832220843750
-18.75,1710832220859375
-13.15,1710832220875000
-8.73,1710832220890625
-5.45,1710832220906250
-2.75,1710832220921875
0.0,1710832220937500
3.13,1710832220953125
6.42,1710832220968750
9.35,1710832220984375
11.45,1710832221000000
12.57,1710832221015625
12.93,1710832221031250
12.92,1710832221046875
12.88,1710832221062500
12.95,1710832221078125
13.13,1710832221093750
13.41,1710832221109375
13.9,1710832221125000
14.84,1710832221140625
16.45,1710832221156250
18.75,1710832221171875
21.53,1710832221187500
24.36,1710832221203125
26.78,1710832221218750
28.43,1710832221234375
29.19,1710832221250000
29.18,1710832221265625
28.62,1710832221281250
27.57,1710832221296875
25.88,1710832221312500
23.14,1710832221328125
18.93,1710832221343750
13.02,1710832221359375
5.52,1710832221375000
-3.17,1710832221390625
-12.57,1710832221406250
-22.3,1710832221421875
-32.12,1710832221437500
-41.73,1710832221453125
-50.64,1710832221468750
-58.06,1710832221484375
-63.08,1710832221500000
-65.07,1710832221515625
-63.92,1710832221531250
-60.19,1710832221546875
-54.85,1710832221562500
-48.86,1710832221578125
-42.87,1710832221593750
-37.09,1710832221609375
-31.38,1710832221625000
-25.61,1710832221640625
-19.83,1710832221656250
-14.28,1710832221671875
-9.35,1710832221687500
-5.33,1710832221703125
-2.25,1710832221718750
0.07,1710832221734375
1.94,1710832221750000
3.63,1710832221765625
5.35,1710832221781250
7.08,1710832221796875
8.72,1710832221812500
10.04,1710832221828125
10.79,1710832221843750
10.77,1710832221859375
9.89,1710832221875000
8.31,1710832221890625
6.35,1710832221906250
4.43,1710832221921875
2.81,1710832221937500
1.49,1710832221953125
0.24,1710832221968750
-1.29,1710832221984375
-3.3,1710832222000000
-5.76,1710832222015625
-8.39,1710832222031250
-10.87,1710832222046875
-13.04,1710832222062500
-14.96,1710832222078125
-16.91,1710832222093750
-19.21,1710832222109375
-22.08,1710832222125000
-25.55,1710832222140625
-29.54,1710832222156250
-33.85,1710832222171875
-38.15,1710832222187500
-42.04,1710832222203125
-45.0,1710832222218750
-46.45,1710832222234375
-45.94,1710832222250000
-43.32,1710832222265625
-38.75,1710832222281250
-32.77,1710832222296875
-26.06,1710832222312500
-19.31,1710832222328125
-13.02,1710832222343750
-7.44,1710832222359375
-2.61,1710832222375000
1.53,1710832222390625
5.13,1710832222406250
8.3,1710832222421875
11.13,1710832222437500
13.68,1710832222453125
15.95,1710832222468750
17.81,1710832222484375
19.06,1710832222500000
19.43,1710832222515625
18.76,1710832222531250
17.12,1710832222546875
14.84,1710832222562500
12.42,1710832222578125
10.44,1710832222593750
9.31,1710832222609375
9.22,1710832222625000
10.17,1710832222640625
11.99,1710832222656250
14.36,1710832222671875
16.87,1710832222687500
18.96,1710832222703125
20.02,1710832222718750
19.52,1710832222734375
17.26,1710832222750000
13.4,1710832222765625
8.55,1710832222781250
3.39,1710832222796875
-1.43,1710832222812500
-5.58,1710832222828125
-9.02,1710832222843750
-12.03,1710832222859375
-15.03,1710832222875000
-18.51,1710832222890625
-22.92,1710832222906250
-28.51,1710832222921875
-35.15,1710832222937500
-42.15,1710832222953125
-48.44,1710832222968750
-52.79,1710832222984375
-54.33,1710832223000000
-52.82,1710832223015625
-48.79,1710832223031250
-43.22,1710832223046875
-37.11,1710832223062500
-31.1,1710832223078125
-25.32,1710832223093750
-19.53,1710832223109375
-13.46,1710832223125000
-7.09,1710832223140625
-0.7,1710832223156250
5.26,1710832223171875
10.38,1710832223187500
14.47,1710832223203125
17.56,1710832223218750
19.83,1710832223234375
21.51,1710832223250000
22.73,1710832223265625
23.58,1710832223281250
24.09,1710832223296875
24.29,1710832223312500
24.22,1710832223328125
23.92,1710832223343750
23.35,1710832223359375
22.4,1710832223375000
20.97,1710832223390625
18.98,1710832223406250
16.54,1710832223421875
13.87,1710832223437500
11.27,1710832223453125
9.02,1710832223468750
7.19,1710832223484375
5.68,1710832223500000
4.18,1710832223515625
2.41,1710832223531250
0.18,1710832223546875
-2.48,1710832223562500
-5.4,1710832223578125
-8.38,1710832223593750
-11.31,1710832223609375
-14.2,1710832223625000
-17.21,1710832223640625
-20.54,1710832223656250
-24.34,1710832223671875
-28.65,1710832223687500
-33.27,1710832223703125
-37.67,1710832223718750
-41.07,1710832223734375
-42.59,1710832223750000
-41.5,1710832223765625
-37.62,1710832223781250
-31.39,1710832223796875
-23.71,1710832223812500
-15.66,1710832223828125
-8.05,1710832223843750
-1.23,1710832223859375
4.84,1710832223875000
10.34,1710832223890625
15.27,1710832223906250
19.47,1710832223921875
22.71,1710832223937500
24.96,1710832223953125
26.51,1710832223968750
27.81,1710832223984375
29.3,1710832224000000
31.07,1710832224015625
32.89,1710832224031250
34.32,1710832224046875
35.04,1710832224062500
35.02,1710832224078125
34.47,1710832224093750
33.71,1710832224109375
32.82,1710832224125000
31.62,1710832224140625
29.75,1710832224156250
26.85,1710832224171875
22.86,1710832224187500
17.95,1710832224203125
12.51,1710832224218750
6.95,1710832224234375
1.6,1710832224250000
-3.31,1710832224265625
-7.55,1710832224281250
-10.86,1710832224296875
-12.99,1710832224312500
-13.82,1710832224328125
-13.45,1710832224343750
-12.29,1710832224359375
-10.92,1710832224375000
-9.82,1710832224390625
-9.23,1710832224406250
-8.95,1710832224421875
-8.39,1710832224437500
-6.87,1710832224453125
-3.93,1710832224468750
0.42,1710832224484375
5.61,1710832224500000
10.76,1710832224515625
15.04,1710832224531250
18.06,1710832224546875
20.01,1710832224562500
21.55,1710832224578125
23.33,1710832224593750
25.77,1710832224609375
28.76,1710832224625000
31.84,1710832224640625
34.47,1710832224656250
36.21,1710832224671875
36.92,1710832224687500
36.64,1710832224703125
35.44,1710832224718750
33.31,1710832224734375
30.29,1710832224750000
26.47,1710832224765625
22.2,1710832224781250
18.01,1710832224796875
14.47,1710832224812500
11.91,1710832224828125
10.32,1710832224843750
9.2,1710832224859375
7.86,1710832224875000
5.7,1710832224890625
2.44,1710832224906250
-1.74,1710832224921875
-6.34,1710832224937500
-10.86,1710832224953125
-15.07,1710832224968750
-19.13,1710832224984375
-23.46,1710832225000000
-28.57,1710832225015625
-34.72,1710832225031250
-41.89,1710832225046875
-49.67,1710832225062500
-57.4,1710832225078125
-64.23,1710832225093750
-69.25,1710832225109375
-71.67,1710832225125000
-70.99,1710832225140625
-67.2,1710832225156250
-60.83,1710832225171875
-52.83,1710832225187500
-44.31,1710832225203125
-36.18,1710832225218750
-28.98,1710832225234375
-22.76,1710832225250000
-17.28,1710832225265625
-12.22,1710832225281250
-7.31,1710832225296875
-2.45,1710832225312500
2.35,1710832225328125
7.11,1710832225343750
11.84,1710832225359375
16.54,1710832225375000
21.13,1710832225390625
25.42,1710832225406250
29.17,1710832225421875
32.22,1710832225437500
34.58,1710832225453125
36.47,1710832225468750
38.16,1710832225484375
39.92,1710832225500000
41.86,1710832225515625
43.88,1710832225531250
45.74,1710832225546875
47.1,1710832225562500
47.68,1710832225578125
47.35,1710832225593750
46.21,1710832225609375
44.53,1710832225625000
42.65,1710832225640625
40.82,1710832225656250
39.06,1710832225671875
37.22,1710832225687500
34.98,1710832225703125
32.02,1710832225718750
28.03,1710832225734375
22.86,1710832225750000
16.51,1710832225765625
9.35,1710832225781250
2.12,1710832225796875
-4.11,1710832225812500
-8.24,1710832225828125
-9.53,1710832225843750
-7.88,1710832225859375
-3.94,1710832225875000
1.2,1710832225890625
6.42,1710832225906250
10.94,1710832225921875
14.49,1710832225937500
17.21,1710832225953125
19.39,1710832225968750
21.25,1710832225984375
22.87,1710832226000000
24.21,1710832226015625
25.18,1710832226031250
25.8,1710832226046875
26.06,1710832226062500
25.95,1710832226078125
25.41,1710832226093750
24.3,1710832226109375
22.51,1710832226125000
20.02,1710832226140625
16.93,1710832226156250
13.48,1710832226171875
9.97,1710832226187500
6.58,1710832226203125
3.44,1710832226218750
0.55,1710832226234375
-2.03,1710832226250000
-4.21,1710832226265625
-5.89,1710832226281250
-7.08,1710832226296875
-7.86,1710832226312500
-8.45,1710832226328125
-9.08,1710832226343750
-9.91,1710832226359375
-11.05,1710832226375000
-12.6,1710832226390625
-14.71,1710832226406250
-17.54,1710832226421875
-21.12,1710832226437500
-25.29,1710832226453125
-29.62,1710832226468750
-33.51,1710832226484375
-36.31,1710832226500000
-37.42,1710832226515625
-36.44,1710832226531250
-33.19,1710832226546875
-27.76,1710832226562500
-20.6,1710832226578125
-12.47,1710832226593750
-4.32,1710832226609375
3.03,1710832226625000
9.13,1710832226640625
14.04,1710832226656250
18.1,1710832226671875
21.74,1710832226687500
25.13,1710832226703125
28.11,1710832226718750
30.33,1710832226734375
31.54,1710832226750000
31.74,1710832226765625
31.13,1710832226781250
29.96,1710832226796875
28.36,1710832226812500
26.3,1710832226828125
23.59,1710832226843750
20.13,1710832226859375
15.89,1710832226875000
10.93,1710832226890625
5.35,1710832226906250
-0.8,1710832226921875
-7.42,1710832226937500
-14.38,1710832226953125
-21.43,1710832226968750
-28.36,1710832226984375
-34.96,1710832227000000
-41.19,1710832227015625
-47.06,1710832227031250
-52.54,1710832227046875
-57.47,1710832227062500
-61.68,1710832227078125
-65.02,1710832227093750
-67.53,1710832227109375
-69.46,1710832227125000
-71.06,1710832227140625
-72.36,1710832227156250
-73.01,1710832227171875
-72.28,1710832227187500
-69.28,1710832227203125
-63.38,1710832227218750
-54.54,1710832227234375
-43.42,1710832227250000
-31.23,1710832227265625
-19.36,1710832227281250
-8.94,1710832227296875
-0.47,1710832227312500
6.24,1710832227328125
11.75,1710832227343750
16.66,1710832227359375
21.31,1710832227375000
25.68,1710832227390625
29.57,1710832227406250
32.8,1710832227421875
35.33,1710832227437500
37.19,1710832227453125
38.43,1710832227468750
38.94,1710832227484375
38.61,1710832227500000
37.44,1710832227515625
35.66,1710832227531250
33.72,1710832227546875
32.09,1710832227562500
30.97,1710832227578125
30.19,1710832227593750
29.21,1710832227609375
27.45,1710832227625000
24.5,1710832227640625
20.36,1710832227656250
15.34,1710832227671875
9.82,1710832227687500
4.07,1710832227703125
-1.9,1710832227718750
-8.2,1710832227734375
-14.87,1710832227750000
-21.76,1710832227765625
-28.6,1710832227781250
-35.24,1710832227796875
-41.78,1710832227812500
-48.5,1710832227828125
-55.53,1710832227843750
-62.58,1710832227859375
-68.84,1710832227875000
-73.28,1710832227890625
-75.16,1710832227906250
-74.51,1710832227921875
-72.11,1710832227937500
-69.2,1710832227953125
-66.79,1710832227968750
-65.27,1710832227984375
-64.25,1710832228000000
-62.91,1710832228015625
-60.51,1710832228031250
-56.77,1710832228046875
-52.01,1710832228062500
-46.88,1710832228078125
-42.04,1710832228093750
-37.85,1710832228109375
-34.4,1710832228125000
-31.6,1710832228140625
-29.46,1710832228156250
-28.19,1710832228171875
-27.99,1710832228187500
-28.75,1710832228203125
-29.89,1710832228218750
-30.46,1710832228234375
-29.51,1710832228250000
-26.62,1710832228265625
-22.12,1710832228281250
-16.96,1710832228296875
-12.12,1710832228312500
-8.13,1710832228328125
-4.71,1710832228343750
-0.9,1710832228359375
4.49,1710832228375000
12.24,1710832228390625
22.43,1710832228406250
34.26,1710832228421875
46.36,1710832228437500
57.14,1710832228453125
65.23,1710832228468750
69.64,1710832228484375
70.09,1710832228500000
67.03,1710832228515625
61.59,1710832228531250
55.43,1710832228546875
50.24,1710832228562500
47.29,1710832228578125
47.04,1710832228593750
49.06,1710832228609375
52.29,1710832228625000
55.63,1710832228640625
58.27,1710832228656250
59.77,1710832228671875
59.96,1710832228687500
58.56,1710832228703125
55.2,1710832228718750
49.64,1710832228734375
42.17,1710832228750000
33.67,1710832228765625
25.38,1710832228781250
18.13,1710832228796875
11.87,1710832228812500
5.52,1710832228828125
-2.44,1710832228843750
-13.01,1710832228859375
-25.87,1710832228875000
-39.16,1710832228890625
-50.18,1710832228906250
-56.62,1710832228921875
-57.72,1710832228937500
-54.75,1710832228953125
-50.57,1710832228968750
-48.27,1710832228984375
-49.84,1710832229000000
-55.18,1710832229015625
-62.18,1710832229031250
-67.82,1710832229046875
-69.46,1710832229062500
-65.75,1710832229078125
-56.95,1710832229093750
-44.37,1710832229109375
-29.67,1710832229125000
-14.65,1710832229140625
-1.38,1710832229156250
7.9,1710832229171875
11.86,1710832229187500
11.61,1710832229203125
11.49,1710832229218750
17.89,1710832229234375
35.88,1710832229250000
65.34,1710832229265625
99.01,1710832229281250
124.59,1710832229296875
130.17,1710832229312500
110.3,1710832229328125
69.24,1710832229343750
19.19,1710832229359375
-25.35,1710832229375000
-53.73,1710832229390625
-62.42,1710832229406250
-54.07,1710832229421875
-34.04,1710832229437500
-7.33,1710832229453125
22.36,1710832229468750
51.74,1710832229484375
76.77,1710832229500000
93.0,1710832229515625
97.22,1710832229531250
89.26,1710832229546875
72.41,1710832229562500
51.99,1710832229578125
33.19,1710832229593750
19.06,1710832229609375
10.13,1710832229625000
5.0,1710832229640625
1.31,1710832229656250
-3.93,1710832229671875
-14.39,1710832229687500
-33.74,1710832229703125
-64.05,1710832229718750
-103.57,1710832229734375
-145.37,1710832229750000
-178.48,1710832229765625
-191.63,1710832229781250
-177.93,1710832229796875
-138.37,1710832229812500
-82.45,1710832229828125
-24.91,1710832229843750
19.59,1710832229859375
41.08,1710832229875000
36.63,1710832229890625
9.76,1710832229906250
-31.9,1710832229921875
-79.26,1710832229937500
-123.5,1710832229953125
-157.02,1710832229968750
-174.02,1710832229984375
-171.57,1710832230000000
-150.85,1710832230015625
-117.7,1710832230031250
-81.46,1710832230046875
-51.86,1710832230062500
-35.86,1710832230078125
-35.36,1710832230093750
-47.27,1710832230109375
-65.32,1710832230125000
-82.9,1710832230140625
-95.05,1710832230156250
-99.1,1710832230171875
-94.28,1710832230187500
-80.93,1710832230203125
-59.88,1710832230218750
-32.37,1710832230234375
-0.01,1710832230250000
35.3,1710832230265625
71.54,1710832230281250
107.1,1710832230296875
140.95,1710832230312500
172.24,1710832230328125
199.85,1710832230343750
222.36,1710832230359375
238.51,1710832230375000
247.78,1710832230390625
250.8,1710832230406250
249.1,1710832230421875
244.39,1710832230437500
237.95,1710832230453125
230.27,1710832230468750
221.27,1710832230484375
210.9,1710832230500000
199.58,1710832230515625
188.18,1710832230531250
177.39,1710832230546875
167.32,1710832230562500
157.24,1710832230578125
145.98,1710832230593750
132.7,1710832230609375
117.48,1710832230625000
101.45,1710832230640625
86.26,1710832230656250
73.29,1710832230671875
63.06,1710832230687500
55.08,1710832230703125
48.13,1710832230718750
40.78,1710832230734375
32.11,1710832230750000
22.4,1710832230765625
13.31,1710832230781250
7.51,1710832230796875
7.54,1710832230812500
14.41,1710832230828125
26.5,1710832230843750
39.63,1710832230859375
48.59,1710832230875000
49.44,1710832230890625
41.58,1710832230906250
28.32,1710832230921875
15.59,1710832230937500
9.26,1710832230953125
12.41,1710832230968750
24.08,1710832230984375
39.65,1710832231000000
52.98,1710832231015625
58.79,1710832231031250
54.48,1710832231046875
40.68,1710832231062500
20.63,1710832231078125
-1.38,1710832231093750
-21.65,1710832231109375
-38.41,1710832231125000
-52.3,1710832231140625
-65.7,1710832231156250
-81.48,1710832231171875
-101.62,1710832231187500
-126.76,1710832231203125
-156.63,1710832231218750
-190.85,1710832231234375
-229.3,1710832231250000
-271.42,1710832231265625
-315.03,1710832231281250
-355.8,1710832231296875
-388.39,1710832231312500
-409.2,1710832231328125
-418.79,1710832231343750
-422.5,1710832231359375
-428.09,1710832231375000
-441.18,1710832231390625
-461.31,1710832231406250
-481.01,1710832231421875
-488.88,1710832231437500
-475.49,1710832231453125
-437.97,1710832231468750
-380.95,1710832231484375
-313.64,1710832231500000
-245.21,1710832231515625
-181.11,1710832231531250
-122.74,1710832231546875
-69.39,1710832231562500
-20.78,1710832231578125
21.83,1710832231593750
56.69,1710832231609375
84.0,1710832231625000
107.45,1710832231640625
133.58,1710832231656250
168.54,1710832231671875
214.13,1710832231687500
265.04,1710832231703125
309.71,1710832231718750
334.69,1710832231734375
331.21,1710832231750000
300.26,1710832231765625
253.16,1710832231781250
206.92,1710832231796875
176.19,1710832231812500
166.25,1710832231828125
171.21,1710832231843750
178.5,1710832231859375
176.83,1710832231875000
162.78,1710832231890625
141.62,1710832231906250
122.71,1710832231921875
113.04,1710832231937500
113.06,1710832231953125
117.64,1710832231968750
120.81,1710832231984375
120.3,1710832232000000
118.74,1710832232015625
121.17,1710832232031250
130.42,1710832232046875
144.51,1710832232062500
157.23,1710832232078125
161.49,1710832232093750
153.01,1710832232109375
132.28,1710832232125000
103.96,1710832232140625
74.53,1710832232156250
49.65,1710832232171875
32.35,1710832232187500
22.74,1710832232203125
18.74,1710832232218750
17.31,1710832232234375
15.89,1710832232250000
13.14,1710832232265625
9.14,1710832232281250
4.88,1710832232296875
1.4,1710832232312500
-0.96,1710832232328125
-2.81,1710832232343750
-5.36,1710832232359375
-9.74,1710832232375000
-16.28,1710832232390625
-24.27,1710832232406250
-32.06,1710832232421875
-37.74,1710832232437500
-39.85,1710832232453125
-37.94,1710832232468750
-32.67,1710832232484375
-25.49,1710832232500000
-18.13,1710832232515625
-11.93,1710832232531250
-7.63,1710832232546875
-5.22,1710832232562500
-4.34,1710832232578125
-4.47,1710832232593750
-5.13,1710832232609375
-5.84,1710832232625000
-6.05,1710832232640625
-5.24,1710832232656250
-3.15,1710832232671875
-0.03,1710832232687500
3.38,1710832232703125
6.01,1710832232718750
6.87,1710832232734375
5.47,1710832232750000
1.89,1710832232765625
-3.36,1710832232781250
-9.64,1710832232796875
-16.34,1710832232812500
-22.95,1710832232828125
-28.92,1710832232843750
-33.65,1710832232859375
-36.6,1710832232875000
-37.62,1710832232890625
-37.14,1710832232906250
-36.17,1710832232921875
-35.97,1710832232937500
-37.55,1710832232953125
-41.14,1710832232968750
-46.04,1710832232984375
-50.77,1710832233000000
-53.55,1710832233015625
-52.85,1710832233031250
-47.93,1710832233046875
-38.98,1710832233062500
-27.09,1710832233078125
-13.9,1710832233093750
-1.08,1710832233109375
10.03,1710832233125000
18.69,1710832233140625
24.73,1710832233156250
28.35,1710832233171875
29.88,1710832233187500
29.61,1710832233203125
27.8,1710832233218750
24.71,1710832233234375
20.79,1710832233250000
16.72,1710832233265625
13.26,1710832233281250
11.05,1710832233296875
10.3,1710832233312500
10.74,1710832233328125
11.74,1710832233343750
12.55,1710832233359375
12.65,1710832233375000
11.94,1710832233390625
10.7,1710832233406250
9.33,1710832233421875
8.12,1710832233437500
7.08,1710832233453125
5.94,1710832233468750
4.21,1710832233484375
1.48,1710832233500000
-2.6,1710832233515625
-8.18,1710832233531250
-15.19,1710832233546875
-23.29,1710832233562500
-31.8,1710832233578125
-39.7,1710832233593750
-45.75,1710832233609375
-48.77,1710832233625000
-47.97,1710832233640625
-43.25,1710832233656250
-35.3,1710832233671875
-25.45,1710832233687500
-15.26,1710832233703125
-6.0,1710832233718750
1.56,1710832233734375
7.3,1710832233750000
11.46,1710832233765625
14.34,1710832233781250
16.09,1710832233796875
16.74,1710832233812500
16.27,1710832233828125
14.77,1710832233843750
12.47,1710832233859375
9.6,1710832233875000
6.3,1710832233890625
2.63,1710832233906250
-1.37,1710832233921875
-5.57,1710832233937500
-9.79,1710832233953125
-13.87,1710832233968750
-17.85,1710832233984375
-21.92,1710832234000000
-26.39,1710832234015625
-31.42,1710832234031250
-36.93,1710832234046875
-42.69,1710832234062500
-48.52,1710832234078125
-54.34,1710832234093750
-60.24,1710832234109375
-66.29,1710832234125000
-72.36,1710832234140625
-78.04,1710832234156250
-82.62,1710832234171875
-85.15,1710832234187500
-84.65,1710832234203125
-80.2,1710832234218750
-71.25,1710832234234375
-57.7,1710832234250000
-40.06,1710832234265625
-19.36,1710832234281250
2.97,1710832234296875
25.48,1710832234312500
46.93,1710832234328125
66.49,1710832234343750
83.72,1710832234359375
98.48,1710832234375000
110.82,1710832234390625
120.82,1710832234406250
128.56,1710832234421875
134.05,1710832234437500
137.32,1710832234453125
138.48,1710832234468750
137.77,1710832234484375
135.67,1710832234500000
132.78,1710832234515625
129.7,1710832234531250
126.91,1710832234546875
124.56,1710832234562500
122.39,1710832234578125
119.86,1710832234593750
116.3,1710832234609375
111.16,1710832234625000
104.26,1710832234640625
95.83,1710832234656250
86.49,1710832234671875
77.01,1710832234687500
67.97,1710832234703125
59.49,1710832234718750
51.28,1710832234734375
42.79,1710832234750000
33.48,1710832234765625
23.1,1710832234781250
11.77,1710832234796875
-0.08,1710832234812500
-11.76,1710832234828125
-22.48,1710832234843750
-31.42,1710832234859375
-37.99,1710832234875000
-41.93,1710832234890625
-43.51,1710832234906250
-43.51,1710832234921875
-42.95,1710832234937500
-42.77,1710832234953125
-43.52,1710832234968750
-45.24,1710832234984375
-47.63,1710832235000000
-50.27,1710832235015625
-52.74,1710832235031250
-54.74,1710832235046875
-55.99,1710832235062500
-56.23,1710832235078125
-55.24,1710832235093750
-52.95,1710832235109375
-49.52,1710832235125000
-45.27,1710832235140625
-40.68,1710832235156250
-36.14,1710832235171875
-31.95,1710832235187500
-28.21,1710832235203125
-24.86,1710832235218750
-21.79,1710832235234375
-18.86,1710832235250000
-16.0,1710832235265625
-13.24,1710832235281250
-10.69,1710832235296875
-8.46,1710832235312500
-6.63,1710832235328125
-5.2,1710832235343750
-4.18,1710832235359375
-3.66,1710832235375000
-3.83,1710832235390625
-4.86,1710832235406250
-6.69,1710832235421875
-8.84,1710832235437500
-10.41,1710832235453125
-10.31,1710832235468750
-7.7,1710832235484375
-2.34,1710832235500000
5.38,1710832235515625
14.61,1710832235531250
24.33,1710832235546875
33.67,1710832235562500
41.99,1710832235578125
48.83,1710832235593750
53.87,1710832235609375
56.93,1710832235625000
58.02,1710832235640625
57.45,1710832235656250
55.72,1710832235671875
53.35,1710832235687500
50.54,1710832235703125
47.09,1710832235718750
42.48,1710832235734375
36.25,1710832235750000
28.28,1710832235765625
18.96,1710832235781250
8.98,1710832235796875
-0.92,1710832235812500
-10.28,1710832235828125
-18.98,1710832235843750
-27.13,1710832235859375
-34.86,1710832235875000
-42.11,1710832235890625
-48.73,1710832235906250
-54.51,1710832235921875
-59.48,1710832235937500
-63.91,1710832235953125
-68.23,1710832235968750
-72.81,1710832235984375
-77.68,1710832236000000
-82.38,1710832236015625
-86.01,1710832236031250
-87.44,1710832236046875
-85.66,1710832236062500
-80.22,1710832236078125
-71.37,1710832236093750
-60.1,1710832236109375
-47.74,1710832236125000
-35.58,1710832236140625
-24.42,1710832236156250
-14.57,1710832236171875
-6.01,1710832236187500
1.36,1710832236203125
7.46,1710832236218750
12.1,1710832236234375
15.16,1710832236250000
16.77,1710832236265625
17.3,1710832236281250
17.27,1710832236296875
17.08,1710832236312500
16.86,1710832236328125
16.47,1710832236343750
15.64,1710832236359375
14.07,1710832236375000
11.69,1710832236390625
8.59,1710832236406250
5.09,1710832236421875
1.59,1710832236437500
-1.57,1710832236453125
-4.15,1710832236468750
-6.18,1710832236484375
-7.91,1710832236500000
-9.72,1710832236515625
-12.06,1710832236531250
-15.31,1710832236546875
-19.67,1710832236562500
-25.07,1710832236578125
-31.08,1710832236593750
-36.9,1710832236609375
-41.52,1710832236625000
-44.0,1710832236640625
-43.76,1710832236656250
-40.75,1710832236671875
-35.43,1710832236687500
-28.53,1710832236703125
-20.71,1710832236718750
-12.47,1710832236734375
-4.05,1710832236750000
4.38,1710832236765625
12.62,1710832236781250
20.35,1710832236796875
27.16,1710832236812500
32.69,1710832236828125
36.7,1710832236843750
39.19,1710832236859375
40.32,1710832236875000
40.38,1710832236890625
39.75,1710832236906250
38.96,1710832236921875
38.67,1710832236937500
39.52,1710832236953125
41.88,1710832236968750
45.67,1710832236984375
50.32,1710832237000000
55.06,1710832237015625
59.33,1710832237031250
63.07,1710832237046875
66.57,1710832237062500
70.18,1710832237078125
73.85,1710832237093750
76.99,1710832237109375
78.62,1710832237125000
77.83,1710832237140625
74.15,1710832237156250
67.57,1710832237171875
58.49,1710832237187500
47.48,1710832237203125
35.28,1710832237218750
22.77,1710832237234375
11.08,1710832237250000
1.29,1710832237265625
-5.88,1710832237281250
-10.35,1710832237296875
-12.64,1710832237312500
-13.56,1710832237328125
-13.91,1710832237343750
-14.19,1710832237359375
-14.63,1710832237375000
-15.38,1710832237390625
-16.63,1710832237406250
-18.56,1710832237421875
-21.17,1710832237437500
-24.26,1710832237453125
-27.35,1710832237468750
-29.93,1710832237484375
-31.56,1710832237500000
-32.03,1710832237515625
-31.32,1710832237531250
-29.49,1710832237546875
-26.6,1710832237562500
-22.65,1710832237578125
-17.64,1710832237593750
-11.6,1710832237609375
-4.79,1710832237625000
2.24,1710832237640625
8.77,1710832237656250
14.09,1710832237671875
17.74,1710832237687500
19.71,1710832237703125
20.37,1710832237718750
20.29,1710832237734375
19.96,1710832237750000
19.64,1710832237765625
19.42,1710832237781250
19.25,1710832237796875
19.07,1710832237812500
18.8,1710832237828125
18.3,1710832237843750
17.46,1710832237859375
16.29,1710832237875000
15.16,1710832237890625
14.73,1710832237906250
15.68,1710832237921875
18.36,1710832237937500
22.49,1710832237953125
27.19,1710832237968750
31.36,1710832237984375
34.11,1710832238000000
34.99,1710832238015625
34.03,1710832238031250
31.42,1710832238046875
27.33,1710832238062500
21.87,1710832238078125
15.14,1710832238093750
7.49,1710832238109375
-0.54,1710832238125000
-8.32,1710832238140625
-15.35,1710832238156250
-21.42,1710832238171875
-26.53,1710832238187500
-30.85,1710832238203125
-34.54,1710832238218750
-37.68,1710832238234375
-40.29,1710832238250000
-42.29,1710832238265625
-43.5,1710832238281250
-43.66,1710832238296875
-42.48,1710832238312500
-39.82,1710832238328125
-35.86,1710832238343750
-31.13,1710832238359375
-26.38,1710832238375000
-22.26,1710832238390625
-19.12,1710832238406250
-16.87,1710832238421875
-15.18,1710832238437500
-13.7,1710832238453125
-12.3,1710832238468750
-11.11,1710832238484375
-10.43,1710832238500000
-10.52,1710832238515625
-11.49,1710832238531250
-13.28,1710832238546875
-15.68,1710832238562500
-18.33,1710832238578125
-20.79,1710832238593750
-22.61,1710832238609375
-23.35,1710832238625000
-22.89,1710832238640625
-21.41,1710832238656250
-19.41,1710832238671875
-17.42,1710832238687500
-15.6,1710832238703125
-13.7,1710832238718750
-11.1,1710832238734375
-7.23,1710832238750000
-1.96,1710832238765625
4.33,1710832238781250
10.88,1710832238796875
16.98,1710832238812500
22.35,1710832238828125
27.16,1710832238843750
31.77,1710832238859375
36.43,1710832238875000
40.88,1710832238890625
44.45,1710832238906250
46.4,1710832238921875
46.25,1710832238937500
44.03,1710832238953125
40.17,1710832238968750
35.29,1710832238984375
29.87,1710832239000000
24.21,1710832239015625
18.39,1710832239031250
12.48,1710832239046875
6.57,1710832239062500
0.71,1710832239078125
-5.22,1710832239093750
-11.57,1710832239109375
-18.79,1710832239125000
-27.16,1710832239140625
-36.44,1710832239156250
-45.75,1710832239171875
-53.87,1710832239187500
-59.72,1710832239203125
-62.82,1710832239218750
-63.61,1710832239234375
-63.18,1710832239250000
-62.78,1710832239265625
-63.22,1710832239281250
-64.51,1710832239296875
-65.97,1710832239312500
-66.51,1710832239328125
-65.16,1710832239343750
-61.29,1710832239359375
-54.72,1710832239375000
-45.64,1710832239390625
-34.51,1710832239406250
-22.04,1710832239421875
-9.06,1710832239437500
3.49,1710832239453125
14.77,1710832239468750
24.16,1710832239484375
31.34,1710832239500000
36.29,1710832239515625
39.14,1710832239531250
40.1,1710832239546875
39.39,1710832239562500
37.28,1710832239578125
34.04,1710832239593750
30.01,1710832239609375
25.41,1710832239625000
20.35,1710832239640625
14.87,1710832239656250
9.03,1710832239671875
3.0,1710832239687500
-2.89,1710832239703125
-8.24,1710832239718750
-12.75,1710832239734375
-16.34,1710832239750000
-19.19,1710832239765625
-21.61,1710832239781250
-23.92,1710832239796875
-26.28,1710832239812500
-28.62,1710832239828125
-30.73,1710832239843750
-32.34,1710832239859375
-33.22,1710832239875000
-33.3,1710832239890625
-32.61,1710832239906250
-31.33,1710832239921875
-29.71,1710832239937500
-27.99,1710832239953125
-26.36,1710832239968750
-24.88,1710832239984375
-23.41,1710832240000000
-21.68,1710832240015625
-19.27,1710832240031250
-15.82,1710832240046875
-11.18,1710832240062500
-5.51,1710832240078125
0.72,1710832240093750
6.81,1710832240109375
12.17,1710832240125000
16.51,1710832240140625
19.99,1710832240156250
23.06,1710832240171875
26.18,1710832240187500
29.53,1710832240203125
32.93,1710832240218750
36.06,1710832240234375
38.8,1710832240250000
41.3,1710832240265625
43.91,1710832240281250
46.8,1710832240296875
49.62,1710832240312500
51.52,1710832240328125
51.46,1710832240343750
48.73,1710832240359375
43.31,1710832240375000
35.87,1710832240390625
27.46,1710832240406250
19.01,1710832240421875
11.04,1710832240437500
3.63,1710832240453125
-3.35,1710832240468750
-9.94,1710832240484375
-15.95,1710832240500000
-21.0,1710832240515625
-24.72,1710832240531250
-27.02,1710832240546875
-28.19,1710832240562500
-28.82,1710832240578125
-29.69,1710832240593750
-31.49,1710832240609375
-34.64,1710832240625000
-39.12,1710832240640625
-44.47,1710832240656250
-49.86,1710832240671875
-54.3,1710832240687500
-56.81,1710832240703125
-56.66,1710832240718750
-53.59,1710832240734375
-47.9,1710832240750000
-40.4,1710832240765625
-32.1,1710832240781250
-23.99,1710832240796875
-16.71,1710832240812500
-10.52,1710832240828125
-5.47,1710832240843750
-1.57,1710832240859375
0.98,1710832240875000
1.89,1710832240890625
0.99,1710832240906250
-1.54,1710832240921875
-5.09,1710832240937500
-8.77,1710832240953125
-11.71,1710832240968750
-13.38,1710832240984375
-13.71,1710832241000000
-13.06,1710832241015625
-12.0,1710832241031250
-11.05,1710832241046875
-10.57,1710832241062500
-10.69,1710832241078125
-11.37,1710832241093750
-12.42,1710832241109375
-13.72,1710832241125000
-15.18,1710832241140625
-16.82,1710832241156250
-18.67,1710832241171875
-20.81,1710832241187500
-23.21,1710832241203125
-25.81,1710832241218750
-28.51,1710832241234375
-31.2,1710832241250000
-33.76,1710832241265625
-35.89,1710832241281250
-37.13,1710832241296875
-36.82,1710832241312500
-34.33,1710832241328125
-29.38,1710832241343750
-22.22,1710832241359375
-13.71,1710832241375000
-5.03,1710832241390625
2.68,1710832241406250
8.71,1710832241421875
12.96,1710832241437500
15.8,1710832241453125
17.82,1710832241468750
19.51,1710832241484375
21.07,1710832241500000
22.36,1710832241515625
23.11,1710832241531250
23.06,1710832241546875
22.12,1710832241562500
20.43,1710832241578125
18.29,1710832241593750
16.11,1710832241609375
14.17,1710832241625000
12.52,1710832241640625
10.93,1710832241656250
8.99,1710832241671875
6.27,1710832241687500
2.55,1710832241703125
-2.1,1710832241718750
-7.45,1710832241734375
-13.21,1710832241750000
-19.2,1710832241765625
-25.31,1710832241781250
-31.4,1710832241796875
-37.16,1710832241812500
-42.14,1710832241828125
-45.91,1710832241843750
-48.33,1710832241859375
-49.62,1710832241875000
-50.31,1710832241890625
-50.85,1710832241906250
-51.38,1710832241921875
-51.51,1710832241937500
-50.51,1710832241953125
-47.61,1710832241968750
-42.37,1710832241984375
-34.97,1710832242000000
-26.08,1710832242015625
-16.61,1710832242031250
-7.32,1710832242046875
1.44,1710832242062500
9.77,1710832242078125
17.97,1710832242093750
26.27,1710832242109375
34.64,1710832242125000
42.75,1710832242140625
50.09,1710832242156250
56.21,1710832242171875
60.81,1710832242187500
63.75,1710832242203125
65.13,1710832242218750
65.1,1710832242234375
63.84,1710832242250000
61.65,1710832242265625
58.72,1710832242281250
55.16,1710832242296875
50.84,1710832242312500
45.54,1710832242328125
39.04,1710832242343750
31.35,1710832242359375
22.81,1710832242375000
14.02,1710832242390625
5.66,1710832242406250
-1.71,1710832242421875
-7.84,1710832242437500
-12.79,1710832242453125
-16.88,1710832242468750
-20.55,1710832242484375
-24.27,1710832242500000
-28.42,1710832242515625
-33.16,1710832242531250
-38.41,1710832242546875
-43.69,1710832242562500
-48.19,1710832242578125
-50.93,1710832242593750
-50.99,1710832242609375
-47.87,1710832242625000
-41.64,1710832242640625
-32.96,1710832242656250
-22.87,1710832242671875
-12.53,1710832242687500
-2.87,1710832242703125
5.59,1710832242718750
12.63,1710832242734375
18.23,1710832242750000
22.39,1710832242765625
25.07,1710832242781250
26.29,1710832242796875
26.22,1710832242812500
25.32,1710832242828125
24.15,1710832242843750
23.25,1710832242859375
22.92,1710832242875000
23.18,1710832242890625
23.72,1710832242906250
24.22,1710832242921875
24.37,1710832242937500
24.07,1710832242953125
23.48,1710832242968750
22.88,1710832242984375
22.5,1710832243000000
22.47,1710832243015625
22.66,1710832243031250
22.77,1710832243046875
22.4,1710832243062500
21.23,1710832243078125
19.13,1710832243093750
16.21,1710832243109375
12.64,1710832243125000
8.53,1710832243140625
3.85,1710832243156250
-1.55,1710832243171875
-7.8,1710832243187500
-14.9,1710832243203125
-22.64,1710832243218750
-30.7,1710832243234375
-38.72,1710832243250000
-46.33,1710832243265625
-53.14,1710832243281250
-58.58,1710832243296875
-62.03,1710832243312500
-62.86,1710832243328125
-60.65,1710832243343750
-55.43,1710832243359375
-47.65,1710832243375000
-38.02,1710832243390625
-27.3,1710832243406250
-16.05,1710832243421875
-4.74,1710832243437500
6.25,1710832243453125
16.53,1710832243468750
25.66,1710832243484375
33.35,1710832243500000
39.56,1710832243515625
44.53,1710832243531250
48.61,1710832243546875
52.1,1710832243562500
55.04,1710832243578125
57.25,1710832243593750
58.42,1710832243609375
58.34,1710832243625000
56.97,1710832243640625
54.51,1710832243656250
51.34,1710832243671875
47.78,1710832243687500
44.08,1710832243703125
40.32,1710832243718750
36.51,1710832243734375
32.61,1710832243750000
28.69,1710832243765625
24.93,1710832243781250
21.59,1710832243796875
18.98,1710832243812500
17.29,1710832243828125
16.62,1710832243843750
16.9,1710832243859375
17.99,1710832243875000
19.64,1710832243890625
21.67,1710832243906250
24.06,1710832243921875
27.0,1710832243937500
31.01,1710832243953125
36.81,1710832243968750
45.06,1710832243984375
56.12,1710832244000000
69.83,1710832244015625
85.43,1710832244031250
101.73,1710832244046875
117.41,1710832244062500
131.29,1710832244078125
142.57,1710832244093750
150.85,1710832244109375
156.08,1710832244125000
158.39,1710832244140625
157.88,1710832244156250
154.56,1710832244171875
148.25,1710832244187500
138.81,1710832244203125
126.14,1710832244218750
110.46,1710832244234375
92.31,1710832244250000
72.48,1710832244265625
51.87,1710832244281250
31.35,1710832244296875
11.64,1710832244312500
-6.65,1710832244328125
-23.06,1710832244343750
-37.39,1710832244359375
-49.72,1710832244375000
-60.48,1710832244390625
-70.3,1710832244406250
-79.74,1710832244421875
-89.03,1710832244437500
-97.92,1710832244453125
-105.76,1710832244468750
-111.87,1710832244484375
-115.8,1710832244500000
-117.56,1710832244515625
-117.6,1710832244531250
-116.66,1710832244546875
-115.47,1710832244562500
-114.54,1710832244578125
-114.09,1710832244593750
-113.94,1710832244609375
-113.64,1710832244625000
-112.48,1710832244640625
-109.75,1710832244656250
-104.77,1710832244671875
-97.22,1710832244687500
-87.09,1710832244703125
-74.81,1710832244718750
-61.11,1710832244734375
-46.87,1710832244750000
-32.97,1710832244765625
-20.09,1710832244781250
-8.57,1710832244796875
1.66,1710832244812500
10.97,1710832244828125
19.78,1710832244843750
28.29,1710832244859375
36.32,1710832244875000
43.39,1710832244890625
48.85,1710832244906250
52.26,1710832244921875
53.5,1710832244937500
52.85,1710832244953125
50.84,1710832244968750
47.97,1710832244984375
44.58,1710832245000000
40.79,1710832245015625
36.55,1710832245031250
31.78,1710832245046875
26.44,1710832245062500
20.61,1710832245078125
14.46,1710832245093750
8.18,1710832245109375
1.97,1710832245125000
-4.07,1710832245140625
-9.87,1710832245156250
-15.41,1710832245171875
-20.65,1710832245187500
-25.5,1710832245203125
-29.82,1710832245218750
-33.44,1710832245234375
-36.3,1710832245250000
-38.42,1710832245265625
-40.03,1710832245281250
-41.51,1710832245296875
-43.37,1710832245312500
-46.12,1710832245328125
-50.08,1710832245343750
-55.24,1710832245359375
-61.21,1710832245375000
-67.25,1710832245390625
-72.4,1710832245406250
-75.81,1710832245421875
-76.88,1710832245437500
-75.39,1710832245453125
-71.5,1710832245468750
-65.63,1710832245484375
-58.41,1710832245500000
-50.43,1710832245515625
-42.2,1710832245531250
-34.0,1710832245546875
-25.92,1710832245562500
-17.91,1710832245578125
-9.91,1710832245593750
-1.94,1710832245609375
5.79,1710832245625000
12.96,1710832245640625
19.18,1710832245656250
24.18,1710832245671875
27.88,1710832245687500
30.41,1710832245703125
32.05,1710832245718750
33.02,1710832245734375
33.48,1710832245750000
33.48,1710832245765625
33.03,1710832245781250
32.2,1710832245796875
31.19,1710832245812500
30.27,1710832245828125
29.63,1710832245843750
29.22,1710832245859375
28.73,1710832245875000
27.7,1710832245890625
25.74,1710832245906250
22.76,1710832245921875
18.98,1710832245937500
14.84,1710832245953125
10.8,1710832245968750
7.09,1710832245984375
3.76,1710832246000000
0.72,1710832246015625
-2.09,1710832246031250
-4.67,1710832246046875
-6.94,1710832246062500
-8.86,1710832246078125
-10.48,1710832246093750
-11.9,1710832246109375
-13.24,1710832246125000
-14.66,1710832246140625
-16.33,1710832246156250
-18.51,1710832246171875
-21.49,1710832246187500
-25.39,1710832246203125
-30.09,1710832246218750
-35.06,1710832246234375
-39.46,1710832246250000
-42.4,1710832246265625
-43.16,1710832246281250
-41.47,1710832246296875
-37.46,1710832246312500
-31.66,1710832246328125
-24.72,1710832246343750
-17.34,1710832246359375
-10.11,1710832246375000
-3.41,1710832246390625
2.55,1710832246406250
7.8,1710832246421875
12.41,1710832246437500
16.48,1710832246453125
20.07,1710832246468750
23.29,1710832246484375
26.32,1710832246500000
29.43,1710832246515625
32.87,1710832246531250
36.77,1710832246546875
40.93,1710832246562500
44.87,1710832246578125
48.01,1710832246593750
49.88,1710832246609375
50.27,1710832246625000
49.38,1710832246640625
47.58,1710832246656250
45.28,1710832246671875
42.73,1710832246687500
40.02,1710832246703125
37.11,1710832246718750
34.01,1710832246734375
30.79,1710832246750000
27.66,1710832246765625
24.83,1710832246781250
22.41,1710832246796875
20.33,1710832246812500
18.31,1710832246828125
16.01,1710832246843750
13.2,1710832246859375
9.82,1710832246875000
6.01,1710832246890625
2.0,1710832246906250
-1.98,1710832246921875
-5.79,1710832246937500
-9.37,1710832246953125
-12.67,1710832246968750
-15.68,1710832246984375
-18.44,1710832247000000
-21.07,1710832247015625
-23.82,1710832247031250
-26.9,1710832247046875
-30.41,1710832247062500
-34.15,1710832247078125
-37.61,1710832247093750
-40.06,1710832247109375
-40.73,1710832247125000
-39.05,1710832247140625
-34.83,1710832247156250
-28.28,1710832247171875
-20.0,1710832247187500
-10.85,1710832247203125
-1.72,1710832247218750
6.63,1710832247234375
13.79,1710832247250000
19.61,1710832247265625
24.26,1710832247281250
27.98,1710832247296875
30.95,1710832247312500
33.28,1710832247328125
34.93,1710832247343750
35.91,1710832247359375
36.26,1710832247375000
36.13,1710832247390625
35.63,1710832247406250
34.78,1710832247421875
33.46,1710832247437500
31.46,1710832247453125
28.68,1710832247468750
25.24,1710832247484375
21.46,1710832247500000
17.83,1710832247515625
14.81,1710832247531250
12.69,1710832247546875
11.61,1710832247562500
11.51,1710832247578125
12.16,1710832247593750
13.26,1710832247609375
14.38,1710832247625000
15.15,1710832247640625
15.23,1710832247656250
14.53,1710832247671875
13.13,1710832247687500
11.27,1710832247703125
9.15,1710832247718750
6.85,1710832247734375
4.35,1710832247750000
1.55,1710832247765625
-1.67,1710832247781250
-5.34,1710832247796875
-9.53,1710832247812500
-14.25,1710832247828125
-19.42,1710832247843750
-24.79,1710832247859375
-29.8,1710832247875000
-33.67,1710832247890625
-35.63,1710832247906250
-35.21,1710832247921875
-32.49,1710832247937500
-28.08,1710832247953125
-22.92,1710832247968750
-17.87,1710832247984375
-13.52,1710832248000000
-10.03,1710832248015625
-7.29,1710832248031250
-5.13,1710832248046875
-3.35,1710832248062500
-1.85,1710832248078125
-0.5,1710832248093750
0.85,1710832248109375
2.3,1710832248125000
3.85,1710832248140625
5.33,1710832248156250
6.49,1710832248171875
7.16,1710832248187500
7.35,1710832248203125
7.31,1710832248218750
7.31,1710832248234375
7.43,1710832248250000
7.53,1710832248265625
7.31,1710832248281250
6.52,1710832248296875
5.1,1710832248312500
3.29,1710832248328125
1.38,1710832248343750
-0.38,1710832248359375
-1.98,1710832248375000
-3.6,1710832248390625
-5.41,1710832248406250
-7.43,1710832248421875
-9.47,1710832248437500
-11.22,1710832248453125
-12.48,1710832248468750
-13.29,1710832248484375
-14.06,1710832248500000
-15.4,1710832248515625
-17.82,1710832248531250
-21.57,1710832248546875
-26.34,1710832248562500
-31.39,1710832248578125
-35.71,1710832248593750
-38.29,1710832248609375
-38.41,1710832248625000
-35.86,1710832248640625
-30.93,1710832248656250
-24.35,1710832248671875
-17.07,1710832248687500
-9.94,1710832248703125
-3.56,1710832248718750
1.82,1710832248734375
6.28,1710832248750000
10.02,1710832248765625
13.23,1710832248781250
16.0,1710832248796875
18.34,1710832248812500
20.23,1710832248828125
21.63,1710832248843750
22.54,1710832248859375
22.93,1710832248875000
22.78,1710832248890625
22.04,1710832248906250
20.78,1710832248921875
19.08,1710832248937500
17.08,1710832248953125
14.93,1710832248968750
12.77,1710832248984375
10.69,1710832249000000
8.81,1710832249015625
7.12,1710832249031250
5.46,1710832249046875
3.54,1710832249062500
0.95,1710832249078125
-2.58,1710832249093750
-7.11,1710832249109375
-12.37,1710832249125000
-17.98,1710832249140625
-23.5,1710832249156250
-28.73,1710832249171875
-33.67,1710832249187500
-38.42,1710832249203125
-43.14,1710832249218750
-47.92,1710832249234375
-52.84,1710832249250000
-57.87,1710832249265625
-62.82,1710832249281250
-67.25,1710832249296875
-70.49,1710832249312500
-71.7,1710832249328125
-70.16,1710832249343750
-65.58,1710832249359375
-58.11,1710832249375000
-48.37,1710832249390625
-37.2,1710832249406250
-25.45,1710832249421875
-13.83,1710832249437500
-2.82,1710832249453125
7.24,1710832249468750
16.15,1710832249484375
23.78,1710832249500000
30.06,1710832249515625
34.95,1710832249531250
38.49,1710832249546875
40.81,1710832249562500
42.19,1710832249578125
42.97,1710832249593750
43.5,1710832249609375
44.03,1710832249625000
44.51,1710832249640625
44.65,1710832249656250
44.05,1710832249671875
42.4,1710832249687500
39.66,1710832249703125
36.1,1710832249718750
32.18,1710832249734375
28.39,1710832249750000
25.04,1710832249765625
22.16,1710832249781250
19.55,1710832249796875
16.88,1710832249812500
13.96,1710832249828125
10.8,1710832249843750
7.66,1710832249859375
4.92,1710832249875000
2.9,1710832249890625
1.69,1710832249906250
1.11,1710832249921875
0.86,1710832249937500
0.55,1710832249953125
-0.12,1710832249968750
-1.41,1710832249984375
-3.53,1710832250000000
-6.64,1710832250015625
-10.79,1710832250031250
-15.69,1710832250046875
-20.71,1710832250062500
-24.86,1710832250078125
-27.17,1710832250093750
-26.89,1710832250109375
-23.81,1710832250125000
-18.27,1710832250140625
-11.04,1710832250156250
-3.11,1710832250171875
4.68,1710832250187500
11.71,1710832250203125
17.71,1710832250218750
22.67,1710832250234375
26.81,1710832250250000
30.38,1710832250265625
33.58,1710832250281250
36.5,1710832250296875
39.08,1710832250312500
41.2,1710832250328125
42.74,1710832250343750
43.61,1710832250359375
43.85,1710832250375000
43.59,1710832250390625
43.03,1710832250406250
42.25,1710832250421875
41.22,1710832250437500
39.75,1710832250453125
37.63,1710832250468750
34.74,1710832250484375
31.2,1710832250500000
27.24,1710832250515625
23.17,1710832250531250
19.12,1710832250546875
15.0,1710832250562500
10.6,1710832250578125
5.69,1710832250593750
0.26,1710832250609375
-5.46,1710832250625000
-11.13,1710832250640625
-16.33,1710832250656250
-20.86,1710832250671875
-24.64,1710832250687500
-27.72,1710832250703125
-30.16,1710832250718750
-32.07,1710832250734375
-33.59,1710832250750000
-34.96,1710832250765625
-36.55,1710832250781250
-38.65,1710832250796875
-41.34,1710832250812500
-44.27,1710832250828125
-46.69,1710832250843750
-47.67,1710832250859375
-46.43,1710832250875000
-42.65,1710832250890625
-36.69,1710832250906250
-29.39,1710832250921875
-21.78,1710832250937500
-14.78,1710832250953125
-8.87,1710832250968750
-4.13,1710832250984375
-0.35,1710832251000000
2.68,1710832251015625
5.07,1710832251031250
6.82,1710832251046875
7.92,1710832251062500
8.55,1710832251078125
9.04,1710832251093750
9.74,1710832251109375
10.93,1710832251125000
12.63,1710832251140625
14.65,1710832251156250
16.64,1710832251171875
18.27,1710832251187500
19.3,1710832251203125
19.66,1710832251218750
19.42,1710832251234375
18.76,1710832251250000
18.04,1710832251265625
17.61,1710832251281250
17.7,1710832251296875
18.31,1710832251312500
19.16,1710832251328125
19.76,1710832251343750
19.7,1710832251359375
18.84,1710832251375000
17.41,1710832251390625
15.84,1710832251406250
14.57,1710832251421875
13.77,1710832251437500
13.26,1710832251453125
12.55,1710832251468750
11.07,1710832251484375
8.3,1710832251500000
3.97,1710832251515625
-1.92,1710832251531250
-8.97,1710832251546875
-16.43,1710832251562500
-23.24,1710832251578125
-28.25,1710832251593750
-30.55,1710832251609375
-29.78,1710832251625000
-26.26,1710832251640625
-20.85,1710832251656250
-14.72,1710832251671875
-8.87,1710832251687500
-3.95,1710832251703125
-0.08,1710832251718750
3.0,1710832251734375
5.71,1710832251750000
8.39,1710832251765625
11.14,1710832251781250
13.8,1710832251796875
16.0,1710832251812500
17.38,1710832251828125
17.71,1710832251843750
17.03,1710832251859375
15.66,1710832251875000
14.03,1710832251890625
12.53,1710832251906250
11.35,1710832251921875
10.4,1710832251937500
9.42,1710832251953125
8.12,1710832251968750
6.36,1710832251984375
4.24,1710832252000000
2.06,1710832252015625
0.17,1710832252031250
-1.28,1710832252046875
-2.43,1710832252062500
-3.71,1710832252078125
-5.58,1710832252093750
-8.32,1710832252109375
-11.78,1710832252125000
-15.52,1710832252140625
-18.99,1710832252156250
-21.83,1710832252171875
-24.0,1710832252187500
-25.75,1710832252203125
-27.42,1710832252218750
-29.29,1710832252234375
-31.51,1710832252250000
-34.22,1710832252265625
-37.54,1710832252281250
-41.55,1710832252296875
-46.08,1710832252312500
-50.59,1710832252328125
-54.1,1710832252343750
-55.49,1710832252359375
-53.87,1710832252375000
-48.97,1710832252390625
-41.3,1710832252406250
-31.99,1710832252421875
-22.46,1710832252437500
-13.95,1710832252453125
-7.23,1710832252468750
-2.43,1710832252484375
0.82,1710832252500000
3.14,1710832252515625
5.19,1710832252531250
7.41,1710832252546875
10.04,1710832252562500
13.08,1710832252578125
16.39,1710832252593750
19.71,1710832252609375
22.67,1710832252625000
24.89,1710832252640625
25.96,1710832252656250
25.63,1710832252671875
23.89,1710832252687500
20.99,1710832252703125
17.4,1710832252718750
13.63,1710832252734375
10.08,1710832252750000
6.99,1710832252765625
4.41,1710832252781250
2.32,1710832252796875
0.65,1710832252812500
-0.7,1710832252828125
-1.81,1710832252843750
-2.83,1710832252859375
-3.91,1710832252875000
-5.2,1710832252890625
-6.76,1710832252906250
-8.55,1710832252921875
-10.5,1710832252937500
-12.47,1710832252953125
-14.4,1710832252968750
-16.25,1710832252984375
-18.08,1710832253000000
-19.99,1710832253015625
-22.1,1710832253031250
-24.6,1710832253046875
-27.62,1710832253062500
-31.21,1710832253078125
-35.22,1710832253093750
-39.16,1710832253109375
-42.17,1710832253125000
-43.21,1710832253140625
-41.39,1710832253156250
-36.28,1710832253171875
-28.18,1710832253187500
-18.11,1710832253203125
-7.46,1710832253218750
2.46,1710832253234375
10.79,1710832253250000
17.33,1710832253265625
22.37,1710832253281250
26.44,1710832253296875
29.97,1710832253312500
33.17,1710832253328125
36.04,1710832253343750
38.44,1710832253359375
40.28,1710832253375000
41.53,1710832253390625
42.26,1710832253406250
42.56,1710832253421875
42.52,1710832253437500
42.19,1710832253453125
41.59,1710832253468750
40.76,1710832253484375
39.71,1710832253500000
38.46,1710832253515625
37.09,1710832253531250
35.61,1710832253546875
34.03,1710832253562500
32.32,1710832253578125
30.44,1710832253593750
28.35,1710832253609375
26.07,1710832253625000
23.63,1710832253640625
21.11,1710832253656250
18.62,1710832253671875
16.28,1710832253687500
14.2,1710832253703125
12.44,1710832253718750
11.0,1710832253734375
9.7,1710832253750000
8.28,1710832253765625
6.37,1710832253781250
3.62,1710832253796875
-0.14,1710832253812500
-4.84,1710832253828125
-10.19,1710832253843750
-15.63,1710832253859375
-20.49,1710832253875000
-24.11,1710832253890625
-25.93,1710832253906250
-25.74,1710832253921875
-23.67,1710832253937500
-20.2,1710832253953125
-15.98,1710832253968750
-11.56,1710832253984375
-7.3,1710832254000000
-3.26,1710832254015625
0.64,1710832254031250
4.4,1710832254046875
7.86,1710832254062500
10.71,1710832254078125
12.71,1710832254093750
13.79,1710832254109375
14.16,1710832254125000
14.13,1710832254140625
13.98,1710832254156250
13.83,1710832254171875
13.62,1710832254187500
13.25,1710832254203125
12.69,1710832254218750
11.98,1710832254234375
11.22,1710832254250000
10.5,1710832254265625
9.76,1710832254281250
8.85,1710832254296875
7.57,1710832254312500
5.76,1710832254328125
3.33,1710832254343750
0.32,1710832254359375
-3.1,1710832254375000
-6.67,1710832254390625
-10.05,1710832254406250
-12.95,1710832254421875
-15.14,1710832254437500
-16.54,1710832254453125
-17.32,1710832254468750
-17.85,1710832254484375
-18.67,1710832254500000
-20.28,1710832254515625
-23.12,1710832254531250
-27.29,1710832254546875
-32.53,1710832254562500
-38.25,1710832254578125
-43.56,1710832254593750
-47.46,1710832254609375
-49.05,1710832254625000
-47.71,1710832254640625
-43.27,1710832254656250
-36.08,1710832254671875
-26.96,1710832254687500
-16.98,1710832254703125
-7.22,1710832254718750
1.51,1710832254734375
8.78,1710832254750000
14.43,1710832254765625
18.5,1710832254781250
21.01,1710832254796875
22.0,1710832254812500
21.57,1710832254828125
19.98,1710832254843750
17.61,1710832254859375
14.83,1710832254875000
11.98,1710832254890625
9.17,1710832254906250
6.46,1710832254921875
3.85,1710832254937500
1.39,1710832254953125
-0.83,1710832254968750
-2.69,1710832254984375
-4.16,1710832255000000
-5.2,1710832255015625
-5.82,1710832255031250
-6.02,1710832255046875
-5.87,1710832255062500
-5.59,1710832255078125
-5.54,1710832255093750
-6.12,1710832255109375
-7.6,1710832255125000
-9.98,1710832255140625
-13.02,1710832255156250
-16.31,1710832255171875
-19.52,1710832255187500
-22.51,1710832255203125
-25.42,1710832255218750
-28.57,1710832255234375
-32.37,1710832255250000
-37.15,1710832255265625
-43.07,1710832255281250
-50.02,1710832255296875
-57.57,1710832255312500
-65.0,1710832255328125
-71.36,1710832255343750
-75.61,1710832255359375
-76.9,1710832255375000
-74.79,1710832255390625
-69.35,1710832255406250
-61.29,1710832255421875
-51.69,1710832255437500
-41.68,1710832255453125
-32.21,1710832255468750
-23.7,1710832255484375
-16.18,1710832255500000
-9.39,1710832255515625
-3.1,1710832255531250
2.71,1710832255546875
7.89,1710832255562500
12.25,1710832255578125
15.76,1710832255593750
18.62,1710832255609375
21.13,1710832255625000
23.54,1710832255640625
25.9,1710832255656250
28.13,1710832255671875
30.1,1710832255687500
31.76,1710832255703125
33.12,1710832255718750
34.21,1710832255734375
34.95,1710832255750000
35.26,1710832255765625
34.98,1710832255781250
34.12,1710832255796875
32.75,1710832255812500
30.97,1710832255828125
28.76,1710832255843750
25.93,1710832255859375
22.32,1710832255875000
17.83,1710832255890625
12.7,1710832255906250
7.36,1710832255921875
2.31,1710832255937500
-2.1,1710832255953125
-5.81,1710832255968750
-9.02,1710832255984375
-12.07,1710832256000000
-15.29,1710832256015625
-18.94,1710832256031250
-23.13,1710832256046875
-27.8,1710832256062500
-32.56,1710832256078125
-36.74,1710832256093750
-39.43,1710832256109375
-39.7,1710832256125000
-36.89,1710832256140625
-31.0,1710832256156250
-22.67,1710832256171875
-13.06,1710832256187500
-3.41,1710832256203125
5.31,1710832256218750
12.66,1710832256234375
18.69,1710832256250000
23.69,1710832256265625
27.99,1710832256281250
31.83,1710832256296875
35.32,1710832256312500
38.49,1710832256328125
41.36,1710832256343750
43.93,1710832256359375
46.21,1710832256375000
48.23,1710832256390625
50.04,1710832256406250
51.68,1710832256421875
53.22,1710832256437500
54.64,1710832256453125
55.92,1710832256468750
57.02,1710832256484375
57.9,1710832256500000
58.57,1710832256515625
59.01,1710832256531250
59.09,1710832256546875
58.5,1710832256562500
56.9,1710832256578125
53.99,1710832256593750
49.76,1710832256609375
44.43,1710832256625000
38.44,1710832256640625
32.17,1710832256656250
25.82,1710832256671875
19.31,1710832256687500
12.43,1710832256703125
5.02,1710832256718750
-2.97,1710832256734375
-11.44,1710832256750000
-20.25,1710832256765625
-29.3,1710832256781250
-38.44,1710832256796875
-47.28,1710832256812500
-55.08,1710832256828125
-60.77,1710832256843750
-63.28,1710832256859375
-62.02,1710832256875000
-57.14,1710832256890625
-49.55,1710832256906250
-40.64,1710832256921875
-31.64,1710832256937500
-23.36,1710832256953125
-15.99,1710832256968750
-9.3,1710832256984375
-2.97,1710832257000000
3.1,1710832257015625
8.75,1710832257031250
13.69,1710832257046875
17.66,1710832257062500
20.6,1710832257078125
22.68,1710832257093750
24.09,1710832257109375
24.97,1710832257125000
25.23,1710832257140625
24.62,1710832257156250
22.92,1710832257171875
20.11,1710832257187500
16.47,1710832257203125
12.67,1710832257218750
9.49,1710832257234375
7.62,1710832257250000
7.43,1710832257265625
8.91,1710832257281250
11.6,1710832257296875
14.84,1710832257312500
17.92,1710832257328125
20.25,1710832257343750
21.51,1710832257359375
21.74,1710832257375000
21.2,1710832257390625
20.36,1710832257406250
19.58,1710832257421875
18.96,1710832257437500
18.15,1710832257453125
16.34,1710832257468750
12.46,1710832257484375
5.59,1710832257500000
-4.54,1710832257515625
-17.28,1710832257531250
-30.98,1710832257546875
-43.55,1710832257562500
-53.04,1710832257578125
-58.2,1710832257593750
-58.78,1710832257609375
-55.35,1710832257625000
-48.76,1710832257640625
-39.88,1710832257656250
-29.33,1710832257671875
-17.64,1710832257687500
-5.37,1710832257703125
6.8,1710832257718750
18.22,1710832257734375
28.48,1710832257750000
37.57,1710832257765625
45.87,1710832257781250
53.89,1710832257796875
61.89,1710832257812500
69.74,1710832257828125
76.79,1710832257843750
82.12,1710832257859375
84.78,1710832257875000
84.12,1710832257890625
79.96,1710832257906250
72.66,1710832257921875
62.98,1710832257937500
51.82,1710832257953125
40.07,1710832257968750
28.39,1710832257984375
17.14,1710832258000000
6.51,1710832258015625
-3.5,1710832258031250
-12.89,1710832258046875
-21.59,1710832258062500
-29.41,1710832258078125
-36.09,1710832258093750
-41.33,1710832258109375
-45.0,1710832258125000
-47.25,1710832258140625
-48.48,1710832258156250
-49.35,1710832258171875
-50.44,1710832258187500
-52.15,1710832258203125
-54.41,1710832258218750
-56.69,1710832258234375
-58.11,1710832258250000
-57.71,1710832258265625
-54.74,1710832258281250
-48.96,1710832258296875
-40.77,1710832258312500
-31.09,1710832258328125
-21.15,1710832258343750
-12.16,1710832258359375
-4.96,1710832258375000
0.11,1710832258390625
3.2,1710832258406250
4.77,1710832258421875
5.39,1710832258437500
5.52,1710832258453125
5.49,1710832258468750
5.5,1710832258484375
5.68,1710832258500000
6.11,1710832258515625
6.82,1710832258531250
7.78,1710832258546875
8.91,1710832258562500
10.01,1710832258578125
10.87,1710832258593750
11.32,1710832258609375
11.24,1710832258625000
10.7,1710832258640625
9.95,1710832258656250
9.36,1710832258671875
9.23,1710832258687500
9.67,1710832258703125
10.45,1710832258718750
11.01,1710832258734375
10.75,1710832258750000
9.2,1710832258765625
6.23,1710832258781250
2.11,1710832258796875
-2.61,1710832258812500
-7.36,1710832258828125
-11.67,1710832258843750
-15.28,1710832258859375
-18.11,1710832258875000
-20.3,1710832258890625
-22.11,1710832258906250
-23.9,1710832258921875
-25.98,1710832258937500
-28.45,1710832258953125
-31.13,1710832258968750
-33.4,1710832258984375
-34.44,1710832259000000
-33.47,1710832259015625
-29.98,1710832259031250
-23.98,1710832259046875
-15.97,1710832259062500
-6.8,1710832259078125
2.67,1710832259093750
11.72,1710832259109375
19.93,1710832259125000
27.14,1710832259140625
33.34,1710832259156250
38.54,1710832259171875
42.76,1710832259187500
45.96,1710832259203125
48.11,1710832259218750
49.25,1710832259234375
49.48,1710832259250000
49.03,1710832259265625
48.16,1710832259281250
47.21,1710832259296875
46.45,1710832259312500
46.1,1710832259328125
46.2,1710832259343750
46.67,1710832259359375
47.33,1710832259375000
47.95,1710832259390625
48.42,1710832259406250
48.68,1710832259421875
48.85,1710832259437500
49.02,1710832259453125
49.2,1710832259468750
49.21,1710832259484375
48.6,1710832259500000
46.78,1710832259515625
43.16,1710832259531250
37.38,1710832259546875
29.41,1710832259562500
19.55,1710832259578125
8.3,1710832259593750
-3.78,1710832259609375
-16.26,1710832259625000
-28.86,1710832259640625
-41.41,1710832259656250
-53.76,1710832259671875
-65.67,1710832259687500
-76.79,1710832259703125
-86.55,1710832259718750
-94.25,1710832259734375
-99.11,1710832259750000
-100.42,1710832259765625
-97.7,1710832259781250
-90.94,1710832259796875
-80.67,1710832259812500
-67.88,1710832259828125
-53.87,1710832259843750
-40.0,1710832259859375
-27.37,1710832259875000
-16.68,1710832259890625
-8.13,1710832259906250
-1.48,1710832259921875
3.75,1710832259937500
8.19,1710832259953125
12.32,1710832259968750
16.47,1710832259984375
20.7,1710832260000000
24.91,1710832260015625
28.8,1710832260031250
32.02,1710832260046875
34.2,1710832260062500
35.04,1710832260078125
34.38,1710832260093750
32.24,1710832260109375
28.87,1710832260125000
24.66,1710832260140625
19.98,1710832260156250
15.12,1710832260171875
10.16,1710832260187500
5.0,1710832260203125
-0.66,1710832260218750
-7.16,1710832260234375
-14.77,1710832260250000
-23.61,1710832260265625
-33.63,1710832260281250
-44.53,1710832260296875
-55.86,1710832260312500
-66.97,1710832260328125
-77.2,1710832260343750
-85.94,1710832260359375
-92.91,1710832260375000
-98.3,1710832260390625
-102.79,1710832260406250
-107.44,1710832260421875
-113.25,1710832260437500
-120.77,1710832260453125
-129.8,1710832260468750
-139.39,1710832260484375
-148.16,1710832260500000
-154.72,1710832260515625
-158.2,1710832260531250
-158.45,1710832260546875
-155.99,1710832260562500
-151.71,1710832260578125
-146.45,1710832260593750
-140.6,1710832260609375
-134.01,1710832260625000
-125.95,1710832260640625
-115.33,1710832260656250
-100.98,1710832260671875
-81.89,1710832260687500
-57.54,1710832260703125
-28.3,1710832260718750
4.51,1710832260734375
38.63,1710832260750000
71.39,1710832260765625
100.55,1710832260781250
125.11,1710832260796875
145.65,1710832260812500
164.01,1710832260828125
182.19,1710832260843750
201.32,1710832260859375
220.98,1710832260875000
239.35,1710832260890625
253.97,1710832260906250
262.66,1710832260921875
264.24,1710832260937500
258.6,1710832260953125
246.61,1710832260968750
229.78,1710832260984375
210.03,1710832261000000
189.31,1710832261015625
169.52,1710832261031250
152.08,1710832261046875
137.63,1710832261062500
125.78,1710832261078125
115.1,1710832261093750
103.78,1710832261109375
90.46,1710832261125000
74.76,1710832261140625
57.67,1710832261156250
41.14,1710832261171875
27.37,1710832261187500
17.88,1710832261203125
12.77,1710832261218750
10.42,1710832261234375
8.42,1710832261250000
4.5,1710832261265625
-2.74,1710832261281250
-13.41,1710832261296875
-26.37,1710832261312500
-39.69,1710832261328125
-51.24,1710832261343750
-59.29,1710832261359375
-63.44,1710832261375000
-64.0,1710832261390625
-61.9,1710832261406250
-58.52,1710832261421875
-55.31,1710832261437500
-53.27,1710832261453125
-52.58,1710832261468750
-52.49,1710832261484375
-51.79,1710832261500000
-50.34,1710832261515625
-47.96,1710832261531250
-44.28,1710832261546875
-39.0,1710832261562500
-34.14,1710832261578125
-32.36,1710832261593750
-35.08,1710832261609375
-40.39,1710832261625000
-43.57,1710832261640625
-40.71,1710832261656250
-28.44,1710832261671875
-5.85,1710832261687500
24.23,1710832261703125
56.81,1710832261718750
84.5,1710832261734375
99.56,1710832261750000
96.82,1710832261765625
74.92,1710832261781250
33.95,1710832261796875
-22.54,1710832261812500
-89.1,1710832261828125
-160.13,1710832261843750
-228.13,1710832261859375
-283.93,1710832261875000
-320.29,1710832261890625
-333.64,1710832261906250
-315.22,1710832261921875
-269.25,1710832261937500
-210.37,1710832261953125
-156.48,1710832261968750
-118.27,1710832261984375
-95.64,1710832262000000
-80.89,1710832262015625
-67.07,1710832262031250
-51.62,1710832262046875
-34.87,1710832262062500
-21.2,1710832262078125
-11.52,1710832262093750
-3.63,1710832262109375
7.07,1710832262125000
26.26,1710832262140625
60.3,1710832262156250
109.17,1710832262171875
168.22,1710832262187500
228.96,1710832262203125
279.39,1710832262218750
312.14,1710832262234375
324.34,1710832262250000
318.47,1710832262265625
289.21,1710832262281250
241.82,1710832262296875
189.05,1710832262312500
144.64,1710832262328125
123.39,1710832262343750
118.99,1710832262359375
124.47,1710832262375000
134.87,1710832262390625
143.79,1710832262406250
149.22,1710832262421875
152.62,1710832262437500
154.26,1710832262453125
152.3,1710832262468750
143.7,1710832262484375
124.69,1710832262500000
95.55,1710832262515625
56.78,1710832262531250
9.54,1710832262546875
-43.32,1710832262562500
-96.95,1710832262578125
-148.12,1710832262593750
-195.76,1710832262609375
-239.66,1710832262625000
-279.88,1710832262640625
-302.93,1710832262656250
-299.41,1710832262671875
-273.2,1710832262687500
-239.44,1710832262703125
-211.66,1710832262718750
-194.36,1710832262734375
-183.24,1710832262750000
-170.37,1710832262765625
-149.86,1710832262781250
-120.15,1710832262796875
-87.08,1710832262812500
-59.59,1710832262828125
-43.45,1710832262843750
-37.82,1710832262859375
-37.47,1710832262875000
-36.75,1710832262890625
-33.5,1710832262906250
-27.95,1710832262921875
-21.97,1710832262937500
-18.95,1710832262953125
-20.89,1710832262968750
-26.11,1710832262984375
-29.41,1710832263000000
-25.92,1710832263015625
-14.42,1710832263031250
2.01,1710832263046875
17.94,1710832263062500
28.48,1710832263078125
30.58,1710832263093750
24.55,1710832263109375
14.75,1710832263125000
8.77,1710832263140625
14.0,1710832263156250
34.24,1710832263171875
68.67,1710832263187500
112.89,1710832263203125
160.56,1710832263218750
204.57,1710832263234375
238.8,1710832263250000
254.0,1710832263265625
245.62,1710832263281250
217.73,1710832263296875
182.08,1710832263312500
150.9,1710832263328125
130.42,1710832263343750
119.64,1710832263359375
114.87,1710832263375000
109.73,1710832263390625
101.38,1710832263406250
91.04,1710832263421875
81.29,1710832263437500
73.46,1710832263453125
66.21,1710832263468750
55.71,1710832263484375
39.2,1710832263500000
15.03,1710832263515625
-17.19,1710832263531250
-55.56,1710832263546875
-95.3,1710832263562500
-129.62,1710832263578125
-151.48,1710832263593750
-155.64,1710832263609375
-140.47,1710832263625000
-108.78,1710832263640625
-67.82,1710832263656250
-27.43,1710832263671875
3.53,1710832263687500
20.37,1710832263703125
23.55,1710832263718750
17.56,1710832263734375
8.28,1710832263750000
0.51,1710832263765625
-3.45,1710832263781250
-3.99,1710832263796875
-3.23,1710832263812500
-3.41,1710832263828125
-5.94,1710832263843750
-11.39,1710832263859375
-19.9,1710832263875000
-31.29,1710832263890625
-44.81,1710832263906250
-58.79,1710832263921875
-70.89,1710832263937500
-78.95,1710832263953125
-81.76,1710832263968750
-79.63,1710832263984375
-74.04,1710832264000000
-67.13,1710832264015625
-60.83,1710832264031250
-56.47,1710832264046875
-54.47,1710832264062500
-54.55,1710832264078125
-55.92,1710832264093750
-57.36,1710832264109375
-57.61,1710832264125000
-55.84,1710832264140625
-52.07,1710832264156250
-47.28,1710832264171875
-43.09,1710832264187500
-41.1,1710832264203125
-42.27,1710832264218750
-46.49,1710832264234375
-52.75,1710832264250000
-59.61,1710832264265625
-65.86,1710832264281250
-71.07,1710832264296875
-75.76,1710832264312500
-81.06,1710832264328125
-88.18,1710832264343750
-97.53,1710832264359375
-108.07,1710832264375000
-117.17,1710832264390625
-121.08,1710832264406250
-116.22,1710832264421875
-100.57,1710832264437500
-74.88,1710832264453125
-42.89,1710832264468750
-10.39,1710832264484375
16.5,1710832264500000
33.32,1710832264515625
38.62,1710832264531250
34.06,1710832264546875
23.41,1710832264562500
10.94,1710832264578125
0.07,1710832264593750
-7.4,1710832264609375
-11.11,1710832264625000
-11.57,1710832264640625
-9.71,1710832264656250
-6.58,1710832264671875
-3.37,1710832264687500
-1.28,1710832264703125
-1.49,1710832264718750
-4.71,1710832264734375
-10.93,1710832264750000
-19.28,1710832264765625
-28.3,1710832264781250
-36.29,1710832264796875
-41.69,1710832264812500
-43.28,1710832264828125
-40.12,1710832264843750
-31.49,1710832264859375
-16.88,1710832264875000
3.81,1710832264890625
29.97,1710832264906250
60.03,1710832264921875
91.4,1710832264937500
120.76,1710832264953125
144.83,1710832264968750
161.12,1710832264984375
168.59,1710832265000000
167.82,1710832265015625
160.69,1710832265031250
149.7,1710832265046875
137.26,1710832265062500
125.24,1710832265078125
114.84,1710832265093750
106.7,1710832265109375
100.99,1710832265125000
97.29,1710832265140625
94.32,1710832265156250
89.85,1710832265171875
81.16,1710832265187500
65.94,1710832265203125
43.42,1710832265218750
15.03,1710832265234375
-15.79,1710832265250000
-44.65,1710832265265625
-67.69,1710832265281250
-82.75,1710832265296875
-89.82,1710832265312500
-90.51,1710832265328125
-87.16,1710832265343750
-81.86,1710832265359375
-75.95,1710832265375000
-70.11,1710832265390625
-64.69,1710832265406250
-60.0,1710832265421875
-56.38,1710832265437500
-54.1,1710832265453125
-53.13,1710832265468750
-53.09,1710832265484375
-53.31,1710832265500000
-53.18,1710832265515625
-52.33,1710832265531250
-50.82,1710832265546875
-49.06,1710832265562500
-47.53,1710832265578125
-46.59,1710832265593750
-46.22,1710832265609375
-46.15,1710832265625000
-46.02,1710832265640625
-45.63,1710832265656250
-45.15,1710832265671875
-45.11,1710832265687500
-46.2,1710832265703125
-48.91,1710832265718750
-53.16,1710832265734375
-58.1,1710832265750000
-62.18,1710832265765625
-63.6,1710832265781250
-60.97,1710832265796875
-53.91,1710832265812500
-43.21,1710832265828125
-30.55,1710832265843750
-17.81,1710832265859375
-6.4,1710832265875000
3.08,1710832265890625
10.76,1710832265906250
17.11,1710832265921875
22.56,1710832265937500
27.33,1710832265953125
31.43,1710832265968750
34.89,1710832265984375
37.76,1710832266000000
40.16,1710832266015625
42.14,1710832266031250
43.61,1710832266046875
44.44,1710832266062500
44.51,1710832266078125
43.85,1710832266093750
42.66,1710832266109375
41.19,1710832266125000
39.65,1710832266140625
38.08,1710832266156250
36.34,1710832266171875
34.22,1710832266187500
31.54,1710832266203125
28.25,1710832266218750
24.4,1710832266234375
20.15,1710832266250000
15.57,1710832266265625
10.7,1710832266281250
5.51,1710832266296875
-0.03,1710832266312500
-5.92,1710832266328125
-12.03,1710832266343750
-18.15,1710832266359375
-23.91,1710832266375000
-28.74,1710832266390625
-31.91,1710832266406250
-32.69,1710832266421875
-30.54,1710832266437500
-25.38,1710832266453125
-17.64,1710832266468750
-8.21,1710832266484375
1.95,1710832266500000
11.96,1710832266515625
21.31,1710832266531250
29.73,1710832266546875
37.17,1710832266562500
43.59,1710832266578125
48.9,1710832266593750
53.04,1710832266609375
55.99,1710832266625000
57.8,1710832266640625
58.61,1710832266656250
58.62,1710832266671875
58.09,1710832266687500
57.3,1710832266703125
56.5,1710832266718750
55.85,1710832266734375
55.32,1710832266750000
54.7,1710832266765625
53.71,1710832266781250
52.15,1710832266796875
50.05,1710832266812500
47.61,1710832266828125
45.14,1710832266843750
42.73,1710832266859375
40.17,1710832266875000
36.94,1710832266890625
32.43,1710832266906250
26.22,1710832266921875
18.32,1710832266937500
9.2,1710832266953125
-0.4,1710832266968750
-9.69,1710832266984375
-17.95,1710832267000000
-24.68,1710832267015625
-29.48,1710832267031250
-32.02,1710832267046875
-32.06,1710832267062500
-29.59,1710832267078125
-24.85,1710832267093750
-18.38,1710832267109375
-10.83,1710832267125000
-2.85,1710832267140625
5.04,1710832267156250
12.41,1710832267171875
18.83,1710832267187500
23.81,1710832267203125
26.84,1710832267218750
27.53,1710832267234375
25.81,1710832267250000
21.99,1710832267265625
16.75,1710832267281250
10.94,1710832267296875
5.36,1710832267312500
0.59,1710832267328125
-3.12,1710832267343750
-5.86,1710832267359375
-7.88,1710832267375000
-9.6,1710832267390625
-11.33,1710832267406250
-13.29,1710832267421875
-15.49,1710832267437500
-17.76,1710832267453125
-19.87,1710832267468750
-21.65,1710832267484375
-23.12,1710832267500000
-24.43,1710832267515625
-25.94,1710832267531250
-27.97,1710832267546875
-30.82,1710832267562500
-34.53,1710832267578125
-38.87,1710832267593750
-43.31,1710832267609375
-47.04,1710832267625000
-49.22,1710832267640625
-49.13,1710832267656250
-46.46,1710832267671875
-41.37,1710832267687500
-34.46,1710832267703125
-26.59,1710832267718750
-18.65,1710832267734375
-11.27,1710832267750000
-4.81,1710832267765625
0.69,1710832267781250
5.43,1710832267796875
9.73,1710832267812500
13.93,1710832267828125
18.23,1710832267843750
22.61,1710832267859375
26.78,1710832267875000
30.34,1710832267890625
32.86,1710832267906250
34.14,1710832267921875
34.24,1710832267937500
33.46,1710832267953125
32.21,1710832267968750
30.84,1710832267984375
29.58,1710832268000000
28.43,1710832268015625
27.27,1710832268031250
25.91,1710832268046875
24.15,1710832268062500
21.92,1710832268078125
19.27,1710832268093750
16.38,1710832268109375
13.42,1710832268125000
10.48,1710832268140625
7.55,1710832268156250
4.49,1710832268171875
1.24,1710832268187500
-2.24,1710832268203125
-5.88,1710832268218750
-9.64,1710832268234375
-13.51,1710832268250000
-17.44,1710832268265625
-21.17,1710832268281250
-24.23,1710832268296875
-25.9,1710832268312500
-25.67,1710832268328125
-23.39,1710832268343750
-19.48,1710832268359375
-14.82,1710832268375000
-10.34,1710832268390625
-6.69,1710832268406250
-4.05,1710832268421875
-2.18,1710832268437500
-0.67,1710832268453125
0.86,1710832268468750
2.57,1710832268484375
4.47,1710832268500000
6.43,1710832268515625
8.25,1710832268531250
9.87,1710832268546875
11.26,1710832268562500
12.57,1710832268578125
14.05,1710832268593750
15.92,1710832268609375
18.33,1710832268625000
21.22,1710832268640625
24.36,1710832268656250
27.46,1710832268671875
30.18,1710832268687500
32.28,1710832268703125
33.5,1710832268718750
33.65,1710832268734375
32.67,1710832268750000
30.73,1710832268765625
28.46,1710832268781250
26.82,1710832268796875
26.93,1710832268812500
29.55,1710832268828125
34.66,1710832268843750
41.27,1710832268859375
47.7,1710832268875000
52.19,1710832268890625
53.68,1710832268906250
52.35,1710832268921875
49.5,1710832268937500
46.96,1710832268953125
46.24,1710832268968750
47.81,1710832268984375
50.91,1710832269000000
53.89,1710832269015625
55.02,1710832269031250
53.08,1710832269046875
47.86,1710832269062500
40.07,1710832269078125
31.03,1710832269093750
22.11,1710832269109375
14.3,1710832269125000
7.87,1710832269140625
2.31,1710832269156250
-3.47,1710832269171875
-10.77,1710832269187500
-20.66,1710832269203125
-33.64,1710832269218750
-49.4,1710832269234375
-66.86,1710832269250000
-84.42,1710832269265625
-100.22,1710832269281250
-112.55,1710832269296875
-120.18,1710832269312500
-122.64,1710832269328125
-120.39,1710832269343750
-114.66,1710832269359375
-107.18,1710832269375000
-99.6,1710832269390625
-93.12,1710832269406250
-88.24,1710832269421875
-84.86,1710832269437500
-82.64,1710832269453125
-81.17,1710832269468750
-80.14,1710832269484375
-79.16,1710832269500000
-77.58,1710832269515625
-74.29,1710832269531250
-67.85,1710832269546875
-56.93,1710832269562500
-40.75,1710832269578125
-19.5,1710832269593750
5.42,1710832269609375
31.6,1710832269625000
56.05,1710832269640625
75.74,1710832269656250
88.32,1710832269671875
92.6,1710832269687500
88.84,1710832269703125
78.63,1710832269718750
64.48,1710832269734375
49.13,1710832269750000
34.78,1710832269765625
22.74,1710832269781250
13.31,1710832269796875
6.14,1710832269812500
0.69,1710832269828125
-3.29,1710832269843750
-5.71,1710832269859375
-6.26,1710832269875000
-4.76,1710832269890625
-1.48,1710832269906250
2.81,1710832269921875
7.07,1710832269937500
10.29,1710832269953125
11.83,1710832269968750
11.54,1710832269984375
9.67,1710832270000000
6.62,1710832270015625
2.74,1710832270031250
-1.79,1710832270046875
-6.71,1710832270062500
-11.65,1710832270078125
-16.05,1710832270093750
-19.31,1710832270109375
-21.1,1710832270125000
-21.51,1710832270140625
-21.06,1710832270156250
-20.31,1710832270171875
-19.54,1710832270187500
-18.56,1710832270203125
-16.79,1710832270218750
-13.69,1710832270234375
-9.1,1710832270250000
-3.4,1710832270265625
2.65,1710832270281250
8.28,1710832270296875
13.03,1710832270312500
16.83,1710832270328125
19.96,1710832270343750
22.7,1710832270359375
25.25,1710832270375000
27.59,1710832270390625
29.6,1710832270406250
31.13,1710832270421875
32.13,1710832270437500
32.61,1710832270453125
32.71,1710832270468750
32.53,1710832270484375
32.17,1710832270500000
31.62,1710832270515625
30.78,1710832270531250
29.45,1710832270546875
27.42,1710832270562500
24.54,1710832270578125
20.78,1710832270593750
16.25,1710832270609375
11.18,1710832270625000
5.75,1710832270640625
0.09,1710832270656250
-5.79,1710832270671875
-11.85,1710832270687500
-17.95,1710832270703125
-23.81,1710832270718750
-29.17,1710832270734375
-33.94,1710832270750000
-38.24,1710832270765625
-42.34,1710832270781250
-46.33,1710832270796875
-49.88,1710832270812500
-52.24,1710832270828125
-52.46,1710832270843750
-49.83,1710832270859375
-44.26,1710832270875000
-36.38,1710832270890625
-27.3,1710832270906250
-18.15,1710832270921875
-9.74,1710832270937500
-2.41,1710832270953125
3.89,1710832270968750
9.35,1710832270984375
14.14,1710832271000000
18.25,1710832271015625
21.64,1710832271031250
24.25,1710832271046875
26.14,1710832271062500
27.48,1710832271078125
28.5,1710832271093750
29.47,1710832271109375
30.61,1710832271125000
31.9,1710832271140625
33.16,1710832271156250
34.06,1710832271171875
34.22,1710832271187500
33.47,1710832271203125
31.88,1710832271218750
29.78,1710832271234375
27.51,1710832271250000
25.31,1710832271265625
23.13,1710832271281250
20.77,1710832271296875
17.98,1710832271312500
14.63,1710832271328125
10.75,1710832271343750
6.35,1710832271359375
1.37,1710832271375000
-4.36,1710832271390625
-10.91,1710832271406250
-17.95,1710832271421875
-24.71,1710832271437500
-30.06,1710832271453125
-32.97,1710832271468750
-32.92,1710832271484375
-30.14,1710832271500000
-25.5,1710832271515625
-20.18,1710832271531250
-15.18,1710832271546875
-11.03,1710832271562500
-7.72,1710832271578125
-4.94,1710832271593750
-2.32,1710832271609375
0.43,1710832271625000
3.34,1710832271640625
6.29,1710832271656250
9.04,1710832271671875
11.35,1710832271687500
