value,timestamp
-0.0,1712041266000000
-0.0,1712041266015625
-0.0,1712041266031250
-0.0,1712041266046875
-0.0,1712041266062500
-0.0,1712041266078125
-0.0,1712041266093750
-0.0,1712041266109375
-0.0,1712041266125000
-0.0,1712041266140625
0.0,1712041266156250
0.01,1712041266171875
0.01,1712041266187500
-0.0,1712041266203125
-0.03,1712041266218750
-0.05,1712041266234375
-0.05,1712041266250000
0.0,1712041266265625
0.13,1712041266281250
0.36,1712041266296875
0.66,1712041266312500
1.01,1712041266328125
1.37,1712041266343750
1.72,1712041266359375
2.06,1712041266375000
2.4,1712041266390625
2.79,1712041266406250
3.24,1712041266421875
3.8,1712041266437500
4.42,1712041266453125
5.06,1712041266468750
5.66,1712041266484375
6.2,1712041266500000
6.68,1712041266515625
7.15,1712041266531250
7.68,1712041266546875
8.31,1712041266562500
9.14,1712041266578125
10.09,1712041266593750
11.04,1712041266609375
11.88,1712041266625000
12.56,1712041266640625
13.14,1712041266656250
13.76,1712041266671875
14.65,1712041266687500
15.96,1712041266703125
17.91,1712041266718750
20.32,1712041266734375
22.9,1712041266750000
25.38,1712041266765625
27.58,1712041266781250
29.57,1712041266796875
31.68,1712041266812500
34.32,1712041266828125
37.81,1712041266843750
42.54,1712041266859375
48.15,1712041266875000
54.1,1712041266890625
59.83,1712041266906250
64.97,1712041266921875
69.58,1712041266937500
74.14,1712041266953125
79.34,1712041266968750
85.71,1712041266984375
93.76,1712041267000000
103.0,1712041267015625
112.62,1712041267031250
121.73,1712041267046875
129.77,1712041267062500
136.75,1712041267078125
143.3,1712041267093750
150.75,1712041267109375
157.77,1712041267125000
166.64,1712041267140625
177.95,1712041267156250
191.79,1712041267171875
206.97,1712041267187500
220.57,1712041267203125
228.25,1712041267218750
225.36,1712041267234375
208.53,1712041267250000
176.87,1712041267265625
132.76,1712041267281250
80.05,1712041267296875
23.07,1712041267312500
-34.94,1712041267328125
-92.44,1712041267343750
-149.16,1712041267359375
-205.23,1712041267375000
-260.37,1712041267390625
-313.74,1712041267406250
-363.88,1712041267421875
-409.83,1712041267437500
-450.91,1712041267453125
-486.5,1712041267468750
-515.72,1712041267484375
-537.2,1712041267500000
-549.18,1712041267515625
-549.9,1712041267531250
-538.29,1712041267546875
-514.09,1712041267562500
-478.52,1712041267578125
-433.66,1712041267593750
-382.16,1712041267609375
-326.67,1712041267625000
-269.45,1712041267640625
-212.24,1712041267656250
-156.3,1712041267671875
-102.66,1712041267687500
-52.14,1712041267703125
-5.7,1712041267718750
35.8,1712041267734375
71.7,1712041267750000
101.7,1712041267765625
125.91,1712041267781250
144.82,1712041267796875
159.12,1712041267812500
169.55,1712041267828125
176.77,1712041267843750
181.22,1712041267859375
183.18,1712041267875000
182.87,1712041267890625
180.52,1712041267906250
176.39,1712041267921875
170.87,1712041267937500
164.35,1712041267953125
157.24,1712041267968750
149.87,1712041267984375
142.49,1712041268000000
135.21,1712041268015625
128.03,1712041268031250
120.86,1712041268046875
113.62,1712041268062500
106.23,1712041268078125
98.75,1712041268093750
91.36,1712041268109375
84.31,1712041268125000
77.84,1712041268140625
72.08,1712041268156250
66.97,1712041268171875
62.25,1712041268187500
57.58,1712041268203125
52.71,1712041268218750
47.61,1712041268234375
42.53,1712041268250000
37.87,1712041268265625
34.07,1712041268281250
31.35,1712041268296875
29.53,1712041268312500
28.17,1712041268328125
26.63,1712041268343750
24.48,1712041268359375
21.64,1712041268375000
18.44,1712041268390625
15.48,1712041268406250
13.24,1712041268421875
11.89,1712041268437500
11.06,1712041268453125
10.09,1712041268468750
8.16,1712041268484375
4.7,1712041268500000
-0.84,1712041268515625
-8.65,1712041268531250
-18.78,1712041268546875
-30.46,1712041268562500
-41.97,1712041268578125
-50.68,1712041268593750
-53.85,1712041268609375
-49.88,1712041268625000
-39.3,1712041268640625
-24.77,1712041268656250
-10.21,1712041268671875
1.16,1712041268687500
8.07,1712041268703125
11.4,1712041268718750
13.05,1712041268734375
14.54,1712041268750000
15.91,1712041268765625
16.03,1712041268781250
13.64,1712041268796875
8.4,1712041268812500
1.36,1712041268828125
-5.47,1712041268843750
-10.15,1712041268859375
-11.62,1712041268875000
-9.92,1712041268890625
-5.96,1712041268906250
-0.99,1712041268921875
3.91,1712041268937500
7.82,1712041268953125
10.24,1712041268968750
10.73,1712041268984375
9.18,1712041269000000
5.65,1712041269015625
0.79,1712041269031250
-4.26,1712041269046875
-7.89,1712041269062500
-8.54,1712041269078125
-5.27,1712041269093750
1.6,1712041269109375
10.37,1712041269125000
18.32,1712041269140625
22.97,1712041269156250
22.94,1712041269171875
18.48,1712041269187500
11.29,1712041269203125
3.47,1712041269218750
-3.35,1712041269234375
-8.34,1712041269250000
-11.39,1712041269265625
-12.56,1712041269281250
-11.55,1712041269296875
-8.05,1712041269312500
-2.19,1712041269328125
4.95,1712041269343750
11.4,1712041269359375
15.01,1712041269375000
14.45,1712041269390625
9.88,1712041269406250
2.82,1712041269421875
-4.53,1712041269437500
-10.57,1712041269453125
-14.63,1712041269468750
-17.06,1712041269484375
-18.51,1712041269500000
-19.29,1712041269515625
-19.2,1712041269531250
-17.59,1712041269546875
-14.19,1712041269562500
-9.34,1712041269578125
-4.08,1712041269593750
0.35,1712041269609375
2.87,1712041269625000
2.8,1712041269640625
0.13,1712041269656250
-4.79,1712041269671875
-11.19,1712041269687500
-18.03,1712041269703125
-24.09,1712041269718750
-28.26,1712041269734375
-29.95,1712041269750000
-29.38,1712041269765625
-27.52,1712041269781250
-25.7,1712041269796875
-25.09,1712041269812500
-26.23,1712041269828125
-29.0,1712041269843750
-32.51,1712041269859375
-35.38,1712041269875000
-36.0,1712041269890625
-33.08,1712041269906250
-26.19,1712041269921875
-16.09,1712041269937500
-4.44,1712041269953125
6.65,1712041269968750
15.55,1712041269984375
21.63,1712041270000000
24.95,1712041270015625
25.91,1712041270031250
24.69,1712041270046875
21.09,1712041270062500
14.9,1712041270078125
6.7,1712041270093750
-2.07,1712041270109375
-9.45,1712041270125000
-13.94,1712041270140625
-15.15,1712041270156250
-14.01,1712041270171875
-12.06,1712041270187500
-10.63,1712041270203125
-10.21,1712041270218750
-10.36,1712041270234375
-10.05,1712041270250000
-8.42,1712041270265625
-5.09,1712041270281250
-0.73,1712041270296875
3.13,1712041270312500
4.51,1712041270328125
1.87,1712041270343750
-4.92,1712041270359375
-14.21,1712041270375000
-22.88,1712041270390625
-27.56,1712041270406250
-26.09,1712041270421875
-18.9,1712041270437500
-8.52,1712041270453125
1.21,1712041270468750
7.33,1712041270484375
9.06,1712041270500000
7.68,1712041270515625
5.58,1712041270531250
4.57,1712041270546875
4.93,1712041270562500
5.39,1712041270578125
4.54,1712041270593750
1.95,1712041270609375
-1.13,1712041270625000
-2.52,1712041270640625
-0.38,1712041270656250
5.53,1712041270671875
13.54,1712041270687500
20.83,1712041270703125
24.92,1712041270718750
24.95,1712041270734375
21.93,1712041270750000
18.08,1712041270765625
15.53,1712041270781250
15.31,1712041270796875
17.3,1712041270812500
20.86,1712041270828125
25.4,1712041270843750
30.72,1712041270859375
36.89,1712041270875000
43.22,1712041270890625
48.2,1712041270906250
49.72,1712041270921875
45.98,1712041270937500
36.73,1712041270953125
23.49,1712041270968750
9.28,1712041270984375
-2.33,1712041271000000
-8.41,1712041271015625
-7.65,1712041271031250
-0.53,1712041271046875
10.85,1712041271062500
23.48,1712041271078125
34.27,1712041271093750
41.05,1712041271109375
43.15,1712041271125000
41.39,1712041271140625
37.7,1712041271156250
33.81,1712041271171875
30.62,1712041271187500
27.64,1712041271203125
23.82,1712041271218750
18.49,1712041271234375
11.99,1712041271250000
5.89,1712041271265625
1.98,1712041271281250
1.41,1712041271296875
3.86,1712041271312500
8.13,1712041271328125
12.54,1712041271343750
15.7,1712041271359375
17.02,1712041271375000
16.46,1712041271390625
14.38,1712041271406250
11.15,1712041271421875
7.06,1712041271437500
2.5,1712041271453125
-1.71,1712041271468750
-4.66,1712041271484375
-5.38,1712041271500000
-3.26,1712041271515625
1.22,1712041271531250
6.69,1712041271546875
11.05,1712041271562500
12.24,1712041271578125
9.32,1712041271593750
3.04,1712041271609375
-4.44,1712041271625000
-10.37,1712041271640625
-12.59,1712041271656250
-10.47,1712041271671875
-4.9,1712041271687500
2.13,1712041271703125
8.68,1712041271718750
13.49,1712041271734375
16.15,1712041271750000
16.79,1712041271765625
15.79,1712041271781250
13.45,1712041271796875
9.81,1712041271812500
5.04,1712041271828125
-0.54,1712041271843750
-6.45,1712041271859375
-11.96,1712041271875000
-16.22,1712041271890625
-18.49,1712041271906250
-18.44,1712041271921875
-16.36,1712041271937500
-13.16,1712041271953125
-9.99,1712041271968750
-8.03,1712041271984375
-7.95,1712041272000000
-9.65,1712041272015625
-12.34,1712041272031250
-14.64,1712041272046875
-15.06,1712041272062500
-12.52,1712041272078125
-6.83,1712041272093750
1.25,1712041272109375
9.98,1712041272125000
17.54,1712041272140625
22.45,1712041272156250
24.1,1712041272171875
22.58,1712041272187500
18.29,1712041272203125
11.76,1712041272218750
3.82,1712041272234375
-4.22,1712041272250000
-10.67,1712041272265625
-13.51,1712041272281250
-11.44,1712041272296875
-4.35,1712041272312500
6.38,1712041272328125
18.46,1712041272343750
29.04,1712041272359375
35.55,1712041272375000
36.46,1712041272390625
31.66,1712041272406250
22.46,1712041272421875
11.55,1712041272437500
2.02,1712041272453125
-3.33,1712041272468750
-3.32,1712041272484375
1.22,1712041272500000
7.81,1712041272515625
13.67,1712041272531250
16.88,1712041272546875
17.18,1712041272562500
15.84,1712041272578125
14.61,1712041272593750
14.7,1712041272609375
16.43,1712041272625000
19.14,1712041272640625
21.64,1712041272656250
22.58,1712041272671875
21.08,1712041272687500
16.87,1712041272703125
10.61,1712041272718750
3.98,1712041272734375
-1.09,1712041272750000
-3.12,1712041272765625
-1.88,1712041272781250
1.4,1712041272796875
4.53,1712041272812500
5.14,1712041272828125
2.01,1712041272843750
-4.7,1712041272859375
-13.57,1712041272875000
-22.61,1712041272890625
-29.99,1712041272906250
-34.56,1712041272921875
-35.76,1712041272937500
-33.77,1712041272953125
-29.17,1712041272968750
-22.97,1712041272984375
-16.65,1712041273000000
-11.66,1712041273015625
-8.99,1712041273031250
-8.85,1712041273046875
-10.78,1712041273062500
-13.62,1712041273078125
-16.13,1712041273093750
-17.51,1712041273109375
-17.5,1712041273125000
-16.73,1712041273140625
-15.96,1712041273156250
-16.04,1712041273171875
-16.9,1712041273187500
-17.95,1712041273203125
-18.34,1712041273218750
-17.57,1712041273234375
-15.84,1712041273250000
-13.99,1712041273265625
-13.11,1712041273281250
-13.79,1712041273296875
-16.06,1712041273312500
-19.26,1712041273328125
-22.57,1712041273343750
-25.29,1712041273359375
-27.18,1712041273375000
-28.23,1712041273390625
-28.65,1712041273406250
-28.66,1712041273421875
-28.53,1712041273437500
-28.78,1712041273453125
-30.01,1712041273468750
-32.74,1712041273484375
-37.25,1712041273500000
-43.39,1712041273515625
-50.5,1712041273531250
-57.43,1712041273546875
-62.79,1712041273562500
-65.11,1712041273578125
-63.92,1712041273593750
-59.84,1712041273609375
-54.64,1712041273625000
-50.43,1712041273640625
-48.55,1712041273656250
-48.85,1712041273671875
-49.71,1712041273687500
-49.14,1712041273703125
-45.67,1712041273718750
-39.38,1712041273734375
-31.42,1712041273750000
-23.29,1712041273765625
-16.01,1712041273781250
-9.77,1712041273796875
-4.27,1712041273812500
0.66,1712041273828125
4.83,1712041273843750
7.83,1712041273859375
9.28,1712041273875000
9.08,1712041273890625
7.44,1712041273906250
4.68,1712041273921875
1.16,1712041273937500
-2.61,1712041273953125
-5.95,1712041273968750
-8.21,1712041273984375
-9.0,1712041274000000
-8.48,1712041274015625
-7.26,1712041274031250
-5.91,1712041274046875
-4.82,1712041274062500
-3.69,1712041274078125
-2.26,1712041274093750
-0.44,1712041274109375
1.21,1712041274125000
1.79,1712041274140625
0.28,1712041274156250
-3.59,1712041274171875
-9.26,1712041274187500
-15.51,1712041274203125
-20.69,1712041274218750
-23.33,1712041274234375
-22.66,1712041274250000
-18.82,1712041274265625
-12.93,1712041274281250
-6.71,1712041274296875
-1.53,1712041274312500
1.6,1712041274328125
2.31,1712041274343750
0.78,1712041274359375
-2.48,1712041274375000
-6.79,1712041274390625
-11.04,1712041274406250
-13.8,1712041274421875
-13.74,1712041274437500
-10.18,1712041274453125
-3.44,1712041274468750
5.01,1712041274484375
13.33,1712041274500000
20.06,1712041274515625
24.56,1712041274531250
27.19,1712041274546875
28.4,1712041274562500
28.35,1712041274578125
26.83,1712041274593750
23.82,1712041274609375
19.96,1712041274625000
16.96,1712041274640625
16.68,1712041274656250
20.1,1712041274671875
26.58,1712041274687500
33.77,1712041274703125
38.68,1712041274718750
39.03,1712041274734375
34.32,1712041274750000
26.06,1712041274765625
16.73,1712041274781250
8.5,1712041274796875
2.39,1712041274812500
-1.6,1712041274828125
-3.97,1712041274843750
-4.97,1712041274859375
-4.13,1712041274875000
-0.98,1712041274890625
4.29,1712041274906250
10.51,1712041274921875
16.04,1712041274937500
19.31,1712041274953125
19.91,1712041274968750
18.55,1712041274984375
16.42,1712041275000000
14.3,1712041275015625
11.93,1712041275031250
8.29,1712041275046875
2.32,1712041275062500
-6.07,1712041275078125
-15.62,1712041275093750
-24.05,1712041275109375
-29.02,1712041275125000
-28.97,1712041275140625
-23.81,1712041275156250
-15.07,1712041275171875
-5.45,1712041275187500
1.89,1712041275203125
4.41,1712041275218750
0.92,1712041275234375
-7.49,1712041275250000
-17.66,1712041275265625
-25.64,1712041275281250
-28.21,1712041275296875
-24.49,1712041275312500
-16.07,1712041275328125
-6.09,1712041275343750
2.48,1712041275359375
8.35,1712041275375000
12.03,1712041275390625
14.74,1712041275406250
16.91,1712041275421875
17.8,1712041275437500
16.09,1712041275453125
11.44,1712041275468750
5.21,1712041275484375
0.06,1712041275500000
-1.56,1712041275515625
1.11,1712041275531250
6.78,1712041275546875
12.85,1712041275562500
17.24,1712041275578125
19.29,1712041275593750
19.93,1712041275609375
20.68,1712041275625000
22.76,1712041275640625
26.42,1712041275656250
31.04,1712041275671875
35.71,1712041275687500
39.64,1712041275703125
42.4,1712041275718750
43.55,1712041275734375
43.0,1712041275750000
40.88,1712041275765625
37.76,1712041275781250
34.43,1712041275796875
31.75,1712041275812500
30.22,1712041275828125
29.74,1712041275843750
29.7,1712041275859375
29.29,1712041275875000
27.79,1712041275890625
25.03,1712041275906250
21.43,1712041275921875
17.67,1712041275937500
14.55,1712041275953125
12.75,1712041275968750
12.55,1712041275984375
13.83,1712041276000000
15.87,1712041276015625
17.45,1712041276031250
17.34,1712041276046875
14.67,1712041276062500
9.6,1712041276078125
3.52,1712041276093750
-1.24,1712041276109375
-2.65,1712041276125000
0.09,1712041276140625
6.02,1712041276156250
12.75,1712041276171875
17.74,1712041276187500
19.61,1712041276203125
18.65,1712041276218750
16.4,1712041276234375
14.79,1712041276250000
14.68,1712041276265625
15.73,1712041276281250
16.79,1712041276296875
16.62,1712041276312500
14.6,1712041276328125
10.84,1712041276343750
5.95,1712041276359375
0.8,1712041276375000
-3.54,1712041276390625
-5.94,1712041276406250
-5.61,1712041276421875
-2.48,1712041276437500
2.42,1712041276453125
7.2,1712041276468750
9.96,1712041276484375
9.77,1712041276500000
7.11,1712041276515625
3.51,1712041276531250
0.62,1712041276546875
-0.49,1712041276562500
0.39,1712041276578125
2.83,1712041276593750
6.29,1712041276609375
10.37,1712041276625000
14.61,1712041276640625
18.25,1712041276656250
20.21,1712041276671875
19.71,1712041276687500
16.87,1712041276703125
13.17,1712041276718750
10.8,1712041276734375
12.02,1712041276750000
17.75,1712041276765625
27.01,1712041276781250
37.14,1712041276796875
44.94,1712041276812500
47.9,1712041276828125
45.19,1712041276843750
37.92,1712041276859375
28.0,1712041276875000
17.32,1712041276890625
7.03,1712041276906250
-2.54,1712041276921875
-11.01,1712041276937500
-17.55,1712041276953125
-20.9,1712041276968750
-20.02,1712041276984375
-15.03,1712041277000000
-7.56,1712041277015625
0.3,1712041277031250
6.74,1712041277046875
10.93,1712041277062500
12.88,1712041277078125
12.75,1712041277093750
10.34,1712041277109375
5.4,1712041277125000
-1.74,1712041277140625
-9.63,1712041277156250
-15.9,1712041277171875
-18.2,1712041277187500
-15.6,1712041277203125
-9.03,1712041277218750
-1.21,1712041277234375
4.45,1712041277250000
5.29,1712041277265625
0.24,1712041277281250
-9.98,1712041277296875
-22.99,1712041277312500
-35.76,1712041277328125
-45.41,1712041277343750
-50.0,1712041277359375
-49.3,1712041277375000
-44.75,1712041277390625
-38.75,1712041277406250
-33.63,1712041277421875
-30.91,1712041277437500
-30.75,1712041277453125
-32.32,1712041277468750
-34.29,1712041277484375
-35.46,1712041277500000
-35.4,1712041277515625
-34.5,1712041277531250
-33.72,1712041277546875
-34.08,1712041277562500
-36.1,1712041277578125
-39.43,1712041277593750
-43.21,1712041277609375
-46.69,1712041277625000
-49.58,1712041277640625
-52.53,1712041277656250
-56.71,1712041277671875
-62.91,1712041277687500
-71.2,1712041277703125
-80.54,1712041277718750
-89.39,1712041277734375
-96.54,1712041277750000
-101.62,1712041277765625
-105.3,1712041277781250
-108.71,1712041277796875
-112.67,1712041277812500
-117.42,1712041277828125
-122.59,1712041277843750
-127.28,1712041277859375
-130.49,1712041277875000
-131.37,1712041277890625
-129.64,1712041277906250
-125.67,1712041277921875
-120.69,1712041277937500
-116.46,1712041277953125
-114.4,1712041277968750
-115.01,1712041277984375
-117.45,1712041278000000
-119.87,1712041278015625
-120.59,1712041278031250
-118.71,1712041278046875
-114.88,1712041278062500
-111.07,1712041278078125
-109.65,1712041278093750
-112.62,1712041278109375
-120.92,1712041278125000
-134.13,1712041278140625
-150.59,1712041278156250
-167.96,1712041278171875
-183.4,1712041278187500
-194.4,1712041278203125
-198.96,1712041278218750
-196.04,1712041278234375
-185.61,1712041278250000
-168.56,1712041278265625
-146.7,1712041278281250
-122.58,1712041278296875
-99.27,1712041278312500
-79.76,1712041278328125
-66.34,1712041278343750
-59.76,1712041278359375
-58.98,1712041278375000
-61.41,1712041278390625
-63.79,1712041278406250
-63.29,1712041278421875
-58.04,1712041278437500
-47.53,1712041278453125
-32.16,1712041278468750
-12.83,1712041278484375
9.52,1712041278500000
33.96,1712041278515625
59.35,1712041278531250
84.42,1712041278546875
107.88,1712041278562500
128.51,1712041278578125
145.5,1712041278593750
158.48,1712041278609375
167.62,1712041278625000
173.46,1712041278640625
176.98,1712041278656250
179.27,1712041278671875
181.51,1712041278687500
184.62,1712041278703125
189.15,1712041278718750
195.3,1712041278734375
202.99,1712041278750000
212.1,1712041278765625
222.52,1712041278781250
234.05,1712041278796875
246.17,1712041278812500
257.72,1712041278828125
267.1,1712041278843750
272.58,1712041278859375
273.03,1712041278875000
268.37,1712041278890625
259.66,1712041278906250
248.73,1712041278921875
237.32,1712041278937500
226.54,1712041278953125
216.3,1712041278968750
205.7,1712041278984375
193.5,1712041279000000
178.91,1712041279015625
161.99,1712041279031250
143.51,1712041279046875
124.81,1712041279062500
107.27,1712041279078125
92.02,1712041279093750
79.73,1712041279109375
70.73,1712041279125000
64.83,1712041279140625
61.43,1712041279156250
59.59,1712041279171875
58.37,1712041279187500
56.93,1712041279203125
54.6,1712041279218750
50.81,1712041279234375
45.06,1712041279250000
36.9,1712041279265625
26.34,1712041279281250
14.41,1712041279296875
3.11,1712041279312500
-5.11,1712041279328125
-8.4,1712041279343750
-6.61,1712041279359375
-1.35,1712041279375000
4.54,1712041279390625
8.21,1712041279406250
8.11,1712041279421875
4.32,1712041279437500
-1.78,1712041279453125
-8.31,1712041279468750
-13.72,1712041279484375
-17.19,1712041279500000
-18.52,1712041279515625
-17.76,1712041279531250
-15.0,1712041279546875
-10.29,1712041279562500
-4.09,1712041279578125
2.59,1712041279593750
8.06,1712041279609375
10.54,1712041279625000
8.82,1712041279640625
2.99,1712041279656250
-5.28,1712041279671875
-13.24,1712041279687500
-18.29,1712041279703125
-18.87,1712041279718750
-15.24,1712041279734375
-9.01,1712041279750000
-2.32,1712041279765625
3.07,1712041279781250
6.28,1712041279796875
7.12,1712041279812500
5.77,1712041279828125
2.36,1712041279843750
-2.9,1712041279859375
-9.39,1712041279875000
-15.76,1712041279890625
-20.28,1712041279906250
-21.29,1712041279921875
-17.91,1712041279937500
-10.58,1712041279953125
-0.9,1712041279968750
8.81,1712041279984375
16.43,1712041280000000
20.56,1712041280015625
20.74,1712041280031250
17.51,1712041280046875
12.07,1712041280062500
5.81,1712041280078125
0.2,1712041280093750
-3.71,1712041280109375
-5.23,1712041280125000
-4.26,1712041280140625
-1.46,1712041280156250
2.07,1712041280171875
4.94,1712041280187500
6.03,1712041280203125
4.98,1712041280218750
2.31,1712041280234375
-0.92,1712041280250000
-3.73,1712041280265625
-5.67,1712041280281250
-7.03,1712041280296875
-8.33,1712041280312500
-10.02,1712041280328125
-12.12,1712041280343750
-14.32,1712041280359375
-16.16,1712041280375000
-17.31,1712041280390625
-17.65,1712041280406250
-17.27,1712041280421875
-16.39,1712041280437500
-15.61,1712041280453125
-16.03,1712041280468750
-19.11,1712041280484375
-25.73,1712041280500000
-35.38,1712041280515625
-45.79,1712041280531250
-53.18,1712041280546875
-53.87,1712041280562500
-46.09,1712041280578125
-30.68,1712041280593750
-11.0,1712041280609375
8.62,1712041280625000
24.61,1712041280640625
35.14,1712041280656250
40.19,1712041280671875
40.81,1712041280687500
38.18,1712041280703125
33.13,1712041280718750
26.26,1712041280734375
18.25,1712041280750000
10.2,1712041280765625
3.41,1712041280781250
-1.15,1712041280796875
-3.18,1712041280812500
-3.24,1712041280828125
-2.42,1712041280843750
-1.92,1712041280859375
-2.45,1712041280875000
-4.16,1712041280890625
-6.63,1712041280906250
-9.16,1712041280921875
-11.17,1712041280937500
-12.54,1712041280953125
-13.56,1712041280968750
-14.83,1712041280984375
-16.87,1712041281000000
-19.7,1712041281015625
-22.9,1712041281031250
-25.57,1712041281046875
-26.85,1712041281062500
-26.29,1712041281078125
-23.96,1712041281093750
-20.55,1712041281109375
-17.22,1712041281125000
-15.25,1712041281140625
-15.6,1712041281156250
-18.43,1712041281171875
-22.81,1712041281187500
-27.1,1712041281203125
-29.36,1712041281218750
-28.13,1712041281234375
-23.16,1712041281250000
-15.44,1712041281265625
-6.94,1712041281281250
0.16,1712041281296875
4.31,1712041281312500
5.02,1712041281328125
2.69,1712041281343750
-1.83,1712041281359375
-7.48,1712041281375000
-13.28,1712041281390625
-18.22,1712041281406250
-21.07,1712041281421875
-20.63,1712041281437500
-16.24,1712041281453125
-8.32,1712041281468750
1.53,1712041281484375
10.88,1712041281500000
17.24,1712041281515625
19.04,1712041281531250
16.37,1712041281546875
10.97,1712041281562500
5.3,1712041281578125
1.45,1712041281593750
0.17,1712041281609375
0.71,1712041281625000
1.5,1712041281640625
1.02,1712041281656250
-1.4,1712041281671875
-5.25,1712041281687500
-9.58,1712041281703125
-13.52,1712041281718750
-16.77,1712041281734375
-19.68,1712041281750000
-22.75,1712041281765625
-26.07,1712041281781250
-29.01,1712041281796875
-30.45,1712041281812500
-29.35,1712041281828125
-25.23,1712041281843750
-18.7,1712041281859375
-11.02,1712041281875000
-3.96,1712041281890625
1.01,1712041281906250
3.13,1712041281921875
2.51,1712041281937500
-0.02,1712041281953125
-3.46,1712041281968750
-7.0,1712041281984375
-10.11,1712041282000000
-12.54,1712041282015625
-13.99,1712041282031250
-14.16,1712041282046875
-12.83,1712041282062500
-10.12,1712041282078125
-6.67,1712041282093750
-3.46,1712041282109375
-1.39,1712041282125000
-0.95,1712041282140625
-2.12,1712041282156250
-4.49,1712041282171875
-7.46,1712041282187500
-10.52,1712041282203125
-13.17,1712041282218750
-14.89,1712041282234375
-15.19,1712041282250000
-13.8,1712041282265625
-11.07,1712041282281250
-7.96,1712041282296875
-5.71,1712041282312500
-5.34,1712041282328125
-6.97,1712041282343750
-9.96,1712041282359375
-13.05,1712041282375000
-15.19,1712041282390625
-15.72,1712041282406250
-14.6,1712041282421875
-11.88,1712041282437500
-7.63,1712041282453125
-2.2,1712041282468750
3.76,1712041282484375
8.99,1712041282500000
11.98,1712041282515625
11.9,1712041282531250
9.24,1712041282546875
5.86,1712041282562500
4.28,1712041282578125
6.23,1712041282593750
11.57,1712041282609375
18.19,1712041282625000
23.14,1712041282640625
24.11,1712041282656250
20.85,1712041282671875
15.06,1712041282687500
9.41,1712041282703125
6.21,1712041282718750
6.21,1712041282734375
8.54,1712041282750000
11.6,1712041282765625
13.81,1712041282781250
14.33,1712041282796875
13.09,1712041282812500
10.43,1712041282828125
6.86,1712041282843750
2.97,1712041282859375
-0.46,1712041282875000
-2.58,1712041282890625
-2.62,1712041282906250
-0.41,1712041282921875
3.48,1712041282937500
7.7,1712041282953125
10.56,1712041282968750
10.62,1712041282984375
7.32,1712041283000000
1.29,1712041283015625
-5.68,1712041283031250
-11.17,1712041283046875
-13.0,1712041283062500
-10.08,1712041283078125
-2.89,1712041283093750
6.64,1712041283109375
15.86,1712041283125000
22.45,1712041283140625
25.15,1712041283156250
24.05,1712041283171875
20.17,1712041283187500
14.85,1712041283203125
9.38,1712041283218750
4.59,1712041283234375
1.03,1712041283250000
-0.97,1712041283265625
-1.24,1712041283281250
0.15,1712041283296875
2.89,1712041283312500
6.4,1712041283328125
9.72,1712041283343750
11.66,1712041283359375
11.22,1712041283375000
7.89,1712041283390625
2.29,1712041283406250
-3.92,1712041283421875
-8.56,1712041283437500
-10.01,1712041283453125
-7.98,1712041283468750
-3.73,1712041283484375
0.66,1712041283500000
3.31,1712041283515625
3.4,1712041283531250
1.31,1712041283546875
-1.89,1712041283562500
-5.24,1712041283578125
-8.19,1712041283593750
-10.72,1712041283609375
-13.0,1712041283625000
-15.16,1712041283640625
-17.09,1712041283656250
-18.47,1712041283671875
-18.73,1712041283687500
-17.15,1712041283703125
-13.1,1712041283718750
-6.46,1712041283734375
1.94,1712041283750000
10.32,1712041283765625
16.46,1712041283781250
18.59,1712041283796875
16.24,1712041283812500
10.5,1712041283828125
3.29,1712041283843750
-3.42,1712041283859375
-8.17,1712041283875000
-10.38,1712041283890625
-9.96,1712041283906250
-7.2,1712041283921875
-2.79,1712041283937500
2.11,1712041283953125
5.98,1712041283968750
7.47,1712041283984375
6.18,1712041284000000
2.84,1712041284015625
-0.89,1712041284031250
-3.4,1712041284046875
-3.85,1712041284062500
-2.71,1712041284078125
-1.1,1712041284093750
-0.1,1712041284109375
-0.06,1712041284125000
-0.53,1712041284140625
-0.75,1712041284156250
-0.16,1712041284171875
1.1,1712041284187500
2.37,1712041284203125
2.8,1712041284218750
1.73,1712041284234375
-1.14,1712041284250000
-5.54,1712041284265625
-10.76,1712041284281250
-15.86,1712041284296875
-19.88,1712041284312500
-22.08,1712041284328125
-21.99,1712041284343750
-19.57,1712041284359375
-15.01,1712041284375000
-8.72,1712041284390625
-1.4,1712041284406250
5.99,1712041284421875
12.44,1712041284437500
16.94,1712041284453125
18.88,1712041284468750
18.16,1712041284484375
15.42,1712041284500000
11.56,1712041284515625
7.57,1712041284531250
4.09,1712041284546875
1.31,1712041284562500
-0.94,1712041284578125
-3.12,1712041284593750
-5.42,1712041284609375
-7.67,1712041284625000
-9.26,1712041284640625
-9.46,1712041284656250
-7.75,1712041284671875
-4.27,1712041284687500
-0.05,1712041284703125
3.43,1712041284718750
4.88,1712041284734375
3.89,1712041284750000
1.17,1712041284765625
-1.85,1712041284781250
-3.77,1712041284796875
-3.95,1712041284812500
-2.43,1712041284828125
0.24,1712041284843750
3.52,1712041284859375
6.97,1712041284875000
10.2,1712041284890625
12.55,1712041284906250
13.35,1712041284921875
12.22,1712041284937500
9.88,1712041284953125
8.14,1712041284968750
9.22,1712041284984375
14.79,1712041285000000
24.61,1712041285015625
36.55,1712041285031250
47.57,1712041285046875
55.0,1712041285062500
57.89,1712041285078125
57.4,1712041285093750
56.26,1712041285109375
57.23,1712041285125000
61.72,1712041285140625
68.91,1712041285156250
75.92,1712041285171875
79.69,1712041285187500
77.76,1712041285203125
69.65,1712041285218750
57.04,1712041285234375
43.24,1712041285250000
31.58,1712041285265625
24.14,1712041285281250
20.92,1712041285296875
20.24,1712041285312500
20.77,1712041285328125
21.33,1712041285343750
21.46,1712041285359375
21.0,1712041285375000
20.0,1712041285390625
18.95,1712041285406250
19.82,1712041285421875
26.43,1712041285437500
43.79,1712041285453125
76.74,1712041285468750
125.71,1712041285484375
185.13,1712041285500000
244.41,1712041285515625
291.84,1712041285531250
319.13,1712041285546875
324.54,1712041285562500
312.68,1712041285578125
284.22,1712041285593750
242.26,1712041285609375
189.29,1712041285625000
127.44,1712041285640625
59.63,1712041285656250
-9.38,1712041285671875
-73.66,1712041285687500
-127.92,1712041285703125
-169.47,1712041285718750
-198.85,1712041285734375
-217.95,1712041285750000
-229.64,1712041285765625
-236.28,1712041285781250
-239.04,1712041285796875
-237.91,1712041285812500
-232.51,1712041285828125
-222.99,1712041285843750
-210.41,1712041285859375
-196.76,1712041285875000
-183.41,1712041285890625
-171.51,1712041285906250
-161.45,1712041285921875
-152.82,1712041285937500
-144.62,1712041285953125
-135.88,1712041285968750
-126.1,1712041285984375
-115.56,1712041286000000
-105.14,1712041286015625
-95.46,1712041286031250
-86.98,1712041286046875
-79.84,1712041286062500
-73.73,1712041286078125
-68.08,1712041286093750
-62.35,1712041286109375
-56.31,1712041286125000
-50.09,1712041286140625
-44.12,1712041286156250
-38.66,1712041286171875
-33.9,1712041286187500
-29.84,1712041286203125
-26.32,1712041286218750
-23.11,1712041286234375
-19.98,1712041286250000
-16.84,1712041286265625
-13.76,1712041286281250
-10.87,1712041286296875
-8.22,1712041286312500
-5.84,1712041286328125
-3.69,1712041286343750
-1.73,1712041286359375
0.11,1712041286375000
1.84,1712041286390625
3.45,1712041286406250
4.95,1712041286421875
6.28,1712041286437500
7.47,1712041286453125
8.54,1712041286468750
9.5,1712041286484375
10.4,1712041286500000
11.25,1712041286515625
12.1,1712041286531250
12.94,1712041286546875
13.8,1712041286562500
14.7,1712041286578125
15.62,1712041286593750
16.59,1712041286609375
17.61,1712041286625000
18.68,1712041286640625
19.78,1712041286656250
20.86,1712041286671875
21.89,1712041286687500
22.77,1712041286703125
23.41,1712041286718750
23.69,1712041286734375
23.49,1712041286750000
22.73,1712041286765625
21.31,1712041286781250
19.21,1712041286796875
16.44,1712041286812500
13.0,1712041286828125
9.07,1712041286843750
4.78,1712041286859375
0.31,1712041286875000
-4.1,1712041286890625
-8.27,1712041286906250
-11.99,1712041286921875
-15.12,1712041286937500
-17.53,1712041286953125
-19.15,1712041286968750
-19.96,1712041286984375
-20.02,1712041287000000
-19.39,1712041287015625
-18.18,1712041287031250
-16.5,1712041287046875
-14.46,1712041287062500
-12.18,1712041287078125
-9.72,1712041287093750
-7.16,1712041287109375
-4.52,1712041287125000
-1.88,1712041287140625
0.72,1712041287156250
3.24,1712041287171875
5.65,1712041287187500
7.94,1712041287203125
10.1,1712041287218750
12.15,1712041287234375
14.15,1712041287250000
16.18,1712041287265625
18.19,1712041287281250
20.16,1712041287296875
22.07,1712041287312500
23.95,1712041287328125
25.81,1712041287343750
27.71,1712041287359375
29.73,1712041287375000
32.03,1712041287390625
34.84,1712041287406250
38.03,1712041287421875
41.6,1712041287437500
45.55,1712041287453125
49.85,1712041287468750
54.48,1712041287484375
59.44,1712041287500000
64.76,1712041287515625
70.55,1712041287531250
77.03,1712041287546875
83.86,1712041287562500
90.81,1712041287578125
97.69,1712041287593750
104.3,1712041287609375
110.46,1712041287625000
116.06,1712041287640625
121.14,1712041287656250
125.88,1712041287671875
130.72,1712041287687500
135.27,1712041287703125
139.33,1712041287718750
142.54,1712041287734375
144.41,1712041287750000
144.27,1712041287765625
141.3,1712041287781250
134.48,1712041287796875
122.23,1712041287812500
107.9,1712041287828125
92.57,1712041287843750
76.87,1712041287859375
61.01,1712041287875000
44.95,1712041287890625
28.48,1712041287906250
11.49,1712041287921875
-5.87,1712041287937500
-23.14,1712041287953125
-39.58,1712041287968750
-55.21,1712041287984375
-70.03,1712041288000000
-84.23,1712041288015625
-98.22,1712041288031250
-112.5,1712041288046875
-127.61,1712041288062500
-144.04,1712041288078125
-162.08,1712041288093750
-181.44,1712041288109375
-201.71,1712041288125000
-221.4,1712041288140625
-238.37,1712041288156250
-250.42,1712041288171875
-256.2,1712041288187500
-255.63,1712041288203125
-249.92,1712041288218750
-241.01,1712041288234375
-230.62,1712041288250000
-220.14,1712041288265625
-209.87,1712041288281250
-199.4,1712041288296875
-188.07,1712041288312500
-175.35,1712041288328125
-160.99,1712041288343750
-145.06,1712041288359375
-127.88,1712041288375000
-110.05,1712041288390625
-92.71,1712041288406250
-77.13,1712041288421875
-64.55,1712041288437500
-55.74,1712041288453125
-50.89,1712041288468750
-49.42,1712041288484375
-50.18,1712041288500000
-51.65,1712041288515625
-52.22,1712041288531250
-50.66,1712041288546875
-46.31,1712041288562500
-39.43,1712041288578125
-31.16,1712041288593750
-23.18,1712041288609375
-17.17,1712041288625000
-14.15,1712041288640625
-13.98,1712041288656250
-15.44,1712041288671875
-16.68,1712041288687500
-16.0,1712041288703125
-12.52,1712041288718750
-6.35,1712041288734375
1.58,1712041288750000
10.07,1712041288765625
18.22,1712041288781250
25.67,1712041288796875
32.49,1712041288812500
38.85,1712041288828125
44.66,1712041288843750
49.4,1712041288859375
52.29,1712041288875000
52.68,1712041288890625
50.4,1712041288906250
45.92,1712041288921875
40.25,1712041288937500
34.57,1712041288953125
29.86,1712041288968750
26.67,1712041288984375
25.07,1712041289000000
24.93,1712041289015625
25.96,1712041289031250
27.91,1712041289046875
30.37,1712041289062500
32.76,1712041289078125
34.3,1712041289093750
34.27,1712041289109375
32.29,1712041289125000
28.44,1712041289140625
23.25,1712041289156250
17.38,1712041289171875
11.38,1712041289187500
5.56,1712041289203125
0.06,1712041289218750
-5.09,1712041289234375
-9.89,1712041289250000
-14.36,1712041289265625
-18.55,1712041289281250
-22.51,1712041289296875
-26.08,1712041289312500
-28.68,1712041289328125
-29.35,1712041289343750
-27.02,1712041289359375
-21.0,1712041289375000
-11.38,1712041289390625
0.77,1712041289406250
13.67,1712041289421875
25.37,1712041289437500
34.4,1712041289453125
40.22,1712041289468750
43.26,1712041289484375
44.57,1712041289500000
45.35,1712041289515625
46.43,1712041289531250
47.95,1712041289546875
49.55,1712041289562500
50.68,1712041289578125
50.98,1712041289593750
50.64,1712041289609375
50.32,1712041289625000
50.99,1712041289640625
53.49,1712041289656250
58.14,1712041289671875
64.47,1712041289687500
71.2,1712041289703125
76.43,1712041289718750
78.17,1712041289734375
74.76,1712041289750000
65.47,1712041289765625
50.67,1712041289781250
31.86,1712041289796875
11.32,1712041289812500
-8.35,1712041289828125
-24.83,1712041289843750
-36.49,1712041289859375
-42.68,1712041289875000
-43.72,1712041289890625
-40.72,1712041289906250
-35.21,1712041289921875
-28.72,1712041289937500
-22.44,1712041289953125
-17.06,1712041289968750
-12.81,1712041289984375
-9.64,1712041290000000
-7.36,1712041290015625
-5.74,1712041290031250
-4.5,1712041290046875
-3.29,1712041290062500
-1.66,1712041290078125
0.77,1712041290093750
4.16,1712041290109375
8.3,1712041290125000
12.58,1712041290140625
16.12,1712041290156250
18.15,1712041290171875
18.23,1712041290187500
16.48,1712041290203125
13.55,1712041290218750
10.3,1712041290234375
7.6,1712041290250000
6.0,1712041290265625
5.65,1712041290281250
6.31,1712041290296875
7.57,1712041290312500
9.09,1712041290328125
10.66,1712041290343750
12.25,1712041290359375
13.89,1712041290375000
15.47,1712041290390625
16.63,1712041290406250
16.67,1712041290421875
14.84,1712041290437500
10.63,1712041290453125
4.1,1712041290468750
-3.95,1712041290484375
-12.19,1712041290500000
-19.14,1712041290515625
-23.68,1712041290531250
-25.39,1712041290546875
-24.65,1712041290562500
-22.4,1712041290578125
-19.75,1712041290593750
-17.6,1712041290609375
-16.43,1712041290625000
-16.28,1712041290640625
-16.85,1712041290656250
-17.71,1712041290671875
-18.38,1712041290687500
-18.42,1712041290703125
-17.46,1712041290718750
-15.25,1712041290734375
-11.78,1712041290750000
-7.3,1712041290765625
-2.37,1712041290781250
2.29,1712041290796875
6.04,1712041290812500
8.5,1712041290828125
9.83,1712041290843750
10.56,1712041290859375
11.51,1712041290875000
13.37,1712041290890625
16.5,1712041290906250
20.81,1712041290921875
25.8,1712041290937500
30.88,1712041290953125
35.52,1712041290968750
39.36,1712041290984375
42.17,1712041291000000
43.77,1712041291015625
43.94,1712041291031250
42.48,1712041291046875
39.39,1712041291062500
34.96,1712041291078125
29.81,1712041291093750
24.69,1712041291109375
20.18,1712041291125000
16.54,1712041291140625
13.63,1712041291156250
11.09,1712041291171875
8.57,1712041291187500
5.89,1712041291203125
3.12,1712041291218750
0.52,1712041291234375
-1.55,1712041291250000
-2.73,1712041291265625
-2.72,1712041291281250
-1.45,1712041291296875
0.94,1712041291312500
4.01,1712041291328125
7.25,1712041291343750
10.18,1712041291359375
12.54,1712041291375000
14.33,1712041291390625
15.65,1712041291406250
16.59,1712041291421875
17.03,1712041291437500
16.71,1712041291453125
15.42,1712041291468750
13.13,1712041291484375
10.12,1712041291500000
6.92,1712041291515625
4.12,1712041291531250
2.23,1712041291546875
1.57,1712041291562500
2.2,1712041291578125
3.98,1712041291593750
6.6,1712041291609375
9.58,1712041291625000
12.38,1712041291640625
14.36,1712041291656250
15.0,1712041291671875
13.98,1712041291687500
11.29,1712041291703125
7.28,1712041291718750
2.54,1712041291734375
-2.23,1712041291750000
-6.44,1712041291765625
-9.76,1712041291781250
-12.14,1712041291796875
-13.8,1712041291812500
-15.0,1712041291828125
-15.95,1712041291843750
-16.71,1712041291859375
-17.24,1712041291875000
-17.43,1712041291890625
-17.22,1712041291906250
-16.57,1712041291921875
-15.42,1712041291937500
-13.7,1712041291953125
-11.23,1712041291968750
-7.85,1712041291984375
-3.53,1712041292000000
1.56,1712041292015625
6.87,1712041292031250
11.58,1712041292046875
14.76,1712041292062500
15.68,1712041292078125
14.13,1712041292093750
10.54,1712041292109375
5.85,1712041292125000
1.22,1712041292140625
-2.35,1712041292156250
-4.26,1712041292171875
-4.23,1712041292187500
-2.3,1712041292203125
1.19,1712041292218750
5.34,1712041292234375
8.53,1712041292250000
8.47,1712041292265625
2.91,1712041292281250
-9.26,1712041292296875
-27.03,1712041292312500
-47.08,1712041292328125
-64.69,1712041292343750
-75.35,1712041292359375
-76.47,1712041292375000
-68.2,1712041292390625
-53.11,1712041292406250
-34.89,1712041292421875
-16.92,1712041292437500
-1.44,1712041292453125
10.54,1712041292468750
18.77,1712041292484375
23.19,1712041292500000
23.84,1712041292515625
21.1,1712041292531250
16.02,1712041292546875
10.33,1712041292562500
6.11,1712041292578125
5.07,1712041292593750
7.87,1712041292609375
13.91,1712041292625000
21.49,1712041292640625
28.57,1712041292656250
33.47,1712041292671875
35.47,1712041292687500
34.85,1712041292703125
32.52,1712041292718750
29.42,1712041292734375
26.02,1712041292750000
22.2,1712041292765625
17.59,1712041292781250
12.01,1712041292796875
5.85,1712041292812500
0.09,1712041292828125
-4.18,1712041292843750
-6.17,1712041292859375
-5.86,1712041292875000
-4.0,1712041292890625
-1.76,1712041292906250
-0.24,1712041292921875
-0.16,1712041292937500
-1.58,1712041292953125
-4.09,1712041292968750
-6.96,1712041292984375
-9.52,1712041293000000
-11.34,1712041293015625
-12.35,1712041293031250
-12.8,1712041293046875
-13.12,1712041293062500
-13.81,1712041293078125
-15.18,1712041293093750
-17.37,1712041293109375
-20.26,1712041293125000
-23.52,1712041293140625
-26.69,1712041293156250
-29.19,1712041293171875
-30.46,1712041293187500
-30.04,1712041293203125
-27.65,1712041293218750
-23.35,1712041293234375
-17.49,1712041293250000
-10.71,1712041293265625
-3.8,1712041293281250
2.46,1712041293296875
7.46,1712041293312500
10.92,1712041293328125
12.87,1712041293343750
13.55,1712041293359375
13.33,1712041293375000
12.51,1712041293390625
11.31,1712041293406250
9.92,1712041293421875
8.55,1712041293437500
7.44,1712041293453125
6.86,1712041293468750
6.97,1712041293484375
7.7,1712041293500000
8.81,1712041293515625
10.0,1712041293531250
10.94,1712041293546875
11.49,1712041293562500
11.56,1712041293578125
11.12,1712041293593750
10.03,1712041293609375
8.11,1712041293625000
5.22,1712041293640625
1.36,1712041293656250
-3.15,1712041293671875
-7.81,1712041293687500
-12.02,1712041293703125
-15.43,1712041293718750
-18.01,1712041293734375
-20.08,1712041293750000
-22.14,1712041293765625
-24.58,1712041293781250
-27.47,1712041293796875
-30.53,1712041293812500
-33.2,1712041293828125
-34.84,1712041293843750
-34.95,1712041293859375
-33.34,1712041293875000
-30.07,1712041293890625
-25.46,1712041293906250
-19.96,1712041293921875
-14.04,1712041293937500
-8.19,1712041293953125
-2.86,1712041293968750
1.55,1712041293984375
4.8,1712041294000000
6.79,1712041294015625
7.66,1712041294031250
7.68,1712041294046875
7.14,1712041294062500
6.32,1712041294078125
5.37,1712041294093750
4.4,1712041294109375
3.55,1712041294125000
3.13,1712041294140625
3.56,1712041294156250
5.16,1712041294171875
7.94,1712041294187500
11.5,1712041294203125
15.03,1712041294218750
17.63,1712041294234375
18.64,1712041294250000
17.87,1712041294265625
15.68,1712041294281250
12.73,1712041294296875
9.71,1712041294312500
7.12,1712041294328125
5.14,1712041294343750
3.7,1712041294359375
2.58,1712041294375000
1.54,1712041294390625
0.35,1712041294406250
-1.2,1712041294421875
-3.2,1712041294437500
-5.59,1712041294453125
-8.03,1712041294468750
-9.95,1712041294484375
-10.65,1712041294500000
-9.53,1712041294515625
-6.36,1712041294531250
-1.41,1712041294546875
4.53,1712041294562500
10.42,1712041294578125
15.2,1712041294593750
18.13,1712041294609375
18.89,1712041294625000
17.62,1712041294640625
14.76,1712041294656250
10.82,1712041294671875
6.35,1712041294687500
1.83,1712041294703125
-2.26,1712041294718750
-5.43,1712041294734375
-7.29,1712041294750000
-7.65,1712041294765625
-6.62,1712041294781250
-4.65,1712041294796875
-2.39,1712041294812500
-0.5,1712041294828125
0.59,1712041294843750
0.78,1712041294859375
0.3,1712041294875000
-0.43,1712041294890625
-1.06,1712041294906250
-1.46,1712041294921875
-1.75,1712041294937500
-2.25,1712041294953125
-3.19,1712041294968750
-4.61,1712041294984375
-6.29,1712041295000000
-7.86,1712041295015625
-9.13,1712041295031250
-10.13,1712041295046875
-11.11,1712041295062500
-12.27,1712041295078125
-13.48,1712041295093750
-14.15,1712041295109375
-13.42,1712041295125000
-10.65,1712041295140625
-5.75,1712041295156250
0.63,1712041295171875
7.37,1712041295187500
13.28,1712041295203125
17.59,1712041295218750
20.07,1712041295234375
20.94,1712041295250000
20.58,1712041295265625
19.25,1712041295281250
17.14,1712041295296875
14.36,1712041295312500
11.2,1712041295328125
8.1,1712041295343750
5.62,1712041295359375
4.23,1712041295375000
4.16,1712041295390625
5.34,1712041295406250
7.38,1712041295421875
9.73,1712041295437500
11.82,1712041295453125
13.28,1712041295468750
13.93,1712041295484375
13.73,1712041295500000
12.73,1712041295515625
10.9,1712041295531250
8.22,1712041295546875
4.71,1712041295562500
0.59,1712041295578125
-3.68,1712041295593750
-7.57,1712041295609375
-10.6,1712041295625000
-12.7,1712041295640625
-14.13,1712041295656250
-15.36,1712041295671875
-16.7,1712041295687500
-17.99,1712041295703125
-18.67,1712041295718750
-17.98,1712041295734375
-15.38,1712041295750000
-10.82,1712041295765625
-4.81,1712041295781250
1.77,1712041295796875
7.97,1712041295812500
13.1,1712041295828125
16.85,1712041295843750
19.19,1712041295859375
20.3,1712041295875000
20.37,1712041295890625
19.56,1712041295906250
17.99,1712041295921875
15.83,1712041295937500
13.3,1712041295953125
10.73,1712041295968750
8.44,1712041295984375
6.72,1712041296000000
5.7,1712041296015625
5.37,1712041296031250
5.58,1712041296046875
6.07,1712041296062500
6.49,1712041296078125
6.47,1712041296093750
5.66,1712041296109375
3.85,1712041296125000
0.99,1712041296140625
-2.73,1712041296156250
-6.99,1712041296171875
-11.41,1712041296187500
-15.7,1712041296203125
-19.74,1712041296218750
-23.58,1712041296234375
-27.41,1712041296250000
-31.4,1712041296265625
-35.6,1712041296281250
-39.88,1712041296296875
-43.91,1712041296312500
-47.17,1712041296328125
-49.08,1712041296343750
-49.13,1712041296359375
-47.11,1712041296375000
-43.18,1712041296390625
-37.88,1712041296406250
-31.9,1712041296421875
-25.79,1712041296437500
-19.8,1712041296453125
-13.77,1712041296468750
-7.35,1712041296484375
-0.33,1712041296500000
7.2,1712041296515625
14.76,1712041296531250
21.62,1712041296546875
27.14,1712041296562500
31.06,1712041296578125
33.63,1712041296593750
35.56,1712041296609375
37.7,1712041296625000
40.78,1712041296640625
45.06,1712041296656250
50.21,1712041296671875
55.39,1712041296687500
59.49,1712041296703125
61.5,1712041296718750
60.89,1712041296734375
57.81,1712041296750000
53.21,1712041296765625
48.56,1712041296781250
45.4,1712041296796875
44.84,1712041296812500
47.08,1712041296828125
51.34,1712041296843750
56.06,1712041296859375
59.56,1712041296875000
60.66,1712041296890625
59.4,1712041296906250
57.19,1712041296921875
56.49,1712041296937500
59.84,1712041296953125
68.61,1712041296968750
81.87,1712041296984375
95.88,1712041297000000
104.96,1712041297015625
103.15,1712041297031250
86.66,1712041297046875
55.85,1712041297062500
15.89,1712041297078125
-24.4,1712041297093750
-54.9,1712041297109375
-67.04,1712041297125000
-56.33,1712041297140625
-23.59,1712041297156250
24.94,1712041297171875
79.12,1712041297187500
127.32,1712041297203125
159.16,1712041297218750
168.04,1712041297234375
152.32,1712041297250000
115.16,1712041297265625
62.85,1712041297281250
2.71,1712041297296875
-58.86,1712041297312500
-117.47,1712041297328125
-170.69,1712041297343750
-217.8,1712041297359375
-259.32,1712041297375000
-296.92,1712041297390625
-333.28,1712041297406250
-372.16,1712041297421875
-417.58,1712041297437500
-472.53,1712041297453125
-537.23,1712041297468750
-607.75,1712041297484375
-676.04,1712041297500000
-731.36,1712041297515625
-763.53,1712041297531250
-766.39,1712041297546875
-739.85,1712041297562500
-689.67,1712041297578125
-624.82,1712041297593750
-553.93,1712041297609375
-482.48,1712041297625000
-412.25,1712041297640625
-342.63,1712041297656250
-272.92,1712041297671875
-203.78,1712041297687500
-137.15,1712041297703125
-75.01,1712041297718750
-18.03,1712041297734375
34.87,1712041297750000
85.7,1712041297765625
136.18,1712041297781250
186.73,1712041297796875
236.37,1712041297812500
283.22,1712041297828125
325.65,1712041297843750
363.08,1712041297859375
396.33,1712041297875000
427.63,1712041297890625
460.07,1712041297906250
496.69,1712041297921875
539.24,1712041297937500
586.75,1712041297953125
634.94,1712041297968750
676.95,1712041297984375
705.49,1712041298000000
715.52,1712041298015625
706.03,1712041298031250
679.98,1712041298046875
642.58,1712041298062500
598.94,1712041298078125
552.56,1712041298093750
505.37,1712041298109375
458.85,1712041298125000
415.11,1712041298140625
377.04,1712041298156250
347.32,1712041298171875
326.96,1712041298187500
314.46,1712041298203125
305.94,1712041298218750
296.33,1712041298234375
280.76,1712041298250000
255.8,1712041298265625
220.05,1712041298281250
174.41,1712041298296875
121.78,1712041298312500
66.13,1712041298328125
11.47,1712041298343750
-39.42,1712041298359375
-85.68,1712041298375000
-128.17,1712041298390625
-168.9,1712041298406250
-210.4,1712041298421875
-255.18,1712041298437500
-305.26,1712041298453125
-361.25,1712041298468750
-420.98,1712041298484375
-478.71,1712041298500000
-525.78,1712041298515625
-552.89,1712041298531250
-553.46,1712041298546875
-526.2,1712041298562500
-475.79,1712041298578125
-410.86,1712041298593750
-340.62,1712041298609375
-271.62,1712041298625000
-206.25,1712041298640625
-143.36,1712041298656250
-80.21,1712041298671875
-14.73,1712041298687500
53.04,1712041298703125
120.64,1712041298718750
183.87,1712041298734375
238.02,1712041298750000
279.09,1712041298765625
304.77,1712041298781250
314.87,1712041298796875
311.19,1712041298812500
296.82,1712041298828125
275.44,1712041298843750
250.78,1712041298859375
226.09,1712041298875000
203.77,1712041298890625
184.95,1712041298906250
169.33,1712041298921875
155.36,1712041298937500
141.0,1712041298953125
124.77,1712041298968750
106.61,1712041298984375
87.97,1712041299000000
71.19,1712041299015625
58.3,1712041299031250
50.21,1712041299046875
46.4,1712041299062500
45.22,1712041299078125
44.53,1712041299093750
42.43,1712041299109375
37.68,1712041299125000
29.93,1712041299140625
19.75,1712041299156250
8.53,1712041299171875
-1.83,1712041299187500
-9.33,1712041299203125
-12.21,1712041299218750
-9.26,1712041299234375
-0.06,1712041299250000
14.47,1712041299265625
31.94,1712041299281250
48.39,1712041299296875
58.9,1712041299312500
58.63,1712041299328125
44.01,1712041299343750
13.72,1712041299359375
-30.89,1712041299375000
-85.89,1712041299390625
-145.12,1712041299406250
-200.92,1712041299421875
-245.11,1712041299437500
-270.57,1712041299453125
-272.71,1712041299468750
-250.85,1712041299484375
-208.32,1712041299500000
-151.27,1712041299515625
-86.57,1712041299531250
-19.53,1712041299546875
47.55,1712041299562500
115.4,1712041299578125
186.24,1712041299593750
261.43,1712041299609375
339.25,1712041299625000
414.03,1712041299640625
477.0,1712041299656250
518.92,1712041299671875
533.29,1712041299687500
518.74,1712041299703125
479.44,1712041299718750
423.27,1712041299734375
358.82,1712041299750000
292.47,1712041299765625
227.3,1712041299781250
163.87,1712041299796875
102.05,1712041299812500
42.64,1712041299828125
-12.45,1712041299843750
-61.24,1712041299859375
-103.15,1712041299875000
-139.83,1712041299890625
-174.66,1712041299906250
-211.37,1712041299921875
-252.39,1712041299937500
-298.02,1712041299953125
-346.33,1712041299968750
-394.25,1712041299984375
-439.12,1712041300000000
-479.77,1712041300015625
-516.84,1712041300031250
-552.36,1712041300046875
-588.51,1712041300062500
-626.65,1712041300078125
-667.09,1712041300093750
-709.61,1712041300109375
-754.03,1712041300125000
-800.04,1712041300140625
-846.14,1712041300156250
-888.45,1712041300171875
-920.31,1712041300187500
-933.54,1712041300203125
-921.07,1712041300218750
-879.68,1712041300234375
-811.28,1712041300250000
-722.26,1712041300265625
-621.03,1712041300281250
-515.35,1712041300296875
-410.49,1712041300312500
-309.21,1712041300328125
-212.56,1712041300343750
-120.99,1712041300359375
-34.73,1712041300375000
46.45,1712041300390625
123.8,1712041300406250
199.52,1712041300421875
275.67,1712041300437500
352.37,1712041300453125
426.26,1712041300468750
490.61,1712041300484375
537.13,1712041300500000
559.47,1712041300515625
556.16,1712041300531250
531.63,1712041300546875
494.59,1712041300562500
454.6,1712041300578125
418.74,1712041300593750
390.02,1712041300609375
367.99,1712041300625000
350.72,1712041300640625
336.7,1712041300656250
325.64,1712041300671875
317.92,1712041300687500
313.63,1712041300703125
311.72,1712041300718750
309.88,1712041300734375
304.92,1712041300750000
293.73,1712041300765625
274.44,1712041300781250
247.71,1712041300796875
217.76,1712041300812500
191.86,1712041300828125
178.22,1712041300843750
183.73,1712041300859375
211.62,1712041300875000
260.12,1712041300890625
322.71,1712041300906250
389.92,1712041300921875
451.93,1712041300937500
500.29,1712041300953125
529.34,1712041300968750
536.17,1712041300984375
521.05,1712041301000000
487.39,1712041301015625
440.73,1712041301031250
387.49,1712041301046875
333.37,1712041301062500
282.56,1712041301078125
236.83,1712041301093750
195.88,1712041301109375
156.9,1712041301125000
117.11,1712041301140625
75.32,1712041301156250
32.7,1712041301171875
-7.96,1712041301187500
-43.4,1712041301203125
-70.38,1712041301218750
-87.69,1712041301234375
-96.11,1712041301250000
-101.72,1712041301265625
-110.91,1712041301281250
-127.36,1712041301296875
-151.82,1712041301312500
-183.23,1712041301328125
-219.72,1712041301343750
-257.09,1712041301359375
-290.45,1712041301375000
-312.85,1712041301390625
-323.92,1712041301406250
-323.93,1712041301421875
-312.5,1712041301437500
-289.99,1712041301453125
-259.57,1712041301468750
-227.5,1712041301484375
-198.0,1712041301500000
-175.72,1712041301515625
-161.86,1712041301531250
-166.34,1712041301546875
-195.4,1712041301562500
-246.5,1712041301578125
-309.44,1712041301593750
-372.02,1712041301609375
-425.73,1712041301625000
-463.46,1712041301640625
-486.95,1712041301656250
-500.01,1712041301671875
-521.36,1712041301687500
-565.69,1712041301703125
-635.25,1712041301718750
-721.8,1712041301734375
-814.22,1712041301750000
-906.08,1712041301765625
-991.67,1712041301781250
-1073.76,1712041301796875
-1064.61,1712041301812500
-916.94,1712041301828125
-651.14,1712041301843750
-342.31,1712041301859375
-61.88,1712041301875000
158.41,1712041301890625
291.74,1712041301906250
370.13,1712041301921875
415.58,1712041301937500
440.82,1712041301953125
438.12,1712041301968750
398.81,1712041301984375
334.52,1712041302000000
259.03,1712041302015625
185.32,1712041302031250
119.46,1712041302046875
65.39,1712041302062500
17.69,1712041302078125
-27.73,1712041302093750
-81.96,1712041302109375
-148.44,1712041302125000
-218.36,1712041302140625
-275.8,1712041302156250
-306.06,1712041302171875
-303.91,1712041302187500
-270.76,1712041302203125
-218.67,1712041302218750
-159.7,1712041302234375
-108.78,1712041302250000
-74.07,1712041302265625
-54.52,1712041302281250
-44.07,1712041302296875
-36.09,1712041302312500
-27.57,1712041302328125
-16.39,1712041302343750
-4.2,1712041302359375
8.53,1712041302375000
19.18,1712041302390625
26.28,1712041302406250
30.31,1712041302421875
32.44,1712041302437500
33.75,1712041302453125
34.38,1712041302468750
35.03,1712041302484375
35.42,1712041302500000
36.11,1712041302515625
37.02,1712041302531250
38.17,1712041302546875
39.82,1712041302562500
41.93,1712041302578125
44.23,1712041302593750
46.12,1712041302609375
47.48,1712041302625000
48.18,1712041302640625
48.73,1712041302656250
50.06,1712041302671875
52.99,1712041302687500
57.89,1712041302703125
64.41,1712041302718750
71.83,1712041302734375
79.31,1712041302750000
86.23,1712041302765625
92.43,1712041302781250
98.2,1712041302796875
104.2,1712041302812500
111.17,1712041302828125
119.6,1712041302843750
129.42,1712041302859375
140.04,1712041302875000
150.41,1712041302890625
159.48,1712041302906250
166.56,1712041302921875
171.64,1712041302937500
175.46,1712041302953125
179.25,1712041302968750
184.21,1712041302984375
191.01,1712041303000000
199.48,1712041303015625
208.71,1712041303031250
217.54,1712041303046875
225.3,1712041303062500
232.17,1712041303078125
239.4,1712041303093750
248.81,1712041303109375
262.07,1712041303125000
280.12,1712041303140625
302.85,1712041303156250
329.07,1712041303171875
356.86,1712041303187500
383.6,1712041303203125
405.95,1712041303218750
420.16,1712041303234375
422.86,1712041303250000
412.07,1712041303265625
387.99,1712041303281250
353.15,1712041303296875
311.56,1712041303312500
267.57,1712041303328125
224.62,1712041303343750
184.76,1712041303359375
149.09,1712041303375000
118.73,1712041303390625
95.56,1712041303406250
82.09,1712041303421875
80.44,1712041303437500
90.63,1712041303453125
109.82,1712041303468750
132.54,1712041303484375
152.42,1712041303500000
164.47,1712041303515625
166.92,1712041303531250
161.44,1712041303546875
152.24,1712041303562500
143.81,1712041303578125
138.96,1712041303593750
137.82,1712041303609375
138.17,1712041303625000
136.84,1712041303640625
131.37,1712041303656250
120.67,1712041303671875
105.3,1712041303687500
86.86,1712041303703125
67.1,1712041303718750
47.5,1712041303734375
29.39,1712041303750000
14.54,1712041303765625
5.71,1712041303781250
6.6,1712041303796875
20.68,1712041303812500
49.25,1712041303828125
89.99,1712041303843750
136.43,1712041303859375
179.56,1712041303875000
210.71,1712041303890625
224.16,1712041303906250
218.47,1712041303921875
196.35,1712041303937500
162.93,1712041303953125
124.65,1712041303968750
88.08,1712041303984375
59.01,1712041304000000
41.45,1712041304015625
36.6,1712041304031250
42.23,1712041304046875
54.14,1712041304062500
68.32,1712041304078125
82.48,1712041304093750
96.34,1712041304109375
110.09,1712041304125000
122.76,1712041304140625
131.25,1712041304156250
131.56,1712041304171875
121.1,1712041304187500
101.35,1712041304203125
78.14,1712041304218750
59.16,1712041304234375
50.12,1712041304250000
51.87,1712041304265625
60.55,1712041304281250
69.96,1712041304296875
75.1,1712041304312500
73.44,1712041304328125
66.27,1712041304343750
57.29,1712041304359375
50.31,1712041304375000
47.17,1712041304390625
47.08,1712041304406250
47.81,1712041304421875
47.11,1712041304437500
44.04,1712041304453125
36.9,1712041304468750
25.46,1712041304484375
11.17,1712041304500000
-3.5,1712041304515625
-16.87,1712041304531250
-28.96,1712041304546875
-40.48,1712041304562500
-52.91,1712041304578125
-66.98,1712041304593750
-87.05,1712041304609375
-115.46,1712041304625000
-150.37,1712041304640625
-186.45,1712041304656250
-218.62,1712041304671875
-244.75,1712041304687500
-264.61,1712041304703125
-280.93,1712041304718750
-296.11,1712041304734375
-318.76,1712041304750000
-354.16,1712041304765625
-400.4,1712041304781250
-449.39,1712041304796875
-492.94,1712041304812500
-527.34,1712041304828125
-552.03,1712041304843750
-571.45,1712041304859375
-590.14,1712041304875000
-621.51,1712041304890625
-675.8,1712041304906250
-754.4,1712041304921875
-849.71,1712041304937500
-950.76,1712041304953125
-1047.79,1712041304968750
-1130.68,1712041304984375
-1193.96,1712041305000000
-1174.77,1712041305015625
-1041.82,1712041305031250
-817.77,1712041305046875
-566.99,1712041305062500
-347.2,1712041305078125
-181.94,1712041305093750
-78.61,1712041305109375
-10.59,1712041305125000
39.35,1712041305140625
79.98,1712041305156250
105.59,1712041305171875
111.44,1712041305187500
101.37,1712041305203125
86.05,1712041305218750
76.51,1712041305234375
78.17,1712041305250000
92.5,1712041305265625
114.36,1712041305281250
138.63,1712041305296875
154.63,1712041305312500
155.73,1712041305328125
143.24,1712041305343750
125.3,1712041305359375
110.76,1712041305375000
104.31,1712041305390625
107.71,1712041305406250
117.67,1712041305421875
130.84,1712041305437500
140.31,1712041305453125
141.52,1712041305468750
134.73,1712041305484375
124.45,1712041305500000
115.74,1712041305515625
111.34,1712041305531250
112.43,1712041305546875
117.27,1712041305562500
124.09,1712041305578125
129.38,1712041305593750
130.56,1712041305609375
127.25,1712041305625000
121.14,1712041305640625
114.49,1712041305656250
108.92,1712041305671875
105.8,1712041305687500
105.34,1712041305703125
107.66,1712041305718750
111.78,1712041305734375
116.33,1712041305750000
120.11,1712041305765625
122.52,1712041305781250
123.52,1712041305796875
123.72,1712041305812500
124.64,1712041305828125
128.02,1712041305843750
135.56,1712041305859375
148.07,1712041305875000
164.92,1712041305890625
183.94,1712041305906250
202.26,1712041305921875
217.28,1712041305937500
227.84,1712041305953125
235.02,1712041305968750
241.94,1712041305984375
253.14,1712041306000000
272.7,1712041306015625
302.14,1712041306031250
338.67,1712041306046875
374.77,1712041306062500
399.32,1712041306078125
400.66,1712041306093750
370.59,1712041306109375
307.96,1712041306125000
220.2,1712041306140625
122.07,1712041306156250
31.51,1712041306171875
-35.85,1712041306187500
-70.86,1712041306203125
-72.84,1712041306218750
-48.6,1712041306234375
-9.35,1712041306250000
33.16,1712041306265625
69.82,1712041306281250
96.18,1712041306296875
112.58,1712041306312500
122.51,1712041306328125
130.01,1712041306343750
136.71,1712041306359375
140.38,1712041306375000
135.87,1712041306390625
118.01,1712041306406250
85.38,1712041306421875
42.56,1712041306437500
-0.68,1712041306453125
-32.71,1712041306468750
-44.79,1712041306484375
-34.6,1712041306500000
-6.92,1712041306515625
28.18,1712041306531250
59.0,1712041306546875
75.74,1712041306562500
73.03,1712041306578125
50.96,1712041306593750
14.57,1712041306609375
-27.79,1712041306625000
-67.35,1712041306640625
-97.39,1712041306656250
-114.84,1712041306671875
-120.99,1712041306687500
-120.33,1712041306703125
-119.12,1712041306718750
-123.56,1712041306734375
-138.04,1712041306750000
-163.53,1712041306765625
-197.01,1712041306781250
-231.81,1712041306796875
-260.08,1712041306812500
-276.04,1712041306828125
-278.3,1712041306843750
-270.05,1712041306859375
-256.57,1712041306875000
-241.82,1712041306890625
-226.16,1712041306906250
-206.94,1712041306921875
-181.32,1712041306937500
-149.77,1712041306953125
-117.13,1712041306968750
-90.53,1712041306984375
-75.47,1712041307000000
-72.26,1712041307015625
-75.63,1712041307031250
-77.44,1712041307046875
-70.78,1712041307062500
-53.29,1712041307078125
-27.57,1712041307093750
0.93,1712041307109375
27.52,1712041307125000
50.99,1712041307140625
74.18,1712041307156250
102.53,1712041307171875
140.86,1712041307187500
190.19,1712041307203125
246.01,1712041307218750
299.1,1712041307234375
338.51,1712041307250000
355.78,1712041307265625
348.47,1712041307281250
320.97,1712041307296875
282.27,1712041307312500
241.62,1712041307328125
204.68,1712041307343750
172.31,1712041307359375
142.37,1712041307375000
113.07,1712041307390625
85.41,1712041307406250
63.02,1712041307421875
49.44,1712041307437500
45.0,1712041307453125
45.74,1712041307468750
45.24,1712041307484375
38.4,1712041307500000
24.65,1712041307515625
8.52,1712041307531250
-3.17,1712041307546875
-5.3,1712041307562500
2.35,1712041307578125
15.25,1712041307593750
26.74,1712041307609375
31.49,1712041307625000
27.52,1712041307640625
15.38,1712041307656250
-3.88,1712041307671875
-30.3,1712041307687500
-64.51,1712041307703125
-105.42,1712041307718750
-148.13,1712041307734375
-184.39,1712041307750000
-206.28,1712041307765625
-210.75,1712041307781250
-202.03,1712041307796875
-189.42,1712041307812500
-181.62,1712041307828125
-181.36,1712041307843750
-183.63,1712041307859375
-179.22,1712041307875000
-160.95,1712041307890625
-128.42,1712041307906250
-88.48,1712041307921875
-51.2,1712041307937500
-24.16,1712041307953125
-8.49,1712041307968750
1.3,1712041307984375
13.98,1712041308000000
37.32,1712041308015625
74.7,1712041308031250
123.79,1712041308046875
177.43,1712041308062500
225.86,1712041308078125
259.79,1712041308093750
273.22,1712041308109375
265.14,1712041308125000
239.78,1712041308140625
204.74,1712041308156250
168.13,1712041308171875
135.75,1712041308187500
109.49,1712041308203125
87.42,1712041308218750
65.42,1712041308234375
39.67,1712041308250000
8.81,1712041308265625
-24.94,1712041308281250
-56.6,1712041308296875
-80.82,1712041308312500
-94.61,1712041308328125
-99.11,1712041308343750
-99.41,1712041308359375
-102.41,1712041308375000
-113.74,1712041308390625
-135.16,1712041308406250
-164.08,1712041308421875
-194.97,1712041308437500
-221.87,1712041308453125
-240.61,1712041308468750
-249.74,1712041308484375
-250.29,1712041308500000
-244.73,1712041308515625
-235.81,1712041308531250
-225.86,1712041308546875
-216.56,1712041308562500
-209.27,1712041308578125
-205.33,1712041308593750
-206.1,1712041308609375
-212.57,1712041308625000
-224.25,1712041308640625
-238.53,1712041308656250
-250.69,1712041308671875
-255.39,1712041308687500
-248.79,1712041308703125
-230.27,1712041308718750
-202.78,1712041308734375
-171.32,1712041308750000
-140.91,1712041308765625
-114.64,1712041308781250
-93.23,1712041308796875
-75.72,1712041308812500
-60.8,1712041308828125
-47.51,1712041308843750
-35.31,1712041308859375
-23.58,1712041308875000
-11.12,1712041308890625
3.73,1712041308906250
22.54,1712041308921875
46.08,1712041308937500
73.82,1712041308953125
103.89,1712041308968750
134.03,1712041308984375
162.49,1712041309000000
189.08,1712041309015625
215.8,1712041309031250
246.48,1712041309046875
285.56,1712041309062500
335.79,1712041309078125
396.27,1712041309093750
461.04,1712041309109375
520.02,1712041309125000
561.68,1712041309140625
576.81,1712041309156250
561.8,1712041309171875
520.06,1712041309187500
460.88,1712041309203125
396.48,1712041309218750
337.95,1712041309234375
292.14,1712041309250000
260.27,1712041309265625
238.44,1712041309281250
219.94,1712041309296875
197.65,1712041309312500
166.58,1712041309328125
125.29,1712041309343750
76.49,1712041309359375
26.48,1712041309375000
-16.5,1712041309390625
-44.62,1712041309406250
-53.1,1712041309421875
-41.93,1712041309437500
-16.35,1712041309453125
14.59,1712041309468750
41.47,1712041309484375
57.77,1712041309500000
62.09,1712041309515625
57.65,1712041309531250
49.64,1712041309546875
41.94,1712041309562500
35.12,1712041309578125
27.42,1712041309593750
17.1,1712041309609375
5.01,1712041309625000
-5.45,1712041309640625
-10.61,1712041309656250
-10.02,1712041309671875
-7.98,1712041309687500
-11.95,1712041309703125
-28.05,1712041309718750
-56.62,1712041309734375
-90.76,1712041309750000
-118.96,1712041309765625
-130.86,1712041309781250
-122.2,1712041309796875
-97.07,1712041309812500
-65.65,1712041309828125
-39.6,1712041309843750
-27.28,1712041309859375
-31.04,1712041309875000
-47.57,1712041309890625
-69.99,1712041309906250
-90.67,1712041309921875
-103.44,1712041309937500
-105.0,1712041309953125
-95.46,1712041309968750
-77.77,1712041309984375
-56.72,1712041310000000
-37.12,1712041310015625
-22.17,1712041310031250
-12.57,1712041310046875
-6.72,1712041310062500
-1.87,1712041310078125
4.53,1712041310093750
13.86,1712041310109375
26.43,1712041310125000
41.88,1712041310140625
59.71,1712041310156250
78.88,1712041310171875
97.58,1712041310187500
112.82,1712041310203125
121.17,1712041310218750
120.25,1712041310234375
110.45,1712041310250000
95.99,1712041310265625
83.98,1712041310281250
82.05,1712041310296875
95.14,1712041310312500
122.96,1712041310328125
159.4,1712041310343750
194.48,1712041310359375
217.89,1712041310375000
222.77,1712041310390625
208.2,1712041310406250
179.35,1712041310421875
145.5,1712041310437500
116.55,1712041310453125
99.38,1712041310468750
95.73,1712041310484375
102.07,1712041310500000
111.43,1712041310515625
116.78,1712041310531250
113.72,1712041310546875
101.59,1712041310562500
82.61,1712041310578125
59.61,1712041310593750
33.83,1712041310609375
4.54,1712041310625000
-29.57,1712041310640625
-68.13,1712041310656250
-107.71,1712041310671875
-142.47,1712041310687500
-166.42,1712041310703125
-176.13,1712041310718750
-172.07,1712041310734375
-158.44,1712041310750000
-141.44,1712041310765625
-127.59,1712041310781250
-122.56,1712041310796875
-130.33,1712041310812500
-152.15,1712041310828125
-185.35,1712041310843750
-222.89,1712041310859375
-254.59,1712041310875000
-270.36,1712041310890625
-264.34,1712041310906250
-237.88,1712041310921875
-199.51,1712041310937500
-161.68,1712041310953125
-135.79,1712041310968750
-128.12,1712041310984375
-138.42,1712041311000000
-161.35,1712041311015625
-189.28,1712041311031250
-214.68,1712041311046875
-231.72,1712041311062500
-236.68,1712041311078125
-228.31,1712041311093750
-208.11,1712041311109375
-180.19,1712041311125000
-150.4,1712041311140625
-124.48,1712041311156250
-106.28,1712041311171875
-97.08,1712041311187500
-96.25,1712041311203125
-102.62,1712041311218750
-115.5,1712041311234375
-134.55,1712041311250000
-158.26,1712041311265625
-182.54,1712041311281250
-200.83,1712041311296875
-205.97,1712041311312500
-193.19,1712041311328125
-162.3,1712041311343750
-118.11,1712041311359375
-68.56,1712041311375000
-21.8,1712041311390625
16.33,1712041311406250
43.56,1712041311421875
61.2,1712041311437500
72.75,1712041311453125
82.27,1712041311468750
92.78,1712041311484375
105.71,1712041311500000
121.14,1712041311515625
138.65,1712041311531250
158.34,1712041311546875
180.32,1712041311562500
203.85,1712041311578125
226.13,1712041311593750
241.94,1712041311609375
245.16,1712041311625000
231.32,1712041311640625
200.15,1712041311656250
156.49,1712041311671875
108.97,1712041311687500
66.55,1712041311703125
35.19,1712041311718750
15.74,1712041311734375
4.1,1712041311750000
-6.35,1712041311765625
-21.53,1712041311781250
-44.27,1712041311796875
-73.19,1712041311812500
-103.52,1712041311828125
-129.19,1712041311843750
-145.26,1712041311859375
-149.9,1712041311875000
-144.74,1712041311890625
-133.87,1712041311906250
-121.92,1712041311921875
-112.48,1712041311937500
-107.62,1712041311953125
-108.57,1712041311968750
-116.48,1712041311984375
-132.39,1712041312000000
-156.32,1712041312015625
-186.14,1712041312031250
-217.3,1712041312046875
-244.64,1712041312062500
-264.68,1712041312078125
-277.21,1712041312093750
-285.13,1712041312109375
-292.2,1712041312125000
-300.12,1712041312140625
-306.97,1712041312156250
-307.76,1712041312171875
-297.66,1712041312187500
-275.17,1712041312203125
-243.35,1712041312218750
-208.29,1712041312234375
-175.81,1712041312250000
-148.77,1712041312265625
-126.19,1712041312281250
-104.82,1712041312296875
-81.18,1712041312312500
-53.86,1712041312328125
-24.01,1712041312343750
5.86,1712041312359375
33.68,1712041312375000
58.87,1712041312390625
82.28,1712041312406250
105.46,1712041312421875
129.87,1712041312437500
157.72,1712041312453125
189.46,1712041312468750
223.07,1712041312484375
254.49,1712041312500000
279.73,1712041312515625
296.9,1712041312531250
307.11,1712041312546875
313.31,1712041312562500
318.04,1712041312578125
324.68,1712041312593750
333.29,1712041312609375
341.09,1712041312625000
344.54,1712041312640625
342.14,1712041312656250
335.44,1712041312671875
327.18,1712041312687500
318.79,1712041312703125
309.43,1712041312718750
301.87,1712041312734375
298.25,1712041312750000
299.43,1712041312765625
303.65,1712041312781250
307.32,1712041312796875
306.68,1712041312812500
299.32,1712041312828125
285.47,1712041312843750
268.47,1712041312859375
259.97,1712041312875000
269.39,1712041312890625
299.55,1712041312906250
344.55,1712041312921875
393.77,1712041312937500
437.52,1712041312953125
470.33,1712041312968750
491.11,1712041312984375
463.16,1712041313000000
368.65,1712041313015625
214.72,1712041313031250
32.35,1712041313046875
-144.39,1712041313062500
-294.59,1712041313078125
-411.68,1712041313093750
-497.25,1712041313109375
-556.02,1712041313125000
-593.52,1712041313140625
-607.81,1712041313156250
-601.46,1712041313171875
-579.13,1712041313187500
-548.52,1712041313203125
-517.1,1712041313218750
-488.92,1712041313234375
-464.24,1712041313250000
-441.18,1712041313265625
-417.46,1712041313281250
-386.58,1712041313296875
-347.64,1712041313312500
-302.33,1712041313328125
-255.53,1712041313343750
-212.12,1712041313359375
-174.27,1712041313375000
-141.2,1712041313390625
-110.75,1712041313406250
-81.12,1712041313421875
-48.9,1712041313437500
-13.02,1712041313453125
25.64,1712041313468750
64.23,1712041313484375
100.16,1712041313500000
132.8,1712041313515625
163.47,1712041313531250
194.42,1712041313546875
228.07,1712041313562500
267.8,1712041313578125
315.32,1712041313593750
369.8,1712041313609375
426.49,1712041313625000
477.54,1712041313640625
514.19,1712041313656250
529.42,1712041313671875
520.23,1712041313687500
488.56,1712041313703125
440.98,1712041313718750
385.49,1712041313734375
329.07,1712041313750000
275.68,1712041313765625
226.38,1712041313781250
180.87,1712041313796875
138.7,1712041313812500
99.73,1712041313828125
63.67,1712041313843750
29.33,1712041313859375
-5.76,1712041313875000
-44.62,1712041313890625
-89.63,1712041313906250
-141.01,1712041313921875
-195.94,1712041313937500
-248.73,1712041313953125
-292.45,1712041313968750
-321.35,1712041313984375
-333.0,1712041314000000
-329.22,1712041314015625
-315.04,1712041314031250
-296.42,1712041314046875
-277.65,1712041314062500
-260.02,1712041314078125
-242.47,1712041314093750
-223.48,1712041314109375
-203.23,1712041314125000
-184.27,1712041314140625
-170.67,1712041314156250
-165.87,1712041314171875
-170.78,1712041314187500
-183.16,1712041314203125
-198.37,1712041314218750
-211.31,1712041314234375
-218.01,1712041314250000
-216.68,1712041314265625
-207.8,1712041314281250
-193.76,1712041314296875
-178.55,1712041314312500
-167.28,1712041314328125
-165.17,1712041314343750
-175.87,1712041314359375
-199.5,1712041314375000
-231.56,1712041314390625
-263.66,1712041314406250
-286.19,1712041314421875
-291.7,1712041314437500
-277.53,1712041314453125
-246.31,1712041314468750
-204.03,1712041314484375
-157.14,1712041314500000
-110.07,1712041314515625
-64.42,1712041314531250
-19.72,1712041314546875
25.01,1712041314562500
70.1,1712041314578125
114.77,1712041314593750
157.57,1712041314609375
196.89,1712041314625000
231.27,1712041314640625
259.18,1712041314656250
279.0,1712041314671875
289.03,1712041314687500
287.83,1712041314703125
274.82,1712041314718750
250.98,1712041314734375
219.23,1712041314750000
184.33,1712041314765625
152.24,1712041314781250
128.89,1712041314796875
118.62,1712041314812500
122.91,1712041314828125
139.8,1712041314843750
164.47,1712041314859375
190.68,1712041314875000
212.57,1712041314890625
225.98,1712041314906250
229.06,1712041314921875
221.9,1712041314937500
205.9,1712041314953125
183.06,1712041314968750
155.63,1712041314984375
126.08,1712041315000000
97.08,1712041315015625
71.2,1712041315031250
50.4,1712041315046875
35.58,1712041315062500
26.4,1712041315078125
21.46,1712041315093750
18.77,1712041315109375
16.24,1712041315125000
11.93,1712041315140625
4.35,1712041315156250
-7.39,1712041315171875
-23.09,1712041315187500
-41.18,1712041315203125
-58.86,1712041315218750
-72.87,1712041315234375
-80.54,1712041315250000
-80.98,1712041315265625
-75.43,1712041315281250
-66.78,1712041315296875
-58.4,1712041315312500
-52.79,1712041315328125
-50.84,1712041315343750
-51.95,1712041315359375
-54.85,1712041315375000
-58.56,1712041315390625
-62.94,1712041315406250
-68.45,1712041315421875
-75.56,1712041315437500
-84.23,1712041315453125
-93.63,1712041315468750
-102.44,1712041315484375
-109.43,1712041315500000
-113.84,1712041315515625
-115.75,1712041315531250
-115.92,1712041315546875
-115.51,1712041315562500
-115.49,1712041315578125
-116.25,1712041315593750
-117.35,1712041315609375
-117.71,1712041315625000
-116.03,1712041315640625
-111.22,1712041315656250
-102.44,1712041315671875
-88.73,1712041315687500
-68.8,1712041315703125
-41.3,1712041315718750
-5.87,1712041315734375
35.53,1712041315750000
78.2,1712041315765625
115.48,1712041315781250
140.86,1712041315796875
150.16,1712041315812500
142.92,1712041315828125
122.38,1712041315843750
94.11,1712041315859375
64.29,1712041315875000
38.21,1712041315890625
19.2,1712041315906250
8.26,1712041315921875
4.24,1712041315937500
4.38,1712041315953125
5.46,1712041315968750
5.05,1712041315984375
2.37,1712041316000000
-1.69,1712041316015625
-5.37,1712041316031250
-7.33,1712041316046875
-7.37,1712041316062500
-6.45,1712041316078125
-5.85,1712041316093750
-6.39,1712041316109375
-8.16,1712041316125000
-10.91,1712041316140625
-14.69,1712041316156250
-20.13,1712041316171875
-27.96,1712041316187500
-38.37,1712041316203125
-50.59,1712041316218750
-63.44,1712041316234375
-76.17,1712041316250000
-89.45,1712041316265625
-105.44,1712041316281250
-126.72,1712041316296875
-154.61,1712041316312500
-187.72,1712041316328125
-221.96,1712041316343750
-252.31,1712041316359375
-275.29,1712041316375000
-290.86,1712041316390625
-302.18,1712041316406250
-313.41,1712041316421875
-326.7,1712041316437500
-340.37,1712041316453125
-349.35,1712041316468750
-347.69,1712041316484375
-331.59,1712041316500000
-301.18,1712041316515625
-260.09,1712041316531250
-213.45,1712041316546875
-165.45,1712041316562500
-118.19,1712041316578125
-71.83,1712041316593750
-26.14,1712041316609375
18.42,1712041316625000
60.43,1712041316640625
98.42,1712041316656250
131.95,1712041316671875
162.48,1712041316687500
193.23,1712041316703125
227.92,1712041316718750
268.91,1712041316734375
315.67,1712041316750000
364.14,1712041316765625
407.76,1712041316781250
439.54,1712041316796875
454.71,1712041316812500
452.37,1712041316828125
435.72,1712041316843750
410.58,1712041316859375
383.11,1712041316875000
357.74,1712041316890625
336.23,1712041316906250
318.09,1712041316921875
301.74,1712041316937500
285.71,1712041316953125
269.3,1712041316968750
252.55,1712041316984375
235.78,1712041317000000
219.12,1712041317015625
202.25,1712041317031250
184.43,1712041317046875
164.85,1712041317062500
142.94,1712041317078125
118.8,1712041317093750
93.2,1712041317109375
67.4,1712041317125000
42.66,1712041317140625
19.85,1712041317156250
-0.77,1712041317171875
-19.43,1712041317187500
-36.54,1712041317203125
-52.37,1712041317218750
-66.87,1712041317234375
-79.77,1712041317250000
-90.72,1712041317265625
-99.54,1712041317281250
-106.32,1712041317296875
-111.45,1712041317312500
-115.44,1712041317328125
-118.52,1712041317343750
-120.39,1712041317359375
-120.02,1712041317375000
-116.06,1712041317390625
-107.5,1712041317406250
-94.38,1712041317421875
-78.14,1712041317437500
-61.14,1712041317453125
-45.89,1712041317468750
-34.06,1712041317484375
-25.92,1712041317500000
-20.46,1712041317515625
-15.89,1712041317531250
-10.35,1712041317546875
-2.42,1712041317562500
8.47,1712041317578125
21.88,1712041317593750
36.25,1712041317609375
49.11,1712041317625000
57.59,1712041317640625
59.25,1712041317656250
52.96,1712041317671875
39.51,1712041317687500
21.68,1712041317703125
3.76,1712041317718750
-9.48,1712041317734375
-13.89,1712041317750000
-6.94,1712041317765625
11.61,1712041317781250
39.72,1712041317796875
73.67,1712041317812500
109.12,1712041317828125
142.29,1712041317843750
170.8,1712041317859375
193.99,1712041317875000
212.67,1712041317890625
228.71,1712041317906250
244.33,1712041317921875
261.55,1712041317937500
281.38,1712041317953125
303.16,1712041317968750
324.32,1712041317984375
341.01,1712041318000000
349.31,1712041318015625
346.89,1712041318031250
334.03,1712041318046875
313.61,1712041318062500
289.98,1712041318078125
267.42,1712041318093750
248.81,1712041318109375
235.28,1712041318125000
226.55,1712041318140625
221.8,1712041318156250
220.14,1712041318171875
220.76,1712041318187500
222.19,1712041318203125
222.81,1712041318218750
221.19,1712041318234375
216.45,1712041318250000
208.39,1712041318265625
197.34,1712041318281250
183.95,1712041318296875
168.95,1712041318312500
152.93,1712041318328125
135.64,1712041318343750
116.65,1712041318359375
95.86,1712041318375000
73.7,1712041318390625
50.97,1712041318406250
28.58,1712041318421875
7.32,1712041318437500
-12.33,1712041318453125
-30.27,1712041318468750
-48.0,1712041318484375
-66.89,1712041318500000
-87.37,1712041318515625
-108.67,1712041318531250
-129.46,1712041318546875
-148.63,1712041318562500
-165.56,1712041318578125
-180.14,1712041318593750
-192.57,1712041318609375
-206.61,1712041318625000
-224.87,1712041318640625
-247.13,1712041318656250
-270.09,1712041318671875
-289.58,1712041318687500
-302.84,1712041318703125
-309.26,1712041318718750
-310.0,1712041318734375
-307.12,1712041318750000
-309.85,1712041318765625
-324.9,1712041318781250
-352.84,1712041318796875
-387.83,1712041318812500
-421.92,1712041318828125
-449.7,1712041318843750
-469.52,1712041318859375
-482.64,1712041318875000
-491.63,1712041318890625
-510.16,1712041318906250
-547.88,1712041318921875
-604.9,1712041318937500
-671.68,1712041318953125
-735.95,1712041318968750
-789.79,1712041318984375
-831.19,1712041319000000
-862.66,1712041319015625
-888.78,1712041319031250
-929.35,1712041319046875
-999.99,1712041319062500
-1104.55,1712041319078125
-1233.11,1712041319093750
-1368.93,1712041319109375
-1495.84,1712041319125000
-1600.32,1712041319140625
-1672.67,1712041319156250
-1616.35,1712041319171875
-1383.11,1712041319187500
-995.16,1712041319203125
-539.21,1712041319218750
-110.18,1712041319234375
236.34,1712041319250000
489.34,1712041319265625
664.9,1712041319281250
785.99,1712041319296875
871.86,1712041319312500
920.27,1712041319328125
927.2,1712041319343750
896.18,1712041319359375
843.42,1712041319375000
787.97,1712041319390625
743.53,1712041319406250
717.64,1712041319421875
711.88,1712041319437500
724.75,1712041319453125
742.63,1712041319468750
754.71,1712041319484375
758.36,1712041319500000
759.46,1712041319515625
765.87,1712041319531250
769.65,1712041319546875
759.44,1712041319562500
725.54,1712041319578125
667.91,1712041319593750
590.12,1712041319609375
501.98,1712041319625000
415.03,1712041319640625
338.7,1712041319656250
276.66,1712041319671875
226.78,1712041319687500
186.33,1712041319703125
153.39,1712041319718750
126.73,1712041319734375
102.17,1712041319750000
75.09,1712041319765625
41.93,1712041319781250
1.49,1712041319796875
-45.96,1712041319812500
-100.28,1712041319828125
-154.71,1712041319843750
-204.92,1712041319859375
-247.3,1712041319875000
-279.22,1712041319890625
-297.31,1712041319906250
-297.79,1712041319921875
-278.58,1712041319937500
-241.79,1712041319953125
-194.75,1712041319968750
-146.75,1712041319984375
-106.9,1712041320000000
-79.64,1712041320015625
-63.72,1712041320031250
-54.35,1712041320046875
-46.0,1712041320062500
-35.2,1712041320078125
-20.17,1712041320093750
-1.29,1712041320109375
19.84,1712041320125000
38.87,1712041320140625
49.55,1712041320156250
45.02,1712041320171875
20.59,1712041320187500
-22.93,1712041320203125
-77.72,1712041320218750
-130.99,1712041320234375
-169.85,1712041320250000
-186.57,1712041320265625
-181.98,1712041320281250
-163.64,1712041320296875
-141.27,1712041320312500
-122.01,1712041320328125
-107.79,1712041320343750
-96.36,1712041320359375
-83.96,1712041320375000
-67.73,1712041320390625
-47.32,1712041320406250
-24.56,1712041320421875
-1.53,1712041320437500
21.32,1712041320453125
45.39,1712041320468750
73.04,1712041320484375
106.33,1712041320500000
146.48,1712041320515625
193.67,1712041320531250
247.17,1712041320546875
305.03,1712041320562500
364.15,1712041320578125
419.66,1712041320593750
465.05,1712041320609375
493.47,1712041320625000
500.26,1712041320640625
485.0,1712041320656250
451.49,1712041320671875
406.14,1712041320687500
355.02,1712041320703125
302.28,1712041320718750
249.39,1712041320734375
195.21,1712041320750000
137.07,1712041320765625
72.82,1712041320781250
2.27,1712041320796875
-72.39,1712041320812500
-146.24,1712041320828125
-213.07,1712041320843750
-266.28,1712041320859375
-299.65,1712041320875000
-308.36,1712041320890625
-294.25,1712041320906250
-265.72,1712041320921875
-232.85,1712041320937500
-202.84,1712041320953125
-175.45,1712041320968750
-148.26,1712041320984375
-118.27,1712041321000000
-82.65,1712041321015625
-39.81,1712041321031250
11.29,1712041321046875
71.8,1712041321062500
143.2,1712041321078125
220.71,1712041321093750
296.52,1712041321109375
359.72,1712041321125000
399.45,1712041321140625
407.77,1712041321156250
382.51,1712041321171875
328.34,1712041321187500
256.15,1712041321203125
180.3,1712041321218750
113.85,1712041321234375
65.28,1712041321250000
36.28,1712041321265625
23.61,1712041321281250
21.66,1712041321296875
25.79,1712041321312500
33.26,1712041321328125
42.09,1712041321343750
50.16,1712041321359375
54.52,1712041321375000
52.91,1712041321390625
44.67,1712041321406250
31.93,1712041321421875
17.87,1712041321437500
6.06,1712041321453125
-1.17,1712041321468750
-4.7,1712041321484375
-8.13,1712041321500000
-16.87,1712041321515625
-36.06,1712041321531250
-69.81,1712041321546875
-114.07,1712041321562500
-163.45,1712041321578125
-209.32,1712041321593750
-240.34,1712041321609375
-245.58,1712041321625000
-218.21,1712041321640625
-158.78,1712041321656250
-76.32,1712041321671875
13.68,1712041321687500
94.62,1712041321703125
153.23,1712041321718750
184.95,1712041321734375
194.49,1712041321750000
190.7,1712041321765625
181.64,1712041321781250
171.81,1712041321796875
162.01,1712041321812500
151.37,1712041321828125
139.78,1712041321843750
126.8,1712041321859375
113.4,1712041321875000
102.25,1712041321890625
92.96,1712041321906250
81.86,1712041321921875
65.24,1712041321937500
41.4,1712041321953125
11.61,1712041321968750
-20.45,1712041321984375
-53.48,1712041322000000
-86.36,1712041322015625
-114.87,1712041322031250
-138.94,1712041322046875
-162.59,1712041322062500
-188.95,1712041322078125
-218.9,1712041322093750
-250.89,1712041322109375
-281.69,1712041322125000
-312.72,1712041322140625
-344.94,1712041322156250
-372.44,1712041322171875
-394.03,1712041322187500
-414.55,1712041322203125
-438.9,1712041322218750
-471.1,1712041322234375
-512.84,1712041322250000
-562.3,1712041322265625
-619.59,1712041322281250
-679.63,1712041322296875
-725.38,1712041322312500
-746.29,1712041322328125
-743.01,1712041322343750
-721.2,1712041322359375
-689.57,1712041322375000
-656.54,1712041322390625
-590.87,1712041322406250
-478.83,1712041322421875
-375.38,1712041322437500
-299.78,1712041322453125
-238.75,1712041322468750
-189.16,1712041322484375
-149.23,1712041322500000
-117.08,1712041322515625
-90.13,1712041322531250
-65.53,1712041322546875
-46.97,1712041322562500
-37.15,1712041322578125
-28.43,1712041322593750
-17.64,1712041322609375
-7.42,1712041322625000
0.92,1712041322640625
7.38,1712041322656250
13.02,1712041322671875
19.17,1712041322687500
22.29,1712041322703125
19.86,1712041322718750
17.63,1712041322734375
18.29,1712041322750000
20.21,1712041322765625
22.75,1712041322781250
26.26,1712041322796875
31.76,1712041322812500
40.42,1712041322828125
50.28,1712041322843750
59.89,1712041322859375
72.79,1712041322875000
90.33,1712041322890625
110.87,1712041322906250
133.07,1712041322921875
155.9,1712041322937500
178.56,1712041322953125
200.34,1712041322968750
219.06,1712041322984375
232.91,1712041323000000
242.74,1712041323015625
248.61,1712041323031250
249.51,1712041323046875
245.22,1712041323062500
236.03,1712041323078125
222.57,1712041323093750
205.53,1712041323109375
185.06,1712041323125000
161.44,1712041323140625
136.0,1712041323156250
109.76,1712041323171875
83.33,1712041323187500
57.79,1712041323203125
34.34,1712041323218750
14.18,1712041323234375
-1.73,1712041323250000
-12.79,1712041323265625
-18.86,1712041323281250
-20.22,1712041323296875
-17.55,1712041323312500
-11.81,1712041323328125
-3.31,1712041323343750
7.73,1712041323359375
21.04,1712041323375000
36.05,1712041323390625
51.9,1712041323406250
67.62,1712041323421875
82.2,1712041323437500
94.89,1712041323453125
105.1,1712041323468750
114.69,1712041323484375
125.97,1712041323500000
140.94,1712041323515625
160.7,1712041323531250
185.62,1712041323546875
215.86,1712041323562500
251.31,1712041323578125
290.95,1712041323593750
332.3,1712041323609375
375.75,1712041323625000
421.13,1712041323640625
467.27,1712041323656250
511.24,1712041323671875
548.81,1712041323687500
575.57,1712041323703125
587.74,1712041323718750
582.79,1712041323734375
559.79,1712041323750000
525.91,1712041323765625
488.97,1712041323781250
454.25,1712041323796875
422.36,1712041323812500
390.8,1712041323828125
358.08,1712041323843750
326.55,1712041323859375
301.97,1712041323875000
290.6,1712041323890625
304.28,1712041323906250
349.66,1712041323921875
425.71,1712041323937500
524.16,1712041323953125
633.43,1712041323968750
744.04,1712041323984375
851.15,1712041324000000
953.6,1712041324015625
1000.16,1712041324031250
954.58,1712041324046875
805.91,1712041324062500
579.17,1712041324078125
322.2,1712041324093750
79.56,1712041324109375
-123.49,1712041324125000
-281.13,1712041324140625
-399.17,1712041324156250
-487.88,1712041324171875
-548.62,1712041324187500
-580.81,1712041324203125
-585.08,1712041324218750
-566.29,1712041324234375
-532.94,1712041324250000
-493.66,1712041324265625
-455.0,1712041324281250
-421.77,1712041324296875
-398.52,1712041324312500
-383.74,1712041324328125
-375.83,1712041324343750
-373.4,1712041324359375
-375.29,1712041324375000
-379.74,1712041324390625
-383.44,1712041324406250
-382.71,1712041324421875
-375.92,1712041324437500
-364.73,1712041324453125
-349.02,1712041324468750
-328.87,1712041324484375
-304.5,1712041324500000
-276.31,1712041324515625
-246.3,1712041324531250
-217.49,1712041324546875
-193.01,1712041324562500
-175.27,1712041324578125
-165.17,1712041324593750
-159.63,1712041324609375
-154.23,1712041324625000
-145.08,1712041324640625
-130.21,1712041324656250
-110.45,1712041324671875
-88.24,1712041324687500
-66.34,1712041324703125
-46.89,1712041324718750
-31.07,1712041324734375
-18.33,1712041324750000
-7.19,1712041324765625
4.47,1712041324781250
19.02,1712041324796875
38.44,1712041324812500
64.01,1712041324828125
95.69,1712041324843750
131.84,1712041324859375
169.59,1712041324875000
205.83,1712041324890625
238.16,1712041324906250
265.32,1712041324921875
286.87,1712041324937500
302.33,1712041324953125
310.7,1712041324968750
310.78,1712041324984375
302.1,1712041325000000
285.58,1712041325015625
263.71,1712041325031250
239.9,1712041325046875
217.42,1712041325062500
198.31,1712041325078125
183.07,1712041325093750
170.99,1712041325109375
161.0,1712041325125000
152.14,1712041325140625
143.87,1712041325156250
136.04,1712041325171875
128.58,1712041325187500
121.3,1712041325203125
113.79,1712041325218750
105.47,1712041325234375
95.75,1712041325250000
84.15,1712041325265625
70.45,1712041325281250
54.62,1712041325296875
36.81,1712041325312500
17.28,1712041325328125
-3.65,1712041325343750
-25.55,1712041325359375
-47.88,1712041325375000
-69.95,1712041325390625
-90.82,1712041325406250
-109.46,1712041325421875
-124.86,1712041325437500
-136.18,1712041325453125
-142.89,1712041325468750
-144.89,1712041325484375
-142.45,1712041325500000
-136.2,1712041325515625
-126.98,1712041325531250
-115.71,1712041325546875
-103.3,1712041325562500
-90.54,1712041325578125
-78.1,1712041325593750
-66.43,1712041325609375
-55.78,1712041325625000
-46.17,1712041325640625
-37.46,1712041325656250
-29.3,1712041325671875
-21.32,1712041325687500
-13.14,1712041325703125
-4.53,1712041325718750
4.59,1712041325734375
14.04,1712041325750000
23.49,1712041325765625
32.48,1712041325781250
40.51,1712041325796875
47.17,1712041325812500
52.09,1712041325828125
55.05,1712041325843750
55.94,1712041325859375
54.74,1712041325875000
51.49,1712041325890625
46.31,1712041325906250
39.34,1712041325921875
30.85,1712041325937500
21.17,1712041325953125
10.72,1712041325968750
-0.04,1712041325984375
-10.7,1712041326000000
-20.93,1712041326015625
-30.58,1712041326031250
-39.65,1712041326046875
-48.2,1712041326062500
-56.33,1712041326078125
-64.04,1712041326093750
-71.18,1712041326109375
-77.45,1712041326125000
-82.51,1712041326140625
-86.06,1712041326156250
-87.99,1712041326171875
-88.31,1712041326187500
-87.16,1712041326203125
-84.55,1712041326218750
-80.27,1712041326234375
-73.82,1712041326250000
-64.57,1712041326265625
-51.96,1712041326281250
-35.92,1712041326296875
-17.17,1712041326312500
2.85,1712041326328125
22.19,1712041326343750
38.85,1712041326359375
51.23,1712041326375000
58.43,1712041326390625
60.25,1712041326406250
56.83,1712041326421875
48.24,1712041326437500
34.08,1712041326453125
13.45,1712041326468750
-14.72,1712041326484375
-51.11,1712041326500000
-95.47,1712041326515625
-146.37,1712041326531250
-201.58,1712041326546875
-258.47,1712041326562500
-314.74,1712041326578125
-368.87,1712041326593750
-420.18,1712041326609375
-468.81,1712041326625000
-515.76,1712041326640625
-562.8,1712041326656250
-612.13,1712041326671875
-665.04,1712041326687500
-720.34,1712041326703125
-773.12,1712041326718750
-815.16,1712041326734375
-837.22,1712041326750000
-832.47,1712041326765625
-799.49,1712041326781250
-743.02,1712041326796875
-672.22,1712041326812500
-597.12,1712041326828125
-525.11,1712041326843750
-459.25,1712041326859375
-398.77,1712041326875000
-341.09,1712041326890625
-284.01,1712041326906250
-226.91,1712041326921875
-170.55,1712041326937500
-116.17,1712041326953125
-64.58,1712041326968750
-15.83,1712041326984375
30.53,1712041327000000
75.07,1712041327015625
118.12,1712041327031250
159.65,1712041327046875
199.6,1712041327062500
238.49,1712041327078125
277.31,1712041327093750
316.64,1712041327109375
355.14,1712041327125000
388.57,1712041327140625
410.3,1712041327156250
413.33,1712041327171875
392.88,1712041327187500
348.5,1712041327203125
284.71,1712041327218750
209.36,1712041327234375
131.27,1712041327250000
57.27,1712041327265625
-9.37,1712041327281250
-68.78,1712041327296875
-122.97,1712041327312500
-173.57,1712041327328125
-220.86,1712041327343750
-262.67,1712041327359375
-295.66,1712041327375000
-316.87,1712041327390625
-325.53,1712041327406250
-323.29,1712041327421875
-312.57,1712041327437500
-294.5,1712041327453125
-267.97,1712041327468750
-232.74,1712041327484375
-190.25,1712041327500000
-145.15,1712041327515625
-104.79,1712041327531250
-76.82,1712041327546875
-65.2,1712041327562500
-67.25,1712041327578125
-74.2,1712041327593750
-75.22,1712041327609375
-66.25,1712041327625000
-48.91,1712041327640625
-28.62,1712041327656250
-10.78,1712041327671875
1.3,1712041327687500
7.81,1712041327703125
12.18,1712041327718750
19.2,1712041327734375
32.94,1712041327750000
49.8,1712041327765625
66.02,1712041327781250
80.66,1712041327796875
96.14,1712041327812500
114.4,1712041327828125
133.24,1712041327843750
146.09,1712041327859375
144.53,1712041327875000
122.72,1712041327890625
73.64,1712041327906250
-0.79,1712041327921875
-89.2,1712041327937500
-175.54,1712041327953125
-247.5,1712041327968750
-301.57,1712041327984375
-341.8,1712041328000000
-374.71,1712041328015625
-359.51,1712041328031250
-273.94,1712041328046875
-124.95,1712041328062500
52.1,1712041328078125
218.04,1712041328093750
349.51,1712041328109375
440.66,1712041328125000
496.4,1712041328140625
526.41,1712041328156250
541.18,1712041328171875
541.77,1712041328187500
527.97,1712041328203125
501.68,1712041328218750
468.15,1712041328234375
433.19,1712041328250000
400.99,1712041328265625
373.89,1712041328281250
352.9,1712041328296875
338.51,1712041328312500
324.52,1712041328328125
305.32,1712041328343750
278.68,1712041328359375
246.69,1712041328375000
212.01,1712041328390625
176.59,1712041328406250
141.37,1712041328421875
107.73,1712041328437500
78.61,1712041328453125
54.38,1712041328468750
36.04,1712041328484375
24.9,1712041328500000
21.53,1712041328515625
24.02,1712041328531250
28.31,1712041328546875
30.28,1712041328562500
28.23,1712041328578125
24.0,1712041328593750
19.32,1712041328609375
15.89,1712041328625000
14.48,1712041328640625
14.49,1712041328656250
14.22,1712041328671875
11.84,1712041328687500
6.58,1712041328703125
-3.42,1712041328718750
-17.08,1712041328734375
-32.7,1712041328750000
-47.97,1712041328765625
-59.97,1712041328781250
-65.14,1712041328796875
-59.89,1712041328812500
-42.08,1712041328828125
-12.95,1712041328843750
21.51,1712041328859375
51.29,1712041328875000
64.21,1712041328890625
50.46,1712041328906250
7.05,1712041328921875
-59.83,1712041328937500
-136.17,1712041328953125
-204.87,1712041328968750
-251.71,1712041328984375
-269.91,1712041329000000
-260.91,1712041329015625
-232.45,1712041329031250
-194.27,1712041329046875
-154.38,1712041329062500
-117.25,1712041329078125
-84.46,1712041329093750
-56.37,1712041329109375
-33.72,1712041329125000
-17.61,1712041329140625
-8.41,1712041329156250
-4.93,1712041329171875
-3.96,1712041329187500
-1.34,1712041329203125
6.31,1712041329218750
20.22,1712041329234375
39.03,1712041329250000
59.6,1712041329265625
78.53,1712041329281250
93.95,1712041329296875
106.15,1712041329312500
117.63,1712041329328125
132.23,1712041329343750
153.69,1712041329359375
184.15,1712041329375000
222.88,1712041329390625
265.82,1712041329406250
306.4,1712041329421875
337.3,1712041329437500
352.77,1712041329453125
350.45,1712041329468750
332.2,1712041329484375
303.27,1712041329500000
270.32,1712041329515625
239.02,1712041329531250
212.35,1712041329546875
190.03,1712041329562500
169.31,1712041329578125
146.59,1712041329593750
119.29,1712041329609375
86.97,1712041329625000
51.49,1712041329640625
16.34,1712041329656250
-14.87,1712041329671875
-39.65,1712041329687500
-57.25,1712041329703125
-68.25,1712041329718750
-73.74,1712041329734375
-74.68,1712041329750000
-71.64,1712041329765625
-65.06,1712041329781250
-55.2,1712041329796875
-41.79,1712041329812500
-23.39,1712041329828125
2.5,1712041329843750
38.11,1712041329859375
83.06,1712041329875000
132.51,1712041329890625
177.16,1712041329906250
205.91,1712041329921875
210.19,1712041329937500
187.68,1712041329953125
143.5,1712041329968750
88.06,1712041329984375
32.78,1712041330000000
-14.0,1712041330015625
-49.03,1712041330031250
-73.15,1712041330046875
-88.65,1712041330062500
-96.64,1712041330078125
-96.36,1712041330093750
-86.14,1712041330109375
-65.61,1712041330125000
-37.43,1712041330140625
-7.01,1712041330156250
19.26,1712041330171875
36.67,1712041330187500
43.87,1712041330203125
43.13,1712041330218750
38.75,1712041330234375
34.72,1712041330250000
33.09,1712041330265625
33.64,1712041330281250
34.96,1712041330296875
35.95,1712041330312500
36.76,1712041330328125
38.65,1712041330343750
43.0,1712041330359375
50.24,1712041330375000
59.38,1712041330390625
68.44,1712041330406250
75.3,1712041330421875
78.6,1712041330437500
78.29,1712041330453125
75.49,1712041330468750
72.03,1712041330484375
69.86,1712041330500000
70.38,1712041330515625
73.9,1712041330531250
79.44,1712041330546875
84.92,1712041330562500
87.84,1712041330578125
86.25,1712041330593750
79.56,1712041330609375
68.76,1712041330625000
55.84,1712041330640625
42.75,1712041330656250
30.42,1712041330671875
18.84,1712041330687500
7.47,1712041330703125
-3.8,1712041330718750
-14.37,1712041330734375
-23.47,1712041330750000
-31.41,1712041330765625
-40.4,1712041330781250
-54.01,1712041330796875
-75.48,1712041330812500
-105.38,1712041330828125
-140.28,1712041330843750
-173.62,1712041330859375
-198.33,1712041330875000
-210.16,1712041330890625
-209.58,1712041330906250
-201.46,1712041330921875
-192.56,1712041330937500
-188.32,1712041330953125
-190.75,1712041330968750
-198.58,1712041330984375
-209.06,1712041331000000
-220.07,1712041331015625
-231.17,1712041331031250
-242.92,1712041331046875
-255.38,1712041331062500
-266.78,1712041331078125
-273.54,1712041331093750
-271.57,1712041331109375
-258.18,1712041331125000
-233.43,1712041331140625
-200.27,1712041331156250
-163.54,1712041331171875
-128.14,1712041331187500
-97.67,1712041331203125
-73.59,1712041331218750
-55.4,1712041331234375
-41.39,1712041331250000
-29.64,1712041331265625
-18.85,1712041331281250
-8.7,1712041331296875
0.22,1712041331312500
6.95,1712041331328125
10.79,1712041331343750
11.81,1712041331359375
10.87,1712041331375000
9.28,1712041331390625
8.29,1712041331406250
8.73,1712041331421875
10.94,1712041331437500
14.87,1712041331453125
20.34,1712041331468750
27.22,1712041331484375
35.4,1712041331500000
44.68,1712041331515625
54.55,1712041331531250
64.18,1712041331546875
72.48,1712041331562500
78.41,1712041331578125
81.24,1712041331593750
80.85,1712041331609375
77.7,1712041331625000
72.75,1712041331640625
67.1,1712041331656250
61.72,1712041331671875
57.21,1712041331687500
53.76,1712041331703125
51.11,1712041331718750
48.8,1712041331734375
46.3,1712041331750000
43.19,1712041331765625
39.28,1712041331781250
34.65,1712041331796875
29.73,1712041331812500
25.12,1712041331828125
21.48,1712041331843750
19.22,1712041331859375
18.33,1712041331875000
18.24,1712041331890625
17.98,1712041331906250
16.31,1712041331921875
12.06,1712041331937500
4.33,1712041331953125
-7.4,1712041331968750
-23.17,1712041331984375
-42.49,1712041332000000
-64.34,1712041332015625
-87.27,1712041332031250
-109.63,1712041332046875
-129.86,1712041332062500
-146.88,1712041332078125
-160.23,1712041332093750
-169.88,1712041332109375
-175.76,1712041332125000
-177.33,1712041332140625
-173.57,1712041332156250
-163.45,1712041332171875
-146.65,1712041332187500
-124.01,1712041332203125
-97.4,1712041332218750
-68.9,1712041332234375
-39.89,1712041332250000
-10.54,1712041332265625
19.74,1712041332281250
51.36,1712041332296875
83.73,1712041332312500
115.03,1712041332328125
142.99,1712041332343750
165.86,1712041332359375
183.06,1712041332375000
194.95,1712041332390625
202.03,1712041332406250
204.21,1712041332421875
200.9,1712041332437500
191.8,1712041332453125
177.83,1712041332468750
161.55,1712041332484375
146.51,1712041332500000
135.87,1712041332515625
131.01,1712041332531250
130.94,1712041332546875
132.83,1712041332562500
133.33,1712041332578125
130.05,1712041332593750
122.33,1712041332609375
111.21,1712041332625000
98.69,1712041332640625
86.79,1712041332656250
76.98,1712041332671875
70.08,1712041332687500
66.36,1712041332703125
65.9,1712041332718750
68.55,1712041332734375
73.7,1712041332750000
80.19,1712041332765625
86.3,1712041332781250
90.3,1712041332796875
91.19,1712041332812500
89.15,1712041332828125
85.51,1712041332843750
82.12,1712041332859375
80.39,1712041332875000
80.67,1712041332890625
82.25,1712041332906250
83.81,1712041332921875
84.32,1712041332937500
83.5,1712041332953125
81.96,1712041332968750
80.64,1712041332984375
80.25,1712041333000000
80.72,1712041333015625
81.04,1712041333031250
79.69,1712041333046875
75.13,1712041333062500
66.34,1712041333078125
53.01,1712041333093750
35.43,1712041333109375
14.23,1712041333125000
-9.92,1712041333140625
-36.33,1712041333156250
-64.08,1712041333171875
-91.81,1712041333187500
-117.8,1712041333203125
-140.4,1712041333218750
-158.48,1712041333234375
-171.85,1712041333250000
-181.18,1712041333265625
-187.49,1712041333281250
-191.65,1712041333296875
-193.82,1712041333312500
-193.41,1712041333328125
-189.29,1712041333343750
-180.23,1712041333359375
-165.42,1712041333375000
-144.86,1712041333390625
-119.6,1712041333406250
-91.69,1712041333421875
-63.81,1712041333437500
-38.69,1712041333453125
-18.45,1712041333468750
-4.24,1712041333484375
3.82,1712041333500000
6.4,1712041333515625
4.6,1712041333531250
-0.26,1712041333546875
-6.63,1712041333562500
-12.78,1712041333578125
-17.04,1712041333593750
-18.2,1712041333609375
-16.03,1712041333625000
-11.44,1712041333640625
-6.17,1712041333656250
-2.16,1712041333671875
-0.84,1712041333687500
-2.65,1712041333703125
-6.92,1712041333718750
-12.1,1712041333734375
-16.4,1712041333750000
-18.24,1712041333765625
-16.81,1712041333781250
-12.24,1712041333796875
-5.52,1712041333812500
1.77,1712041333828125
8.01,1712041333843750
11.93,1712041333859375
12.99,1712041333875000
11.47,1712041333890625
8.2,1712041333906250
4.35,1712041333921875
1.06,1712041333937500
-0.86,1712041333953125
-1.02,1712041333968750
0.58,1712041333984375
3.63,1712041334000000
7.58,1712041334015625
11.82,1712041334031250
15.68,1712041334046875
18.55,1712041334062500
19.95,1712041334078125
19.54,1712041334093750
17.3,1712041334109375
13.6,1712041334125000
9.11,1712041334140625
4.69,1712041334156250
1.12,1712041334171875
-1.09,1712041334187500
-1.84,1712041334203125
-1.41,1712041334218750
-0.25,1712041334234375
1.09,1712041334250000
2.12,1712041334265625
2.53,1712041334281250
2.16,1712041334296875
1.09,1712041334312500
-0.43,1712041334328125
-2.01,1712041334343750
-3.34,1712041334359375
-4.26,1712041334375000
-4.89,1712041334390625
-5.54,1712041334406250
-6.55,1712041334421875
-8.12,1712041334437500
-10.22,1712041334453125
-12.7,1712041334468750
-15.35,1712041334484375
-18.01,1712041334500000
-20.49,1712041334515625
-22.45,1712041334531250
-23.34,1712041334546875
-22.54,1712041334562500
-19.54,1712041334578125
-14.27,1712041334593750
-7.2,1712041334609375
0.74,1712041334625000
8.38,1712041334640625
14.66,1712041334656250
18.88,1712041334671875
20.86,1712041334687500
20.87,1712041334703125
19.46,1712041334718750
17.3,1712041334734375
14.89,1712041334750000
12.53,1712041334765625
10.29,1712041334781250
8.21,1712041334796875
6.33,1712041334812500
4.79,1712041334828125
3.79,1712041334843750
3.39,1712041334859375
3.44,1712041334875000
3.64,1712041334890625
3.61,1712041334906250
3.15,1712041334921875
2.23,1712041334937500
1.04,1712041334953125
-0.22,1712041334968750
-1.4,1712041334984375
-2.53,1712041335000000
-3.74,1712041335015625
-5.25,1712041335031250
-7.27,1712041335046875
-10.0,1712041335062500
-13.56,1712041335078125
-17.9,1712041335093750
-22.75,1712041335109375
-27.57,1712041335125000
-31.6,1712041335140625
-34.03,1712041335156250
-34.23,1712041335171875
-31.9,1712041335187500
-27.23,1712041335203125
-20.79,1712041335218750
-13.4,1712041335234375
-5.94,1712041335250000
0.83,1712041335265625
6.42,1712041335281250
10.63,1712041335296875
13.51,1712041335312500
15.23,1712041335328125
16.01,1712041335343750
16.01,1712041335359375
15.36,1712041335375000
14.21,1712041335390625
12.76,1712041335406250
11.32,1712041335421875
10.17,1712041335437500
9.57,1712041335453125
9.56,1712041335468750
9.99,1712041335484375
10.5,1712041335500000
10.69,1712041335515625
10.24,1712041335531250
9.04,1712041335546875
7.22,1712041335562500
5.05,1712041335578125
2.82,1712041335593750
0.67,1712041335609375
-1.41,1712041335625000
-3.59,1712041335640625
-6.08,1712041335656250
-9.05,1712041335671875
-12.59,1712041335687500
-16.73,1712041335703125
-21.47,1712041335718750
-26.64,1712041335734375
-31.86,1712041335750000
-36.48,1712041335765625
-39.61,1712041335781250
-40.4,1712041335796875
-38.26,1712041335812500
-33.18,1712041335828125
-25.71,1712041335843750
-16.9,1712041335859375
-7.96,1712041335875000
0.01,1712041335890625
6.31,1712041335906250
10.63,1712041335921875
13.11,1712041335937500
14.1,1712041335953125
14.03,1712041335968750
13.3,1712041335984375
12.14,1712041336000000
10.72,1712041336015625
9.15,1712041336031250
7.66,1712041336046875
6.6,1712041336062500
6.27,1712041336078125
6.81,1712041336093750
8.05,1712041336109375
9.56,1712041336125000
10.74,1712041336140625
11.07,1712041336156250
10.25,1712041336171875
8.3,1712041336187500
5.48,1712041336203125
2.13,1712041336218750
-1.44,1712041336234375
-5.02,1712041336250000
-8.45,1712041336265625
-11.55,1712041336281250
-14.19,1712041336296875
-16.22,1712041336312500
-17.72,1712041336328125
-18.95,1712041336343750
-20.31,1712041336359375
-22.12,1712041336375000
-24.38,1712041336390625
-26.65,1712041336406250
-28.13,1712041336421875
-27.92,1712041336437500
-25.36,1712041336453125
-20.34,1712041336468750
-13.39,1712041336484375
-5.46,1712041336500000
2.38,1712041336515625
9.21,1712041336531250
14.46,1712041336546875
17.94,1712041336562500
19.77,1712041336578125
20.26,1712041336593750
19.76,1712041336609375
18.6,1712041336625000
17.05,1712041336640625
15.32,1712041336656250
13.57,1712041336671875
11.98,1712041336687500
10.77,1712041336703125
10.16,1712041336718750
10.28,1712041336734375
11.09,1712041336750000
12.37,1712041336765625
13.76,1712041336781250
14.83,1712041336796875
15.27,1712041336812500
14.94,1712041336828125
13.88,1712041336843750
12.31,1712041336859375
10.47,1712041336875000
8.57,1712041336890625
6.67,1712041336906250
4.68,1712041336921875
2.35,1712041336937500
-0.6,1712041336953125
-4.36,1712041336968750
-8.87,1712041336984375
-13.78,1712041337000000
-18.47,1712041337015625
-22.18,1712041337031250
-24.16,1712041337046875
-23.88,1712041337062500
-21.17,1712041337078125
-16.23,1712041337093750
-9.68,1712041337109375
-2.34,1712041337125000
4.91,1712041337140625
11.4,1712041337156250
16.66,1712041337171875
20.53,1712041337187500
22.99,1712041337203125
24.11,1712041337218750
24.0,1712041337234375
22.84,1712041337250000
20.91,1712041337265625
18.61,1712041337281250
16.44,1712041337296875
14.81,1712041337312500
13.94,1712041337328125
13.75,1712041337343750
13.87,1712041337359375
13.9,1712041337375000
13.47,1712041337390625
12.45,1712041337406250
10.96,1712041337421875
9.26,1712041337437500
7.63,1712041337453125
6.22,1712041337468750
5.0,1712041337484375
3.76,1712041337500000
2.32,1712041337515625
0.5,1712041337531250
-1.78,1712041337546875
-4.58,1712041337562500
-7.98,1712041337578125
-12.05,1712041337593750
-16.73,1712041337609375
-21.7,1712041337625000
-26.3,1712041337640625
-29.6,1712041337656250
-30.67,1712041337671875
-28.91,1712041337687500
-24.27,1712041337703125
-17.34,1712041337718750
-9.21,1712041337734375
-1.07,1712041337750000
6.05,1712041337765625
11.5,1712041337781250
15.08,1712041337796875
16.86,1712041337812500
17.15,1712041337828125
16.27,1712041337843750
14.64,1712041337859375
12.6,1712041337875000
10.51,1712041337890625
8.66,1712041337906250
7.33,1712041337921875
6.69,1712041337937500
6.8,1712041337953125
7.54,1712041337968750
8.63,1712041337984375
9.71,1712041338000000
10.4,1712041338015625
10.44,1712041338031250
9.77,1712041338046875
8.51,1712041338062500
6.85,1712041338078125
4.95,1712041338093750
2.93,1712041338109375
0.77,1712041338125000
-1.59,1712041338140625
-4.25,1712041338156250
-7.32,1712041338171875
-10.89,1712041338187500
-14.99,1712041338203125
-19.37,1712041338218750
-23.53,1712041338234375
-26.68,1712041338250000
-27.97,1712041338265625
-26.78,1712041338281250
-22.96,1712041338296875
-16.92,1712041338312500
-9.52,1712041338328125
-1.82,1712041338343750
5.29,1712041338359375
11.23,1712041338375000
15.8,1712041338390625
18.97,1712041338406250
20.78,1712041338421875
21.19,1712041338437500
20.19,1712041338453125
17.88,1712041338468750
14.63,1712041338484375
11.06,1712041338500000
7.87,1712041338515625
5.7,1712041338531250
4.87,1712041338546875
5.26,1712041338562500
6.43,1712041338578125
7.77,1712041338593750
8.71,1712041338609375
8.95,1712041338625000
8.47,1712041338640625
7.43,1712041338656250
6.07,1712041338671875
4.52,1712041338687500
2.71,1712041338703125
0.48,1712041338718750
-2.36,1712041338734375
-5.87,1712041338750000
-10.01,1712041338765625
-14.61,1712041338781250
-19.47,1712041338796875
-24.24,1712041338812500
-28.44,1712041338828125
-31.45,1712041338843750
-32.57,1712041338859375
-31.26,1712041338875000
-27.33,1712041338890625
-21.15,1712041338906250
-13.43,1712041338921875
-5.14,1712041338937500
2.86,1712041338953125
9.94,1712041338968750
15.75,1712041338984375
20.01,1712041339000000
22.57,1712041339015625
23.31,1712041339031250
22.31,1712041339046875
19.96,1712041339062500
16.88,1712041339078125
13.84,1712041339093750
11.45,1712041339109375
10.04,1712041339125000
9.62,1712041339140625
9.93,1712041339156250
10.6,1712041339171875
11.22,1712041339187500
11.52,1712041339203125
11.24,1712041339218750
10.29,1712041339234375
8.68,1712041339250000
6.54,1712041339265625
4.09,1712041339281250
1.49,1712041339296875
-1.13,1712041339312500
-3.82,1712041339328125
-6.69,1712041339343750
-9.95,1712041339359375
-13.77,1712041339375000
-18.24,1712041339390625
-23.25,1712041339406250
-28.44,1712041339421875
-33.15,1712041339437500
-36.53,1712041339453125
-37.84,1712041339468750
-36.6,1712041339484375
-32.86,1712041339500000
-27.12,1712041339515625
-20.17,1712041339531250
-12.8,1712041339546875
-5.62,1712041339562500
0.95,1712041339578125
6.68,1712041339593750
11.38,1712041339609375
14.85,1712041339625000
16.95,1712041339640625
17.63,1712041339656250
17.04,1712041339671875
15.53,1712041339687500
13.61,1712041339703125
11.82,1712041339718750
10.59,1712041339734375
10.21,1712041339750000
10.68,1712041339765625
11.79,1712041339781250
13.16,1712041339796875
14.34,1712041339812500
14.93,1712041339828125
14.69,1712041339843750
13.55,1712041339859375
11.59,1712041339875000
9.02,1712041339890625
6.1,1712041339906250
3.07,1712041339921875
0.05,1712041339937500
-2.9,1712041339953125
-5.91,1712041339968750
-9.11,1712041339984375
-12.69,1712041340000000
-16.66,1712041340015625
-20.88,1712041340031250
-24.91,1712041340046875
-28.07,1712041340062500
-29.64,1712041340078125
-28.97,1712041340093750
-25.74,1712041340109375
-20.09,1712041340125000
-12.59,1712041340140625
-4.13,1712041340156250
4.32,1712041340171875
11.93,1712041340187500
18.15,1712041340203125
22.69,1712041340218750
25.51,1712041340234375
26.72,1712041340250000
26.54,1712041340265625
25.32,1712041340281250
23.48,1712041340296875
21.51,1712041340312500
19.83,1712041340328125
18.73,1712041340343750
18.27,1712041340359375
18.33,1712041340375000
18.68,1712041340390625
19.05,1712041340406250
19.23,1712041340421875
19.02,1712041340437500
18.31,1712041340453125
17.04,1712041340468750
15.28,1712041340484375
13.13,1712041340500000
10.76,1712041340515625
8.28,1712041340531250
5.81,1712041340546875
3.36,1712041340562500
0.93,1712041340578125
-1.54,1712041340593750
-4.1,1712041340609375
-6.92,1712041340625000
-10.15,1712041340640625
-13.84,1712041340656250
-17.88,1712041340671875
-21.84,1712041340687500
-25.0,1712041340703125
-26.52,1712041340718750
-25.69,1712041340734375
-22.18,1712041340750000
-16.26,1712041340765625
-8.71,1712041340781250
-0.58,1712041340796875
7.1,1712041340812500
13.57,1712041340828125
18.48,1712041340843750
21.74,1712041340859375
23.4,1712041340875000
23.54,1712041340890625
22.3,1712041340906250
19.96,1712041340921875
16.94,1712041340937500
13.82,1712041340953125
11.09,1712041340968750
9.06,1712041340984375
7.73,1712041341000000
6.92,1712041341015625
6.43,1712041341031250
6.11,1712041341046875
5.9,1712041341062500
5.74,1712041341078125
5.52,1712041341093750
5.1,1712041341109375
4.44,1712041341125000
3.57,1712041341140625
2.71,1712041341156250
2.05,1712041341171875
1.62,1712041341187500
1.26,1712041341203125
0.53,1712041341218750
-1.01,1712041341234375
-3.73,1712041341250000
-7.7,1712041341265625
-12.66,1712041341281250
-18.0,1712041341296875
-22.91,1712041341312500
-26.54,1712041341328125
-28.16,1712041341343750
-27.33,1712041341359375
-24.02,1712041341375000
-18.54,1712041341390625
-11.58,1712041341406250
-4.04,1712041341421875
3.19,1712041341437500
9.34,1712041341453125
13.99,1712041341468750
17.02,1712041341484375
18.59,1712041341500000
19.0,1712041341515625
18.54,1712041341531250
17.48,1712041341546875
16.09,1712041341562500
14.65,1712041341578125
13.5,1712041341593750
12.87,1712041341609375
12.84,1712041341625000
13.29,1712041341640625
13.92,1712041341656250
14.44,1712041341671875
14.57,1712041341687500
14.16,1712041341703125
13.12,1712041341718750
11.45,1712041341734375
9.2,1712041341750000
6.59,1712041341765625
3.88,1712041341781250
1.38,1712041341796875
-0.75,1712041341812500
-2.58,1712041341828125
-4.34,1712041341843750
-6.41,1712041341859375
-9.11,1712041341875000
-12.56,1712041341890625
-16.58,1712041341906250
-20.73,1712041341921875
-24.36,1712041341937500
-26.76,1712041341953125
-27.34,1712041341968750
-25.76,1712041341984375
-22.06,1712041342000000
-16.61,1712041342015625
-10.07,1712041342031250
-3.16,1712041342046875
3.41,1712041342062500
9.12,1712041342078125
13.65,1712041342093750
16.81,1712041342109375
18.63,1712041342125000
19.19,1712041342140625
18.66,1712041342156250
17.25,1712041342171875
15.23,1712041342187500
12.89,1712041342203125
10.54,1712041342218750
8.55,1712041342234375
7.18,1712041342250000
6.64,1712041342265625
6.92,1712041342281250
7.79,1712041342296875
8.83,1712041342312500
9.55,1712041342328125
9.55,1712041342343750
8.65,1712041342359375
6.95,1712041342375000
4.65,1712041342390625
2.04,1712041342406250
-0.7,1712041342421875
-3.5,1712041342437500
-6.37,1712041342453125
-9.33,1712041342468750
-12.34,1712041342484375
-15.37,1712041342500000
-18.4,1712041342515625
-21.54,1712041342531250
-24.88,1712041342546875
-28.38,1712041342562500
-31.71,1712041342578125
-34.28,1712041342593750
-35.36,1712041342609375
-34.32,1712041342625000
-30.9,1712041342640625
-25.34,1712041342656250
-18.32,1712041342671875
-10.77,1712041342687500
-3.6,1712041342703125
2.55,1712041342718750
7.38,1712041342734375
10.85,1712041342750000
13.07,1712041342765625
14.17,1712041342781250
14.26,1712041342796875
13.55,1712041342812500
12.3,1712041342828125
10.92,1712041342843750
9.85,1712041342859375
9.38,1712041342875000
9.57,1712041342890625
10.27,1712041342906250
11.14,1712041342921875
11.83,1712041342937500
12.12,1712041342953125
11.84,1712041342968750
10.93,1712041342984375
9.42,1712041343000000
7.38,1712041343015625
5.01,1712041343031250
2.6,1712041343046875
0.41,1712041343062500
-1.44,1712041343078125
-3.09,1712041343093750
-4.9,1712041343109375
-7.3,1712041343125000
-10.52,1712041343140625
-14.5,1712041343156250
-18.86,1712041343171875
-23.1,1712041343187500
-26.76,1712041343203125
-29.55,1712041343218750
-31.23,1712041343234375
-31.59,1712041343250000
-30.32,1712041343265625
-27.09,1712041343281250
-21.82,1712041343296875
-14.81,1712041343312500
-6.83,1712041343328125
1.1,1712041343343750
7.96,1712041343359375
13.16,1712041343375000
16.58,1712041343390625
18.53,1712041343406250
19.5,1712041343421875
19.85,1712041343437500
19.81,1712041343453125
19.43,1712041343468750
18.78,1712041343484375
18.01,1712041343500000
17.34,1712041343515625
16.9,1712041343531250
16.63,1712041343546875
16.3,1712041343562500
15.57,1712041343578125
14.22,1712041343593750
12.2,1712041343609375
9.66,1712041343625000
6.83,1712041343640625
3.83,1712041343656250
0.68,1712041343671875
-2.64,1712041343687500
-6.03,1712041343703125
-9.24,1712041343718750
-11.87,1712041343734375
-13.64,1712041343750000
-14.62,1712041343765625
-15.25,1712041343781250
-16.29,1712041343796875
-18.48,1712041343812500
-22.18,1712041343828125
-27.17,1712041343843750
-32.61,1712041343859375
-37.33,1712041343875000
-40.11,1712041343890625
-40.11,1712041343906250
-37.05,1712041343921875
-31.27,1712041343937500
-23.53,1712041343953125
-14.84,1712041343968750
-6.13,1712041343984375
1.9,1712041344000000
8.86,1712041344015625
14.55,1712041344031250
18.92,1712041344046875
21.91,1712041344062500
23.41,1712041344078125
23.36,1712041344093750
21.82,1712041344109375
19.1,1712041344125000
15.65,1712041344140625
12.07,1712041344156250
8.88,1712041344171875
6.47,1712041344187500
4.98,1712041344203125
4.34,1712041344218750
4.29,1712041344234375
4.52,1712041344250000
4.76,1712041344265625
4.79,1712041344281250
4.57,1712041344296875
4.09,1712041344312500
3.43,1712041344328125
2.59,1712041344343750
1.55,1712041344359375
0.24,1712041344375000
-1.39,1712041344390625
-3.31,1712041344406250
-5.51,1712041344421875
-7.96,1712041344437500
-10.68,1712041344453125
-13.7,1712041344468750
-16.9,1712041344484375
-19.87,1712041344500000
-21.96,1712041344515625
-22.37,1712041344531250
-20.5,1712041344546875
-16.15,1712041344562500
-9.73,1712041344578125
-2.13,1712041344593750
5.52,1712041344609375
12.19,1712041344625000
17.22,1712041344640625
20.36,1712041344656250
21.69,1712041344671875
21.49,1712041344687500
20.09,1712041344703125
17.87,1712041344718750
15.21,1712041344734375
12.49,1712041344750000
10.04,1712041344765625
8.08,1712041344781250
6.66,1712041344796875
5.68,1712041344812500
4.94,1712041344828125
4.23,1712041344843750
3.41,1712041344859375
2.4,1712041344875000
1.19,1712041344890625
-0.23,1712041344906250
-1.81,1712041344921875
-3.48,1712041344937500
-5.15,1712041344953125
-6.76,1712041344968750
-8.33,1712041344984375
-9.96,1712041345000000
-11.78,1712041345015625
-13.94,1712041345031250
-16.56,1712041345046875
-19.69,1712041345062500
-23.26,1712041345078125
-26.98,1712041345093750
-30.3,1712041345109375
-32.47,1712041345125000
-32.72,1712041345140625
-30.56,1712041345156250
-26.05,1712041345171875
-19.77,1712041345187500
-12.65,1712041345203125
-5.61,1712041345218750
0.73,1712041345234375
6.24,1712041345250000
11.03,1712041345265625
15.2,1712041345281250
18.58,1712041345296875
20.74,1712041345312500
21.17,1712041345328125
19.65,1712041345343750
16.47,1712041345359375
12.41,1712041345375000
8.69,1712041345390625
6.55,1712041345406250
6.88,1712041345421875
9.84,1712041345437500
14.67,1712041345453125
19.82,1712041345468750
23.38,1712041345484375
23.7,1712041345500000
20.07,1712041345515625
13.05,1712041345531250
4.38,1712041345546875
-3.7,1712041345562500
-9.29,1712041345578125
-11.69,1712041345593750
-11.68,1712041345609375
-11.37,1712041345625000
-13.47,1712041345640625
-20.25,1712041345656250
-32.56,1712041345671875
-49.22,1712041345687500
-67.17,1712041345703125
-82.34,1712041345718750
-91.03,1712041345734375
-91.31,1712041345750000
-83.53,1712041345765625
-70.1,1712041345781250
-54.33,1712041345796875
-39.04,1712041345812500
-25.65,1712041345828125
-13.92,1712041345843750
-2.34,1712041345859375
10.99,1712041345875000
27.52,1712041345890625
47.47,1712041345906250
69.47,1712041345921875
