value,timestamp
-0.0,1711437362000000
-0.0,1711437362015625
-0.0,1711437362031250
-0.0,1711437362046875
-0.0,1711437362062500
-0.0,1711437362078125
-0.0,1711437362093750
-0.0,1711437362109375
-0.0,1711437362125000
-0.0,1711437362140625
0.0,1711437362156250
0.01,1711437362171875
0.01,1711437362187500
-0.0,1711437362203125
-0.03,1711437362218750
-0.05,1711437362234375
-0.05,1711437362250000
0.0,1711437362265625
0.13,1711437362281250
0.36,1711437362296875
0.66,1711437362312500
1.01,1711437362328125
1.37,1711437362343750
1.72,1711437362359375
2.06,1711437362375000
2.4,1711437362390625
2.79,1711437362406250
3.24,1711437362421875
3.8,1711437362437500
4.42,1711437362453125
5.06,1711437362468750
5.66,1711437362484375
6.2,1711437362500000
6.68,1711437362515625
7.15,1711437362531250
7.68,1711437362546875
8.31,1711437362562500
9.14,1711437362578125
10.09,1711437362593750
11.04,1711437362609375
11.88,1711437362625000
12.56,1711437362640625
13.14,1711437362656250
13.76,1711437362671875
14.65,1711437362687500
15.96,1711437362703125
17.91,1711437362718750
20.32,1711437362734375
22.9,1711437362750000
25.38,1711437362765625
27.58,1711437362781250
29.57,1711437362796875
31.68,1711437362812500
34.32,1711437362828125
37.81,1711437362843750
42.54,1711437362859375
48.15,1711437362875000
54.1,1711437362890625
59.83,1711437362906250
64.97,1711437362921875
69.58,1711437362937500
74.14,1711437362953125
79.34,1711437362968750
85.71,1711437362984375
93.76,1711437363000000
103.0,1711437363015625
112.62,1711437363031250
121.73,1711437363046875
129.77,1711437363062500
136.75,1711437363078125
143.3,1711437363093750
150.75,1711437363109375
157.77,1711437363125000
166.64,1711437363140625
177.95,1711437363156250
191.79,1711437363171875
206.97,1711437363187500
220.57,1711437363203125
228.25,1711437363218750
225.36,1711437363234375
208.53,1711437363250000
176.87,1711437363265625
132.76,1711437363281250
80.05,1711437363296875
23.07,1711437363312500
-34.94,1711437363328125
-92.44,1711437363343750
-149.16,1711437363359375
-205.23,1711437363375000
-260.37,1711437363390625
-313.74,1711437363406250
-363.87,1711437363421875
-409.83,1711437363437500
-450.91,1711437363453125
-486.5,1711437363468750
-515.74,1711437363484375
-537.23,1711437363500000
-549.22,1711437363515625
-549.96,1711437363531250
-538.37,1711437363546875
-514.21,1711437363562500
-478.67,1711437363578125
-433.88,1711437363593750
-382.45,1711437363609375
-327.02,1711437363625000
-269.84,1711437363640625
-212.63,1711437363656250
-156.66,1711437363671875
-102.95,1711437363687500
-52.37,1711437363703125
-5.9,1711437363718750
35.58,1711437363734375
71.43,1711437363750000
101.35,1711437363765625
125.5,1711437363781250
144.38,1711437363796875
158.69,1711437363812500
169.15,1711437363828125
176.37,1711437363843750
180.75,1711437363859375
182.57,1711437363875000
182.07,1711437363890625
179.51,1711437363906250
175.23,1711437363921875
169.65,1711437363937500
163.18,1711437363953125
156.15,1711437363968750
148.81,1711437363984375
141.3,1711437364000000
133.69,1711437364015625
126.02,1711437364031250
118.33,1711437364046875
110.69,1711437364062500
103.16,1711437364078125
95.8,1711437364093750
88.68,1711437364109375
81.83,1711437364125000
75.25,1711437364140625
68.95,1711437364156250
62.95,1711437364171875
57.25,1711437364187500
51.86,1711437364203125
46.78,1711437364218750
42.03,1711437364234375
37.59,1711437364250000
33.45,1711437364265625
29.61,1711437364281250
26.07,1711437364296875
22.81,1711437364312500
19.83,1711437364328125
17.11,1711437364343750
14.67,1711437364359375
12.48,1711437364375000
10.54,1711437364390625
8.83,1711437364406250
7.35,1711437364421875
6.07,1711437364437500
4.97,1711437364453125
4.05,1711437364468750
3.27,1711437364484375
2.62,1711437364500000
2.09,1711437364515625
1.65,1711437364531250
1.3,1711437364546875
1.01,1711437364562500
0.79,1711437364578125
0.61,1711437364593750
0.48,1711437364609375
0.38,1711437364625000
0.3,1711437364640625
0.25,1711437364656250
0.22,1711437364671875
0.2,1711437364687500
0.19,1711437364703125
0.2,1711437364718750
0.22,1711437364734375
0.24,1711437364750000
0.27,1711437364765625
0.3,1711437364781250
0.34,1711437364796875
0.38,1711437364812500
0.42,1711437364828125
0.46,1711437364843750
0.5,1711437364859375
0.55,1711437364875000
0.6,1711437364890625
0.65,1711437364906250
0.7,1711437364921875
0.77,1711437364937500
0.84,1711437364953125
0.91,1711437364968750
0.99,1711437364984375
1.08,1711437365000000
1.18,1711437365015625
1.29,1711437365031250
1.42,1711437365046875
1.55,1711437365062500
1.71,1711437365078125
1.88,1711437365093750
2.07,1711437365109375
2.28,1711437365125000
2.51,1711437365140625
2.77,1711437365156250
3.05,1711437365171875
3.36,1711437365187500
3.69,1711437365203125
4.07,1711437365218750
4.49,1711437365234375
4.95,1711437365250000
5.45,1711437365265625
5.97,1711437365281250
6.5,1711437365296875
7.03,1711437365312500
7.54,1711437365328125
8.08,1711437365343750
8.66,1711437365359375
9.33,1711437365375000
10.1,1711437365390625
10.97,1711437365406250
11.89,1711437365421875
12.84,1711437365437500
13.79,1711437365453125
14.73,1711437365468750
15.68,1711437365484375
16.68,1711437365500000
17.74,1711437365515625
18.87,1711437365531250
19.99,1711437365546875
21.0,1711437365562500
21.72,1711437365578125
22.0,1711437365593750
21.69,1711437365609375
20.74,1711437365625000
19.18,1711437365640625
17.03,1711437365656250
14.39,1711437365671875
11.25,1711437365687500
7.57,1711437365703125
3.32,1711437365718750
-1.42,1711437365734375
-6.48,1711437365750000
-11.51,1711437365765625
-16.09,1711437365781250
-19.83,1711437365796875
-22.52,1711437365812500
-24.24,1711437365828125
-25.34,1711437365843750
-26.31,1711437365859375
-27.56,1711437365875000
-29.27,1711437365890625
-31.29,1711437365906250
-33.21,1711437365921875
-34.58,1711437365937500
-35.11,1711437365953125
-34.93,1711437365968750
-34.49,1711437365984375
-34.43,1711437366000000
-35.24,1711437366015625
-37.04,1711437366031250
-39.49,1711437366046875
-41.88,1711437366062500
-43.58,1711437366078125
-44.18,1711437366093750
-43.76,1711437366109375
-42.84,1711437366125000
-42.12,1711437366140625
-42.29,1711437366156250
-44.02,1711437366171875
-47.85,1711437366187500
-53.93,1711437366203125
-61.46,1711437366218750
-68.4,1711437366234375
-71.72,1711437366250000
-68.49,1711437366265625
-57.34,1711437366281250
-39.47,1711437366296875
-18.69,1711437366312500
0.05,1711437366328125
12.63,1711437366343750
17.33,1711437366359375
15.18,1711437366375000
8.99,1711437366390625
1.83,1711437366406250
-4.05,1711437366421875
-7.33,1711437366437500
-7.44,1711437366453125
-4.04,1711437366468750
3.0,1711437366484375
13.15,1711437366500000
24.89,1711437366515625
35.84,1711437366531250
43.48,1711437366546875
46.12,1711437366562500
43.41,1711437366578125
36.29,1711437366593750
26.45,1711437366609375
15.73,1711437366625000
5.68,1711437366640625
-2.5,1711437366656250
-7.9,1711437366671875
-9.73,1711437366687500
-8.61,1711437366703125
-4.76,1711437366718750
1.24,1711437366734375
8.41,1711437366750000
15.52,1711437366765625
21.52,1711437366781250
25.86,1711437366796875
28.56,1711437366812500
30.09,1711437366828125
30.96,1711437366843750
31.47,1711437366859375
31.3,1711437366875000
29.71,1711437366890625
26.0,1711437366906250
19.87,1711437366921875
11.74,1711437366937500
2.53,1711437366953125
-6.62,1711437366968750
-14.83,1711437366984375
-21.64,1711437367000000
-27.28,1711437367015625
-32.47,1711437367031250
-38.18,1711437367046875
-45.34,1711437367062500
-54.66,1711437367078125
-66.3,1711437367093750
-79.62,1711437367109375
-92.85,1711437367125000
-103.09,1711437367140625
-106.98,1711437367156250
-101.66,1711437367171875
-85.84,1711437367187500
-60.54,1711437367203125
-28.98,1711437367218750
4.35,1711437367234375
35.04,1711437367250000
60.0,1711437367265625
78.05,1711437367281250
89.64,1711437367296875
96.17,1711437367312500
99.19,1711437367328125
99.88,1711437367343750
98.98,1711437367359375
96.94,1711437367375000
94.03,1711437367390625
90.48,1711437367406250
86.48,1711437367421875
82.14,1711437367437500
77.56,1711437367453125
72.82,1711437367468750
68.0,1711437367484375
63.17,1711437367500000
58.43,1711437367515625
53.89,1711437367531250
49.79,1711437367546875
46.41,1711437367562500
44.09,1711437367578125
42.95,1711437367593750
42.8,1711437367609375
43.07,1711437367625000
42.97,1711437367640625
41.75,1711437367656250
39.01,1711437367671875
34.89,1711437367687500
29.98,1711437367703125
25.08,1711437367718750
20.85,1711437367734375
17.45,1711437367750000
14.45,1711437367765625
10.97,1711437367781250
6.0,1711437367796875
-1.28,1711437367812500
-11.29,1711437367828125
-23.96,1711437367843750
-38.65,1711437367859375
-54.07,1711437367875000
-68.15,1711437367890625
-78.22,1711437367906250
-81.52,1711437367921875
-76.09,1711437367937500
-61.66,1711437367953125
-40.11,1711437367968750
-15.06,1711437367984375
9.21,1711437368000000
29.16,1711437368015625
42.96,1711437368031250
50.65,1711437368046875
53.54,1711437368062500
53.31,1711437368078125
51.27,1711437368093750
48.18,1711437368109375
44.38,1711437368125000
40.18,1711437368140625
36.01,1711437368156250
32.37,1711437368171875
29.58,1711437368187500
27.61,1711437368203125
26.06,1711437368218750
24.34,1711437368234375
22.0,1711437368250000
18.94,1711437368265625
15.48,1711437368281250
12.28,1711437368296875
9.97,1711437368312500
8.88,1711437368328125
8.86,1711437368343750
9.27,1711437368359375
9.14,1711437368375000
7.54,1711437368390625
3.92,1711437368406250
-1.8,1711437368421875
-9.13,1711437368437500
-17.36,1711437368453125
-25.85,1711437368468750
-34.34,1711437368484375
-42.99,1711437368500000
-52.23,1711437368515625
-62.5,1711437368531250
-73.9,1711437368546875
-86.06,1711437368562500
-98.15,1711437368578125
-108.8,1711437368593750
-116.12,1711437368609375
-117.79,1711437368625000
-111.48,1711437368640625
-95.56,1711437368656250
-69.87,1711437368671875
-36.17,1711437368687500
2.15,1711437368703125
41.14,1711437368718750
77.35,1711437368734375
108.76,1711437368750000
134.74,1711437368765625
155.48,1711437368781250
171.09,1711437368796875
181.26,1711437368812500
185.27,1711437368828125
182.6,1711437368843750
173.34,1711437368859375
158.3,1711437368875000
138.72,1711437368890625
115.83,1711437368906250
90.57,1711437368921875
63.62,1711437368937500
35.74,1711437368953125
8.05,1711437368968750
-17.99,1711437368984375
-40.83,1711437369000000
-59.22,1711437369015625
-72.6,1711437369031250
-81.15,1711437369046875
-85.54,1711437369062500
-86.63,1711437369078125
-85.06,1711437369093750
-81.25,1711437369109375
-75.45,1711437369125000
-67.96,1711437369140625
-59.29,1711437369156250
-50.25,1711437369171875
-41.79,1711437369187500
-34.85,1711437369203125
-30.02,1711437369218750
-27.34,1711437369234375
-26.12,1711437369250000
-25.15,1711437369265625
-23.15,1711437369281250
-19.37,1711437369296875
-14.16,1711437369312500
-8.84,1711437369328125
-5.24,1711437369343750
-4.83,1711437369359375
-8.05,1711437369375000
-14.25,1711437369390625
-22.09,1711437369406250
-30.06,1711437369421875
-36.9,1711437369437500
-41.73,1711437369453125
-43.99,1711437369468750
-43.51,1711437369484375
-40.8,1711437369500000
-37.17,1711437369515625
-34.39,1711437369531250
-33.9,1711437369546875
-35.91,1711437369562500
-38.9,1711437369578125
-40.1,1711437369593750
-36.73,1711437369609375
-27.39,1711437369625000
-12.87,1711437369640625
4.09,1711437369656250
20.03,1711437369671875
32.12,1711437369687500
39.18,1711437369703125
41.74,1711437369718750
41.4,1711437369734375
39.86,1711437369750000
38.17,1711437369765625
36.7,1711437369781250
35.38,1711437369796875
34.31,1711437369812500
34.01,1711437369828125
35.25,1711437369843750
38.56,1711437369859375
43.75,1711437369875000
49.78,1711437369890625
55.16,1711437369906250
58.64,1711437369921875
59.93,1711437369937500
59.72,1711437369953125
59.26,1711437369968750
59.44,1711437369984375
60.24,1711437370000000
60.6,1711437370015625
59.01,1711437370031250
54.3,1711437370046875
46.32,1711437370062500
35.97,1711437370078125
24.73,1711437370093750
13.96,1711437370109375
4.31,1711437370125000
-4.39,1711437370140625
-12.88,1711437370156250
-22.01,1711437370171875
-32.36,1711437370187500
-43.97,1711437370203125
-56.37,1711437370218750
-68.76,1711437370234375
-80.25,1711437370250000
-90.22,1711437370265625
-98.63,1711437370281250
-106.13,1711437370296875
-113.91,1711437370312500
-123.15,1711437370328125
-134.35,1711437370343750
-146.75,1711437370359375
-158.16,1711437370375000
-165.52,1711437370390625
-165.86,1711437370406250
-157.39,1711437370421875
-140.22,1711437370437500
-116.34,1711437370453125
-88.98,1711437370468750
-61.48,1711437370484375
-36.17,1711437370500000
-13.75,1711437370515625
6.78,1711437370531250
27.58,1711437370546875
51.06,1711437370562500
78.86,1711437370578125
111.04,1711437370593750
145.75,1711437370609375
179.62,1711437370625000
208.51,1711437370640625
228.62,1711437370656250
237.42,1711437370671875
234.22,1711437370687500
220.24,1711437370703125
198.1,1711437370718750
171.15,1711437370734375
142.65,1711437370750000
115.1,1711437370765625
89.99,1711437370781250
67.77,1711437370796875
48.21,1711437370812500
30.84,1711437370828125
15.31,1711437370843750
1.51,1711437370859375
-10.45,1711437370875000
-20.52,1711437370890625
-28.85,1711437370906250
-35.77,1711437370921875
-41.69,1711437370937500
-46.93,1711437370953125
-51.73,1711437370968750
-56.29,1711437370984375
-60.89,1711437371000000
-65.82,1711437371015625
-71.28,1711437371031250
-77.21,1711437371046875
-83.28,1711437371062500
-88.94,1711437371078125
-93.7,1711437371093750
-97.33,1711437371109375
-100.0,1711437371125000
-102.15,1711437371140625
-104.13,1711437371156250
-105.94,1711437371171875
-106.94,1711437371187500
-106.04,1711437371203125
-102.05,1711437371218750
-94.23,1711437371234375
-82.75,1711437371250000
-68.63,1711437371265625
-53.57,1711437371281250
-39.25,1711437371296875
-26.93,1711437371312500
-17.22,1711437371328125
-10.06,1711437371343750
-5.11,1711437371359375
-1.92,1711437371375000
-0.08,1711437371390625
0.75,1711437371406250
0.96,1711437371421875
0.96,1711437371437500
1.09,1711437371453125
1.52,1711437371468750
2.26,1711437371484375
3.15,1711437371500000
3.96,1711437371515625
4.54,1711437371531250
4.81,1711437371546875
4.73,1711437371562500
4.29,1711437371578125
3.38,1711437371593750
1.78,1711437371609375
-0.78,1711437371625000
-4.57,1711437371640625
-9.72,1711437371656250
-16.1,1711437371671875
-23.36,1711437371687500
-31.04,1711437371703125
-38.71,1711437371718750
-46.14,1711437371734375
-53.42,1711437371750000
-60.84,1711437371765625
-68.75,1711437371781250
-77.4,1711437371796875
-86.81,1711437371812500
-96.7,1711437371828125
-106.62,1711437371843750
-116.08,1711437371859375
-124.78,1711437371875000
-132.89,1711437371890625
-141.23,1711437371906250
-151.0,1711437371921875
-163.26,1711437371937500
-178.07,1711437371953125
-193.87,1711437371968750
-207.47,1711437371984375
-214.8,1711437372000000
-212.09,1711437372015625
-197.11,1711437372031250
-169.61,1711437372046875
-131.29,1711437372062500
-85.2,1711437372078125
-35.13,1711437372093750
14.89,1711437372109375
60.88,1711437372125000
99.32,1711437372140625
127.7,1711437372156250
145.05,1711437372171875
152.13,1711437372187500
151.11,1711437372203125
144.76,1711437372218750
135.64,1711437372234375
125.49,1711437372250000
115.23,1711437372265625
105.11,1711437372281250
95.11,1711437372296875
85.04,1711437372312500
74.76,1711437372328125
64.22,1711437372343750
53.64,1711437372359375
43.64,1711437372375000
35.19,1711437372390625
29.26,1711437372406250
26.49,1711437372421875
26.72,1711437372437500
28.97,1711437372453125
31.75,1711437372468750
33.51,1711437372484375
33.19,1711437372500000
30.57,1711437372515625
26.16,1711437372531250
20.93,1711437372546875
15.78,1711437372562500
11.09,1711437372578125
6.51,1711437372593750
1.17,1711437372609375
-5.92,1711437372625000
-15.27,1711437372640625
-26.49,1711437372656250
-38.23,1711437372671875
-48.52,1711437372687500
-55.42,1711437372703125
-57.65,1711437372718750
-54.99,1711437372734375
-48.28,1711437372750000
-39.12,1711437372765625
-29.25,1711437372781250
-20.08,1711437372796875
-12.35,1711437372812500
-5.97,1711437372828125
-0.28,1711437372843750
5.68,1711437372859375
12.79,1711437372875000
21.62,1711437372890625
32.32,1711437372906250
44.53,1711437372921875
57.5,1711437372937500
70.15,1711437372953125
81.23,1711437372968750
89.6,1711437372984375
94.56,1711437373000000
96.12,1711437373015625
95.03,1711437373031250
92.64,1711437373046875
90.39,1711437373062500
89.3,1711437373078125
89.61,1711437373093750
90.83,1711437373109375
91.97,1711437373125000
92.08,1711437373140625
90.67,1711437373156250
87.81,1711437373171875
84.06,1711437373187500
80.16,1711437373203125
76.69,1711437373218750
73.9,1711437373234375
71.72,1711437373250000
69.87,1711437373265625
68.07,1711437373281250
66.17,1711437373296875
64.14,1711437373312500
62.15,1711437373328125
60.65,1711437373343750
60.51,1711437373359375
62.79,1711437373375000
68.47,1711437373390625
77.8,1711437373406250
89.95,1711437373421875
103.1,1711437373437500
115.11,1711437373453125
124.48,1711437373468750
130.97,1711437373484375
135.65,1711437373500000
140.0,1711437373515625
144.91,1711437373531250
149.86,1711437373546875
153.07,1711437373562500
152.33,1711437373578125
145.99,1711437373593750
133.62,1711437373609375
115.88,1711437373625000
93.87,1711437373640625
68.53,1711437373656250
40.5,1711437373671875
10.26,1711437373687500
-21.38,1711437373703125
-53.16,1711437373718750
-83.55,1711437373734375
-111.03,1711437373750000
-134.39,1711437373765625
-152.75,1711437373781250
-165.58,1711437373796875
-172.76,1711437373812500
-174.72,1711437373828125
-172.61,1711437373843750
-168.2,1711437373859375
-163.36,1711437373875000
-159.64,1711437373890625
-157.73,1711437373906250
-157.6,1711437373921875
-158.83,1711437373937500
-161.05,1711437373953125
-164.29,1711437373968750
-168.87,1711437373984375
-175.13,1711437374000000
-183.09,1711437374015625
-192.35,1711437374031250
-202.15,1711437374046875
-211.44,1711437374062500
-218.92,1711437374078125
-222.96,1711437374093750
-221.77,1711437374109375
-213.65,1711437374125000
-197.68,1711437374140625
-174.17,1711437374156250
-144.94,1711437374171875
-112.8,1711437374187500
-80.73,1711437374203125
-50.79,1711437374218750
-23.55,1711437374234375
1.89,1711437374250000
27.11,1711437374265625
53.4,1711437374281250
81.09,1711437374296875
109.22,1711437374312500
135.93,1711437374328125
159.05,1711437374343750
176.66,1711437374359375
187.54,1711437374375000
191.4,1711437374390625
188.86,1711437374406250
181.29,1711437374421875
170.5,1711437374437500
158.32,1711437374453125
146.21,1711437374468750
135.01,1711437374484375
125.02,1711437374500000
116.13,1711437374515625
108.1,1711437374531250
100.67,1711437374546875
93.64,1711437374562500
86.86,1711437374578125
80.2,1711437374593750
73.62,1711437374609375
67.19,1711437374625000
61.13,1711437374640625
55.68,1711437374656250
51.0,1711437374671875
47.11,1711437374687500
43.83,1711437374703125
40.78,1711437374718750
37.56,1711437374734375
33.82,1711437374750000
29.28,1711437374765625
23.77,1711437374781250
17.12,1711437374796875
9.2,1711437374812500
-0.09,1711437374828125
-10.57,1711437374843750
-21.59,1711437374859375
-32.09,1711437374875000
-40.74,1711437374890625
-46.41,1711437374906250
-48.51,1711437374921875
-47.18,1711437374937500
-43.22,1711437374953125
-37.64,1711437374968750
-31.34,1711437374984375
-24.87,1711437375000000
-18.38,1711437375015625
-11.94,1711437375031250
-5.68,1711437375046875
0.07,1711437375062500
4.89,1711437375078125
8.45,1711437375093750
10.72,1711437375109375
12.03,1711437375125000
12.96,1711437375140625
14.19,1711437375156250
16.18,1711437375171875
19.0,1711437375187500
22.37,1711437375203125
25.8,1711437375218750
28.91,1711437375234375
31.65,1711437375250000
34.43,1711437375265625
37.89,1711437375281250
42.49,1711437375296875
48.27,1711437375312500
54.65,1711437375328125
60.7,1711437375343750
65.56,1711437375359375
68.84,1711437375375000
70.8,1711437375390625
72.17,1711437375406250
73.9,1711437375421875
76.76,1711437375437500
81.18,1711437375453125
87.25,1711437375468750
94.73,1711437375484375
103.01,1711437375500000
110.91,1711437375515625
116.78,1711437375531250
118.79,1711437375546875
115.77,1711437375562500
107.95,1711437375578125
97.25,1711437375593750
86.82,1711437375609375
79.74,1711437375625000
77.68,1711437375640625
80.17,1711437375656250
84.84,1711437375671875
88.6,1711437375687500
88.97,1711437375703125
84.96,1711437375718750
77.1,1711437375734375
66.72,1711437375750000
55.1,1711437375765625
42.99,1711437375781250
30.64,1711437375796875
18.14,1711437375812500
5.83,1711437375828125
-5.71,1711437375843750
-15.87,1711437375859375
-24.33,1711437375875000
-31.21,1711437375890625
-37.03,1711437375906250
-42.42,1711437375921875
-47.92,1711437375937500
-53.85,1711437375953125
-60.24,1711437375968750
-67.03,1711437375984375
-74.12,1711437376000000
-81.44,1711437376015625
-88.88,1711437376031250
-96.3,1711437376046875
-103.51,1711437376062500
-110.41,1711437376078125
-117.07,1711437376093750
-123.81,1711437376109375
-131.05,1711437376125000
-139.16,1711437376140625
-148.16,1711437376156250
-157.7,1711437376171875
-167.13,1711437376187500
-175.82,1711437376203125
-183.44,1711437376218750
-190.08,1711437376234375
-196.14,1711437376250000
-202.08,1711437376265625
-208.28,1711437376281250
-214.89,1711437376296875
-221.78,1711437376312500
-228.27,1711437376328125
-232.87,1711437376343750
-233.07,1711437376359375
-225.74,1711437376375000
-208.12,1711437376390625
-179.07,1711437376406250
-139.97,1711437376421875
-94.71,1711437376437500
-48.61,1711437376453125
-6.62,1711437376468750
28.08,1711437376484375
54.61,1711437376500000
73.97,1711437376515625
87.77,1711437376531250
97.26,1711437376546875
102.98,1711437376562500
105.01,1711437376578125
103.67,1711437376593750
99.82,1711437376609375
94.77,1711437376625000
89.79,1711437376640625
85.56,1711437376656250
81.97,1711437376671875
78.39,1711437376687500
74.1,1711437376703125
68.74,1711437376718750
62.52,1711437376734375
56.02,1711437376750000
49.74,1711437376765625
43.79,1711437376781250
37.78,1711437376796875
31.06,1711437376812500
23.13,1711437376828125
13.99,1711437376843750
4.2,1711437376859375
-5.33,1711437376875000
-13.8,1711437376890625
-20.91,1711437376906250
-26.99,1711437376921875
-32.83,1711437376937500
-39.18,1711437376953125
-46.33,1711437376968750
-53.9,1711437376984375
-60.99,1711437377000000
-66.56,1711437377015625
-69.92,1711437377031250
-71.04,1711437377046875
-70.57,1711437377062500
-69.67,1711437377078125
-69.61,1711437377093750
-71.5,1711437377109375
-75.87,1711437377125000
-82.19,1711437377140625
-88.74,1711437377156250
-92.78,1711437377171875
-91.31,1711437377187500
-82.23,1711437377203125
-65.38,1711437377218750
-42.77,1711437377234375
-18.07,1711437377250000
4.75,1711437377265625
22.84,1711437377281250
35.13,1711437377296875
42.27,1711437377312500
45.76,1711437377328125
46.99,1711437377343750
46.69,1711437377359375
45.06,1711437377375000
42.15,1711437377390625
38.37,1711437377406250
34.53,1711437377421875
31.56,1711437377437500
30.07,1711437377453125
30.11,1711437377468750
31.11,1711437377484375
32.23,1711437377500000
32.78,1711437377515625
32.56,1711437377531250
31.92,1711437377546875
31.54,1711437377562500
32.06,1711437377578125
33.63,1711437377593750
35.8,1711437377609375
37.63,1711437377625000
38.12,1711437377640625
36.69,1711437377656250
33.52,1711437377671875
29.46,1711437377687500
25.67,1711437377703125
23.04,1711437377718750
21.72,1711437377734375
21.06,1711437377750000
19.9,1711437377765625
17.18,1711437377781250
12.51,1711437377796875
6.34,1711437377812500
-0.3,1711437377828125
-6.31,1711437377843750
-11.06,1711437377859375
-14.57,1711437377875000
-17.4,1711437377890625
-20.29,1711437377906250
-23.89,1711437377921875
-28.66,1711437377937500
-34.98,1711437377953125
-42.94,1711437377968750
-52.03,1711437377984375
-60.86,1711437378000000
-67.1,1711437378015625
-68.12,1711437378031250
-62.04,1711437378046875
-48.68,1711437378062500
-29.94,1711437378078125
-9.15,1711437378093750
10.17,1711437378109375
25.55,1711437378125000
36.2,1711437378140625
42.72,1711437378156250
46.3,1711437378171875
47.88,1711437378187500
47.81,1711437378203125
46.05,1711437378218750
42.65,1711437378234375
38.13,1711437378250000
33.42,1711437378265625
29.62,1711437378281250
27.43,1711437378296875
26.97,1711437378312500
27.72,1711437378328125
28.83,1711437378343750
29.52,1711437378359375
29.39,1711437378375000
28.51,1711437378390625
27.32,1711437378406250
26.29,1711437378421875
25.62,1711437378437500
25.09,1711437378453125
24.09,1711437378468750
21.92,1711437378484375
18.04,1711437378500000
12.37,1711437378515625
5.33,1711437378531250
-2.28,1711437378546875
-9.54,1711437378562500
-15.79,1711437378578125
-20.72,1711437378593750
-24.52,1711437378609375
-27.69,1711437378625000
-30.84,1711437378640625
-34.57,1711437378656250
-39.38,1711437378671875
-45.63,1711437378687500
-53.34,1711437378703125
-61.93,1711437378718750
-69.95,1711437378734375
-75.21,1711437378750000
-75.4,1711437378765625
-68.95,1711437378781250
-55.92,1711437378796875
-38.13,1711437378812500
-18.7,1711437378828125
-0.81,1711437378843750
13.29,1711437378859375
22.88,1711437378875000
28.46,1711437378890625
31.12,1711437378906250
31.8,1711437378921875
30.96,1711437378937500
28.76,1711437378953125
25.4,1711437378968750
21.38,1711437378984375
17.47,1711437379000000
14.45,1711437379015625
12.8,1711437379031250
12.54,1711437379046875
13.23,1711437379062500
14.18,1711437379078125
14.77,1711437379093750
14.71,1711437379109375
14.1,1711437379125000
13.35,1711437379140625
12.87,1711437379156250
12.77,1711437379171875
12.74,1711437379187500
12.1,1711437379203125
10.09,1711437379218750
6.29,1711437379234375
0.79,1711437379250000
-5.78,1711437379265625
-12.53,1711437379281250
-18.65,1711437379296875
-23.74,1711437379312500
-27.94,1711437379328125
-31.83,1711437379343750
-36.28,1711437379359375
-42.18,1711437379375000
-50.15,1711437379390625
-60.26,1711437379406250
-71.69,1711437379421875
-82.61,1711437379437500
-90.46,1711437379453125
-92.52,1711437379468750
-86.87,1711437379484375
-73.18,1711437379500000
-52.99,1711437379515625
-29.31,1711437379531250
-5.68,1711437379546875
14.94,1711437379562500
30.97,1711437379578125
42.17,1711437379593750
49.33,1711437379609375
53.47,1711437379625000
55.38,1711437379640625
55.49,1711437379656250
54.07,1711437379671875
51.5,1711437379687500
48.31,1711437379703125
45.15,1711437379718750
42.49,1711437379734375
40.55,1711437379750000
39.32,1711437379765625
38.63,1711437379781250
38.36,1711437379796875
38.52,1711437379812500
39.13,1711437379828125
40.1,1711437379843750
41.18,1711437379859375
41.94,1711437379875000
41.96,1711437379890625
40.99,1711437379906250
38.99,1711437379921875
36.18,1711437379937500
32.84,1711437379953125
29.19,1711437379968750
25.3,1711437379984375
21.12,1711437380000000
16.45,1711437380015625
11.26,1711437380031250
5.57,1711437380046875
-0.44,1711437380062500
-6.5,1711437380078125
-12.41,1711437380093750
-18.11,1711437380109375
-23.72,1711437380125000
-29.54,1711437380140625
-36.11,1711437380156250
-44.02,1711437380171875
-53.77,1711437380187500
-65.29,1711437380203125
-77.58,1711437380218750
-88.48,1711437380234375
-95.11,1711437380250000
-94.7,1711437380265625
-85.68,1711437380281250
-68.52,1711437380296875
-45.7,1711437380312500
-20.97,1711437380328125
1.96,1711437380343750
20.55,1711437380359375
33.88,1711437380375000
42.45,1711437380390625
47.42,1711437380406250
49.89,1711437380421875
50.49,1711437380437500
49.51,1711437380453125
47.19,1711437380468750
43.96,1711437380484375
40.5,1711437380500000
37.56,1711437380515625
35.58,1711437380531250
34.63,1711437380546875
34.4,1711437380562500
34.46,1711437380578125
34.53,1711437380593750
34.69,1711437380609375
35.17,1711437380625000
36.25,1711437380640625
37.91,1711437380656250
39.66,1711437380671875
40.74,1711437380687500
40.37,1711437380703125
38.08,1711437380718750
33.95,1711437380734375
28.58,1711437380750000
22.82,1711437380765625
17.49,1711437380781250
13.08,1711437380796875
9.6,1711437380812500
6.61,1711437380828125
3.41,1711437380843750
-0.67,1711437380859375
-6.01,1711437380875000
-12.46,1711437380890625
-19.44,1711437380906250
-26.13,1711437380921875
-31.8,1711437380937500
-36.14,1711437380953125
-39.36,1711437380968750
-42.14,1711437380984375
-45.42,1711437381000000
-50.16,1711437381015625
-56.98,1711437381031250
-65.81,1711437381046875
-75.63,1711437381062500
-84.34,1711437381078125
-89.24,1711437381093750
-87.74,1711437381109375
-78.37,1711437381125000
-61.47,1711437381140625
-39.29,1711437381156250
-15.19,1711437381171875
7.36,1711437381187500
25.95,1711437381203125
39.57,1711437381218750
48.49,1711437381234375
53.59,1711437381250000
55.81,1711437381265625
55.86,1711437381281250
54.24,1711437381296875
51.54,1711437381312500
48.42,1711437381328125
45.6,1711437381343750
43.55,1711437381359375
42.42,1711437381375000
42.06,1711437381390625
42.03,1711437381406250
41.93,1711437381421875
41.46,1711437381437500
40.55,1711437381453125
39.37,1711437381468750
38.2,1711437381484375
37.31,1711437381500000
36.82,1711437381515625
36.55,1711437381531250
36.07,1711437381546875
34.79,1711437381562500
32.22,1711437381578125
28.14,1711437381593750
22.73,1711437381609375
16.55,1711437381625000
10.39,1711437381640625
4.97,1711437381656250
0.73,1711437381671875
-2.32,1711437381687500
-4.58,1711437381703125
-6.79,1711437381718750
-9.64,1711437381734375
-13.6,1711437381750000
-18.66,1711437381765625
-24.38,1711437381781250
-30.13,1711437381796875
-35.37,1711437381812500
-39.85,1711437381828125
-43.68,1711437381843750
-47.25,1711437381859375
-51.06,1711437381875000
-55.7,1711437381890625
-61.74,1711437381906250
-69.56,1711437381921875
-79.0,1711437381937500
-88.92,1711437381953125
-97.1,1711437381968750
-100.7,1711437381984375
-97.15,1711437382000000
-85.26,1711437382015625
-65.91,1711437382031250
-41.85,1711437382046875
-16.78,1711437382062500
5.94,1711437382078125
24.25,1711437382093750
37.66,1711437382109375
46.82,1711437382125000
52.72,1711437382140625
56.11,1711437382156250
57.3,1711437382171875
56.41,1711437382187500
53.74,1711437382203125
49.97,1711437382218750
46.04,1711437382234375
42.92,1711437382250000
41.18,1711437382265625
40.85,1711437382281250
41.51,1711437382296875
42.52,1711437382312500
43.36,1711437382328125
43.85,1711437382343750
44.1,1711437382359375
44.35,1711437382375000
44.78,1711437382390625
45.36,1711437382406250
45.85,1711437382421875
45.86,1711437382437500
45.01,1711437382453125
43.01,1711437382468750
39.75,1711437382484375
35.38,1711437382500000
30.27,1711437382515625
24.99,1711437382531250
20.06,1711437382546875
15.76,1711437382562500
11.91,1711437382578125
7.99,1711437382593750
3.38,1711437382609375
-2.31,1711437382625000
-8.96,1711437382640625
-15.96,1711437382656250
-22.51,1711437382671875
-27.93,1711437382687500
-31.98,1711437382703125
-34.9,1711437382718750
-37.32,1711437382734375
-40.01,1711437382750000
-43.67,1711437382765625
-48.88,1711437382781250
-55.9,1711437382796875
-64.56,1711437382812500
-73.98,1711437382828125
-82.43,1711437382843750
-87.58,1711437382859375
-87.12,1711437382875000
-79.57,1711437382890625
-64.99,1711437382906250
-45.17,1711437382921875
-23.1,1711437382937500
-2.0,1711437382953125
15.7,1711437382968750
28.82,1711437382984375
37.48,1711437383000000
42.51,1711437383015625
44.81,1711437383031250
44.97,1711437383046875
43.28,1711437383062500
39.95,1711437383078125
35.43,1711437383093750
30.46,1711437383109375
25.91,1711437383125000
22.54,1711437383140625
20.72,1711437383156250
20.34,1711437383171875
20.97,1711437383187500
22.06,1711437383203125
23.25,1711437383218750
24.42,1711437383234375
25.77,1711437383250000
27.53,1711437383265625
29.77,1711437383281250
32.23,1711437383296875
34.4,1711437383312500
35.59,1711437383328125
35.31,1711437383343750
33.4,1711437383359375
30.14,1711437383375000
26.07,1711437383390625
21.87,1711437383406250
18.01,1711437383421875
14.67,1711437383437500
11.68,1711437383453125
8.56,1711437383468750
4.78,1711437383484375
-0.04,1711437383500000
-5.91,1711437383515625
-12.4,1711437383531250
-18.78,1711437383546875
-24.29,1711437383562500
-28.44,1711437383578125
-31.22,1711437383593750
-33.12,1711437383609375
-34.98,1711437383625000
-37.66,1711437383640625
-41.86,1711437383656250
-47.98,1711437383671875
-55.9,1711437383687500
-64.84,1711437383703125
-73.19,1711437383718750
-78.72,1711437383734375
-79.13,1711437383750000
-72.84,1711437383765625
-59.77,1711437383781250
-41.48,1711437383796875
-20.77,1711437383812500
-0.7,1711437383828125
16.37,1711437383843750
29.24,1711437383859375
37.84,1711437383875000
42.72,1711437383890625
44.56,1711437383906250
43.89,1711437383921875
41.18,1711437383937500
37.03,1711437383953125
32.24,1711437383968750
27.69,1711437383984375
24.12,1711437384000000
21.96,1711437384015625
21.19,1711437384031250
21.55,1711437384046875
22.55,1711437384062500
23.78,1711437384078125
24.98,1711437384093750
26.03,1711437384109375
26.96,1711437384125000
27.77,1711437384140625
28.38,1711437384156250
28.59,1711437384171875
28.15,1711437384187500
26.85,1711437384203125
24.64,1711437384218750
21.58,1711437384234375
17.82,1711437384250000
13.46,1711437384265625
8.59,1711437384281250
3.29,1711437384296875
-2.24,1711437384312500
-7.65,1711437384328125
-12.59,1711437384343750
-16.77,1711437384359375
-20.16,1711437384375000
-22.96,1711437384390625
-25.59,1711437384406250
-28.53,1711437384421875
-32.3,1711437384437500
-37.37,1711437384453125
-44.01,1711437384468750
-52.03,1711437384484375
-60.47,1711437384500000
-67.57,1711437384515625
-71.07,1711437384531250
-68.96,1711437384546875
-60.3,1711437384562500
-45.72,1711437384578125
-27.3,1711437384593750
-7.85,1711437384609375
9.97,1711437384625000
24.49,1711437384640625
35.1,1711437384656250
42.08,1711437384671875
46.03,1711437384687500
47.54,1711437384703125
47.07,1711437384718750
44.97,1711437384734375
41.73,1711437384750000
37.88,1711437384765625
33.93,1711437384781250
30.25,1711437384796875
27.04,1711437384812500
24.35,1711437384828125
22.21,1711437384843750
20.67,1711437384859375
19.83,1711437384875000
19.75,1711437384890625
20.44,1711437384906250
21.74,1711437384921875
23.29,1711437384937500
24.56,1711437384953125
24.93,1711437384968750
23.82,1711437384984375
21.0,1711437385000000
16.69,1711437385015625
11.56,1711437385031250
6.51,1711437385046875
2.28,1711437385062500
-0.9,1711437385078125
-3.44,1711437385093750
-6.19,1711437385109375
-9.92,1711437385125000
-14.97,1711437385140625
-21.01,1711437385156250
-27.2,1711437385171875
-32.6,1711437385187500
-36.63,1711437385203125
-39.28,1711437385218750
-41.05,1711437385234375
-42.81,1711437385250000
-45.48,1711437385265625
-49.82,1711437385281250
-56.22,1711437385296875
-64.42,1711437385312500
-73.26,1711437385328125
-80.72,1711437385343750
-84.33,1711437385359375
-81.93,1711437385375000
-72.53,1711437385390625
-56.8,1711437385406250
-36.98,1711437385421875
-16.1,1711437385437500
3.02,1711437385453125
18.61,1711437385468750
30.16,1711437385484375
38.1,1711437385500000
43.18,1711437385515625
45.97,1711437385531250
46.78,1711437385546875
45.75,1711437385562500
43.19,1711437385578125
39.68,1711437385593750
36.02,1711437385609375
32.97,1711437385625000
30.99,1711437385640625
30.12,1711437385656250
30.05,1711437385671875
30.28,1711437385687500
30.4,1711437385703125
30.28,1711437385718750
30.06,1711437385734375
30.04,1711437385750000
30.44,1711437385765625
31.17,1711437385781250
31.79,1711437385796875
31.61,1711437385812500
30.01,1711437385828125
26.74,1711437385843750
22.05,1711437385859375
16.62,1711437385875000
11.31,1711437385890625
6.77,1711437385906250
3.15,1711437385921875
0.11,1711437385937500
-2.99,1711437385953125
-6.75,1711437385968750
-11.44,1711437385984375
-16.81,1711437386000000
-22.28,1711437386015625
-27.14,1711437386031250
-30.9,1711437386046875
-33.48,1711437386062500
-35.24,1711437386078125
-36.83,1711437386093750
-39.02,1711437386109375
-42.54,1711437386125000
-47.94,1711437386140625
-55.38,1711437386156250
-64.33,1711437386171875
-73.4,1711437386187500
-80.38,1711437386203125
-82.8,1711437386218750
-78.7,1711437386234375
-67.48,1711437386250000
-50.29,1711437386265625
-29.67,1711437386281250
-8.74,1711437386296875
9.84,1711437386312500
24.58,1711437386328125
35.25,1711437386343750
42.46,1711437386359375
47.04,1711437386375000
49.56,1711437386390625
50.27,1711437386406250
49.31,1711437386421875
46.98,1711437386437500
43.88,1711437386453125
40.76,1711437386468750
38.34,1711437386484375
37.01,1711437386500000
36.75,1711437386515625
37.18,1711437386531250
37.75,1711437386546875
38.07,1711437386562500
38.03,1711437386578125
37.81,1711437386593750
37.7,1711437386609375
37.89,1711437386625000
38.28,1711437386640625
38.43,1711437386656250
37.77,1711437386671875
35.84,1711437386687500
32.46,1711437386703125
27.87,1711437386718750
22.6,1711437386734375
17.3,1711437386750000
12.51,1711437386765625
8.49,1711437386781250
5.15,1711437386796875
2.12,1711437386812500
-1.11,1711437386828125
-5.03,1711437386843750
-9.88,1711437386859375
-15.56,1711437386875000
-21.59,1711437386890625
-27.33,1711437386906250
-32.16,1711437386921875
-35.76,1711437386937500
-38.28,1711437386953125
-40.3,1711437386968750
-42.71,1711437386984375
-46.42,1711437387000000
-52.09,1711437387015625
-59.84,1711437387031250
-68.92,1711437387046875
-77.67,1711437387062500
-83.69,1711437387078125
-84.51,1711437387093750
-78.38,1711437387109375
-64.98,1711437387125000
-45.69,1711437387140625
-23.23,1711437387156250
-0.89,1711437387171875
18.56,1711437387187500
33.45,1711437387203125
43.39,1711437387218750
48.98,1711437387234375
51.25,1711437387250000
51.2,1711437387265625
49.62,1711437387281250
47.06,1711437387296875
44.01,1711437387312500
40.97,1711437387328125
38.42,1711437387343750
36.71,1711437387359375
36.03,1711437387375000
36.22,1711437387390625
36.95,1711437387406250
37.86,1711437387421875
38.7,1711437387437500
39.47,1711437387453125
40.39,1711437387468750
41.64,1711437387484375
43.22,1711437387500000
44.8,1711437387515625
45.76,1711437387531250
45.4,1711437387546875
43.28,1711437387562500
39.39,1711437387578125
34.21,1711437387593750
28.48,1711437387609375
22.9,1711437387625000
17.75,1711437387640625
12.78,1711437387656250
7.3,1711437387671875
0.58,1711437387687500
-7.76,1711437387703125
-17.46,1711437387718750
-27.64,1711437387734375
-37.09,1711437387750000
-44.76,1711437387765625
-50.04,1711437387781250
-53.01,1711437387796875
-54.32,1711437387812500
-54.95,1711437387828125
-55.98,1711437387843750
-58.36,1711437387859375
-62.64,1711437387875000
-68.66,1711437387890625
-75.44,1711437387906250
-81.07,1711437387921875
-83.23,1711437387937500
-79.86,1711437387953125
-69.97,1711437387968750
-54.21,1711437387984375
-34.71,1711437388000000
-14.46,1711437388015625
3.65,1711437388031250
17.63,1711437388046875
26.71,1711437388062500
31.17,1711437388078125
31.88,1711437388093750
29.75,1711437388109375
25.55,1711437388125000
19.87,1711437388140625
13.31,1711437388156250
6.53,1711437388171875
0.27,1711437388187500
-4.8,1711437388203125
-8.3,1711437388218750
-10.24,1711437388234375
-11.04,1711437388250000
-11.34,1711437388265625
-11.79,1711437388281250
-12.69,1711437388296875
-13.95,1711437388312500
-15.13,1711437388328125
-15.72,1711437388343750
-15.52,1711437388359375
-14.78,1711437388375000
-14.16,1711437388390625
-14.38,1711437388406250
-15.84,1711437388421875
-18.43,1711437388437500
-21.49,1711437388453125
-24.18,1711437388468750
-25.85,1711437388484375
-26.32,1711437388500000
-25.87,1711437388515625
-25.13,1711437388531250
-24.76,1711437388546875
-25.16,1711437388562500
-26.4,1711437388578125
-28.19,1711437388593750
-30.07,1711437388609375
-31.53,1711437388625000
-32.3,1711437388640625
-32.43,1711437388656250
-32.33,1711437388671875
-32.69,1711437388687500
-34.29,1711437388703125
-37.87,1711437388718750
-43.9,1711437388734375
-52.35,1711437388750000
-62.41,1711437388765625
-72.39,1711437388781250
-79.87,1711437388796875
-82.28,1711437388812500
-77.71,1711437388828125
-65.68,1711437388843750
-47.44,1711437388859375
-25.61,1711437388875000
-3.39,1711437388890625
16.49,1711437388906250
32.39,1711437388921875
43.84,1711437388937500
51.29,1711437388953125
55.54,1711437388968750
57.36,1711437388984375
57.4,1711437389000000
56.18,1711437389015625
54.17,1711437389031250
51.83,1711437389046875
49.6,1711437389062500
47.82,1711437389078125
46.76,1711437389093750
46.53,1711437389109375
47.12,1711437389125000
48.31,1711437389140625
49.79,1711437389156250
51.24,1711437389171875
52.43,1711437389187500
53.34,1711437389203125
54.04,1711437389218750
54.58,1711437389234375
54.8,1711437389250000
54.37,1711437389265625
52.82,1711437389281250
49.85,1711437389296875
45.45,1711437389312500
40.01,1711437389328125
34.14,1711437389343750
28.5,1711437389359375
23.52,1711437389375000
19.3,1711437389390625
15.61,1711437389406250
12.03,1711437389421875
8.12,1711437389437500
3.56,1711437389453125
-1.71,1711437389468750
-7.56,1711437389484375
-13.68,1711437389500000
-19.68,1711437389515625
-25.19,1711437389531250
-29.94,1711437389546875
-33.85,1711437389562500
-37.11,1711437389578125
-40.13,1711437389593750
-43.52,1711437389609375
-48.04,1711437389625000
-54.32,1711437389640625
-62.69,1711437389656250
-72.73,1711437389671875
-83.02,1711437389687500
-91.23,1711437389703125
-94.67,1711437389718750
-91.15,1711437389734375
-79.93,1711437389750000
-62.06,1711437389765625
-40.15,1711437389781250
-17.45,1711437389796875
3.2,1711437389812500
20.14,1711437389828125
32.97,1711437389843750
42.06,1711437389859375
48.04,1711437389875000
51.31,1711437389890625
52.1,1711437389906250
50.69,1711437389921875
47.67,1711437389937500
43.89,1711437389953125
40.27,1711437389968750
37.41,1711437389984375
35.55,1711437390000000
34.55,1711437390015625
34.14,1711437390031250
34.1,1711437390046875
34.34,1711437390062500
34.87,1711437390078125
35.7,1711437390093750
36.78,1711437390109375
37.95,1711437390125000
39.0,1711437390140625
39.67,1711437390156250
39.66,1711437390171875
38.76,1711437390187500
36.78,1711437390203125
33.67,1711437390218750
29.51,1711437390234375
24.58,1711437390250000
19.27,1711437390265625
14.01,1711437390281250
9.19,1711437390296875
5.03,1711437390312500
1.54,1711437390328125
-1.46,1711437390343750
-4.33,1711437390359375
-7.46,1711437390375000
-11.08,1711437390390625
-15.25,1711437390406250
-19.75,1711437390421875
-24.22,1711437390437500
-28.32,1711437390453125
-31.9,1711437390468750
-35.02,1711437390484375
-37.97,1711437390500000
-41.18,1711437390515625
-45.13,1711437390531250
-50.34,1711437390546875
-57.17,1711437390562500
-65.63,1711437390578125
-75.04,1711437390593750
-83.85,1711437390609375
-89.75,1711437390625000
-90.34,1711437390640625
-83.94,1711437390656250
-70.34,1711437390671875
-51.01,1711437390687500
-28.7,1711437390703125
-6.55,1711437390718750
12.93,1711437390734375
28.37,1711437390750000
39.57,1711437390765625
47.0,1711437390781250
51.33,1711437390796875
53.03,1711437390812500
52.46,1711437390828125
49.97,1711437390843750
46.2,1711437390859375
42.02,1711437390875000
38.31,1711437390890625
35.75,1711437390906250
34.53,1711437390921875
34.43,1711437390937500
34.96,1711437390953125
35.69,1711437390968750
36.4,1711437390984375
37.15,1711437391000000
38.14,1711437391015625
39.46,1711437391031250
40.9,1711437391046875
41.92,1711437391062500
41.82,1711437391078125
40.08,1711437391093750
36.53,1711437391109375
31.57,1711437391125000
25.94,1711437391140625
20.5,1711437391156250
15.81,1711437391171875
11.97,1711437391187500
8.56,1711437391203125
4.88,1711437391218750
0.27,1711437391234375
-5.58,1711437391250000
-12.45,1711437391265625
-19.74,1711437391281250
-26.63,1711437391296875
-32.45,1711437391312500
-36.94,1711437391328125
-40.34,1711437391343750
-43.32,1711437391359375
-46.81,1711437391375000
-51.75,1711437391390625
-58.71,1711437391406250
-67.66,1711437391421875
-77.66,1711437391437500
-86.88,1711437391453125
-92.95,1711437391468750
-93.52,1711437391484375
-87.04,1711437391500000
-73.39,1711437391515625
-54.01,1711437391531250
-31.51,1711437391546875
-8.87,1711437391562500
11.4,1711437391578125
27.76,1711437391593750
39.75,1711437391609375
47.71,1711437391625000
52.33,1711437391640625
54.43,1711437391656250
54.8,1711437391671875
54.24,1711437391687500
53.55,1711437391703125
53.42,1711437391718750
54.29,1711437391734375
56.2,1711437391750000
58.81,1711437391765625
61.56,1711437391781250
63.82,1711437391796875
65.18,1711437391812500
65.53,1711437391828125
65.06,1711437391843750
64.15,1711437391859375
63.24,1711437391875000
62.59,1711437391890625
62.26,1711437391906250
61.93,1711437391921875
61.04,1711437391937500
59.01,1711437391953125
55.47,1711437391968750
50.45,1711437391984375
44.39,1711437392000000
38.02,1711437392015625
32.01,1711437392031250
26.76,1711437392046875
22.24,1711437392062500
18.02,1711437392078125
13.53,1711437392093750
8.22,1711437392109375
1.83,1711437392125000
-5.51,1711437392140625
-13.31,1711437392156250
-20.87,1711437392171875
-27.49,1711437392187500
-32.74,1711437392203125
-36.63,1711437392218750
-39.62,1711437392234375
-42.52,1711437392250000
-46.32,1711437392265625
-51.93,1711437392281250
-59.92,1711437392296875
-70.13,1711437392312500
-81.39,1711437392328125
-91.51,1711437392343750
-97.69,1711437392359375
-97.38,1711437392375000
-89.21,1711437392390625
-73.68,1711437392406250
-52.99,1711437392421875
-30.33,1711437392437500
-8.8,1711437392453125
9.55,1711437392468750
23.92,1711437392484375
34.5,1711437392500000
41.91,1711437392515625
46.69,1711437392531250
49.25,1711437392546875
49.96,1711437392562500
49.38,1711437392578125
48.22,1711437392593750
47.14,1711437392609375
46.59,1711437392625000
46.72,1711437392640625
47.38,1711437392656250
48.32,1711437392671875
49.28,1711437392687500
50.06,1711437392703125
50.52,1711437392718750
50.59,1711437392734375
50.33,1711437392750000
49.88,1711437392765625
49.39,1711437392781250
48.94,1711437392796875
48.41,1711437392812500
47.48,1711437392828125
45.79,1711437392843750
43.01,1711437392859375
39.03,1711437392875000
33.95,1711437392890625
28.11,1711437392906250
21.92,1711437392921875
15.88,1711437392937500
10.31,1711437392953125
5.39,1711437392968750
0.97,1711437392984375
-3.29,1711437393000000
-7.82,1711437393015625
-12.93,1711437393031250
-18.63,1711437393046875
-24.62,1711437393062500
-30.36,1711437393078125
-35.4,1711437393093750
-39.55,1711437393109375
-42.97,1711437393125000
-46.1,1711437393140625
-49.55,1711437393156250
-53.98,1711437393171875
-59.94,1711437393187500
-67.75,1711437393203125
-77.16,1711437393218750
-87.04,1711437393234375
-95.29,1711437393250000
-99.19,1711437393265625
-96.36,1711437393281250
-85.6,1711437393296875
-67.59,1711437393312500
-44.81,1711437393328125
-20.7,1711437393343750
1.47,1711437393359375
19.55,1711437393375000
32.85,1711437393390625
41.83,1711437393406250
47.39,1711437393421875
50.34,1711437393437500
51.16,1711437393453125
50.1,1711437393468750
47.51,1711437393484375
43.97,1711437393500000
40.26,1711437393515625
37.16,1711437393531250
35.21,1711437393546875
34.5,1711437393562500
34.77,1711437393578125
35.46,1711437393593750
36.09,1711437393609375
36.4,1711437393625000
36.5,1711437393640625
36.67,1711437393656250
37.17,1711437393671875
38.07,1711437393687500
39.04,1711437393703125
39.54,1711437393718750
38.98,1711437393734375
36.95,1711437393750000
33.41,1711437393765625
28.69,1711437393781250
23.33,1711437393796875
17.92,1711437393812500
12.93,1711437393828125
8.53,1711437393843750
4.65,1711437393859375
0.92,1711437393875000
-3.1,1711437393890625
-7.77,1711437393906250
-13.2,1711437393921875
-19.19,1711437393937500
-25.17,1711437393953125
-30.51,1711437393968750
-34.69,1711437393984375
-37.58,1711437394000000
-39.52,1711437394015625
-41.26,1711437394031250
-43.71,1711437394046875
-47.75,1711437394062500
-53.99,1711437394078125
-62.5,1711437394093750
-72.62,1711437394109375
-82.76,1711437394125000
-90.6,1711437394140625
-93.54,1711437394156250
-89.57,1711437394171875
-78.03,1711437394187500
-60.05,1711437394203125
-38.22,1711437394218750
-15.83,1711437394234375
4.24,1711437394250000
20.15,1711437394265625
31.38,1711437394281250
38.31,1711437394296875
41.77,1711437394312500
42.53,1711437394328125
41.22,1711437394343750
38.41,1711437394359375
34.71,1711437394375000
30.83,1711437394390625
27.45,1711437394406250
25.06,1711437394421875
23.86,1711437394437500
23.74,1711437394453125
24.37,1711437394468750
25.35,1711437394484375
26.39,1711437394500000
27.43,1711437394515625
28.6,1711437394531250
30.08,1711437394546875
31.8,1711437394562500
33.4,1711437394578125
34.18,1711437394593750
33.44,1711437394609375
30.83,1711437394625000
26.5,1711437394640625
21.17,1711437394656250
15.74,1711437394671875
10.97,1711437394687500
7.1,1711437394703125
3.79,1711437394718750
0.35,1711437394734375
-3.91,1711437394750000
-9.33,1711437394765625
-15.7,1711437394781250
-22.34,1711437394796875
-28.46,1711437394812500
-33.43,1711437394828125
-37.11,1711437394843750
-39.86,1711437394859375
-42.41,1711437394875000
-45.67,1711437394890625
-50.45,1711437394906250
-57.19,1711437394921875
-65.7,1711437394937500
-74.85,1711437394953125
-82.62,1711437394968750
-86.41,1711437394984375
-83.89,1711437395000000
-73.83,1711437395015625
-56.84,1711437395031250
-35.3,1711437395046875
-12.65,1711437395062500
7.81,1711437395078125
23.85,1711437395093750
34.81,1711437395109375
41.25,1711437395125000
44.24,1711437395140625
44.74,1711437395156250
43.32,1711437395171875
40.26,1711437395187500
35.94,1711437395203125
30.97,1711437395218750
26.11,1711437395234375
22.08,1711437395250000
19.22,1711437395265625
17.5,1711437395281250
16.6,1711437395296875
16.13,1711437395312500
15.83,1711437395328125
15.62,1711437395343750
15.52,1711437395359375
15.58,1711437395375000
15.73,1711437395390625
15.78,1711437395406250
15.38,1711437395421875
14.14,1711437395437500
11.71,1711437395453125
7.9,1711437395468750
2.82,1711437395484375
-3.17,1711437395500000
-9.38,1711437395515625
-15.07,1711437395531250
-19.63,1711437395546875
-22.82,1711437395562500
-24.92,1711437395578125
-26.66,1711437395593750
-28.93,1711437395609375
-32.42,1711437395625000
-37.28,1711437395640625
-43.01,1711437395656250
-48.67,1711437395671875
-53.29,1711437395687500
-56.41,1711437395703125
-58.27,1711437395718750
-59.81,1711437395734375
-62.23,1711437395750000
-66.59,1711437395765625
-73.43,1711437395781250
-82.62,1711437395796875
-93.38,1711437395812500
-104.28,1711437395828125
-113.41,1711437395843750
-118.65,1711437395859375
-118.17,1711437395875000
-111.15,1711437395890625
-98.24,1711437395906250
-81.68,1711437395921875
-64.7,1711437395937500
-50.47,1711437395953125
-41.02,1711437395968750
-36.68,1711437395984375
-36.28,1711437396000000
-37.92,1711437396015625
-40.01,1711437396031250
-41.76,1711437396046875
-43.05,1711437396062500
-43.63,1711437396078125
-42.35,1711437396093750
-36.85,1711437396109375
-24.17,1711437396125000
-1.83,1711437396140625
31.03,1711437396156250
73.08,1711437396171875
121.04,1711437396187500
170.73,1711437396203125
218.25,1711437396218750
260.83,1711437396234375
297.16,1711437396250000
327.15,1711437396265625
351.33,1711437396281250
370.27,1711437396296875
384.15,1711437396312500
392.66,1711437396328125
395.05,1711437396343750
390.62,1711437396359375
379.09,1711437396375000
360.85,1711437396390625
337.04,1711437396406250
309.22,1711437396421875
278.88,1711437396437500
247.11,1711437396453125
214.62,1711437396468750
181.97,1711437396484375
149.94,1711437396500000
119.57,1711437396515625
91.84,1711437396531250
67.18,1711437396546875
44.98,1711437396562500
23.76,1711437396578125
1.74,1711437396593750
-22.17,1711437396609375
-47.73,1711437396625000
-73.4,1711437396640625
-97.12,1711437396656250
-117.36,1711437396671875
-133.95,1711437396687500
-148.07,1711437396703125
-161.5,1711437396718750
-175.6,1711437396734375
-190.57,1711437396750000
-205.5,1711437396765625
-218.88,1711437396781250
-229.39,1711437396796875
-236.41,1711437396812500
-240.13,1711437396828125
-241.43,1711437396843750
-241.59,1711437396859375
-242.05,1711437396875000
-244.05,1711437396890625
-248.06,1711437396906250
-253.11,1711437396921875
-256.61,1711437396937500
-254.63,1711437396953125
-243.01,1711437396968750
-218.65,1711437396984375
-180.62,1711437397000000
-130.61,1711437397015625
-72.72,1711437397031250
-12.74,1711437397046875
42.78,1711437397062500
87.67,1711437397078125
117.24,1711437397093750
129.29,1711437397109375
124.64,1711437397125000
106.82,1711437397140625
80.99,1711437397156250
52.47,1711437397171875
25.39,1711437397187500
2.22,1711437397203125
-15.98,1711437397218750
-28.95,1711437397234375
-36.73,1711437397250000
-39.69,1711437397265625
-38.81,1711437397281250
-35.79,1711437397296875
-32.69,1711437397312500
-31.22,1711437397328125
-32.1,1711437397343750
-34.93,1711437397359375
-38.54,1711437397375000
-41.77,1711437397390625
-44.08,1711437397406250
-45.64,1711437397421875
-47.11,1711437397437500
-49.12,1711437397453125
-51.95,1711437397468750
-55.4,1711437397484375
-58.85,1711437397500000
-61.4,1711437397515625
-62.04,1711437397531250
-59.87,1711437397546875
-54.39,1711437397562500
-45.77,1711437397578125
-34.93,1711437397593750
-23.32,1711437397609375
-12.51,1711437397625000
-3.63,1711437397640625
2.83,1711437397656250
6.98,1711437397671875
9.27,1711437397687500
10.13,1711437397703125
9.83,1711437397718750
8.59,1711437397734375
6.68,1711437397750000
4.51,1711437397765625
2.56,1711437397781250
1.18,1711437397796875
0.52,1711437397812500
0.44,1711437397828125
0.76,1711437397843750
1.29,1711437397859375
1.93,1711437397875000
2.69,1711437397890625
3.57,1711437397906250
4.51,1711437397921875
5.39,1711437397937500
6.0,1711437397953125
6.13,1711437397968750
5.61,1711437397984375
4.36,1711437398000000
2.45,1711437398015625
0.07,1711437398031250
-2.52,1711437398046875
-5.04,1711437398062500
-7.35,1711437398078125
-9.42,1711437398093750
-11.39,1711437398109375
-13.42,1711437398125000
-15.62,1711437398140625
-18.0,1711437398156250
-20.47,1711437398171875
-22.87,1711437398187500
-25.04,1711437398203125
-26.78,1711437398218750
-27.91,1711437398234375
-28.41,1711437398250000
-28.45,1711437398265625
-28.47,1711437398281250
-29.05,1711437398296875
-30.54,1711437398312500
-32.72,1711437398328125
-34.63,1711437398343750
-34.82,1711437398359375
-31.89,1711437398375000
-25.26,1711437398390625
-15.45,1711437398406250
-4.03,1711437398421875
7.02,1711437398437500
16.08,1711437398453125
22.39,1711437398468750
26.1,1711437398484375
27.89,1711437398500000
28.47,1711437398515625
28.27,1711437398531250
27.33,1711437398546875
25.57,1711437398562500
22.93,1711437398578125
19.55,1711437398593750
15.7,1711437398609375
11.58,1711437398625000
7.32,1711437398640625
2.91,1711437398656250
-1.68,1711437398671875
-6.44,1711437398687500
-11.31,1711437398703125
-16.19,1711437398718750
-21.04,1711437398734375
-25.86,1711437398750000
-30.74,1711437398765625
-35.73,1711437398781250
-40.86,1711437398796875
-46.14,1711437398812500
-51.54,1711437398828125
-57.01,1711437398843750
-62.52,1711437398859375
-68.0,1711437398875000
-73.39,1711437398890625
-78.62,1711437398906250
-83.61,1711437398921875
-88.19,1711437398937500
-92.09,1711437398953125
-95.02,1711437398968750
-96.77,1711437398984375
-97.37,1711437399000000
-97.12,1711437399015625
-96.49,1711437399031250
-95.92,1711437399046875
-95.71,1711437399062500
-95.92,1711437399078125
-96.52,1711437399093750
-97.35,1711437399109375
-98.11,1711437399125000
-98.26,1711437399140625
-97.06,1711437399156250
-93.74,1711437399171875
-87.84,1711437399187500
-79.41,1711437399203125
-69.03,1711437399218750
-57.53,1711437399234375
-45.58,1711437399250000
-33.51,1711437399265625
-21.32,1711437399281250
-8.91,1711437399296875
3.61,1711437399312500
15.87,1711437399328125
27.32,1711437399343750
37.49,1711437399359375
46.15,1711437399375000
53.3,1711437399390625
59.09,1711437399406250
63.69,1711437399421875
67.23,1711437399437500
69.85,1711437399453125
71.73,1711437399468750
73.12,1711437399484375
74.3,1711437399500000
75.49,1711437399515625
76.79,1711437399531250
78.19,1711437399546875
79.52,1711437399562500
80.48,1711437399578125
80.62,1711437399593750
79.43,1711437399609375
76.55,1711437399625000
71.92,1711437399640625
65.92,1711437399656250
59.2,1711437399671875
52.56,1711437399687500
46.55,1711437399703125
41.32,1711437399718750
36.61,1711437399734375
31.9,1711437399750000
26.63,1711437399765625
20.35,1711437399781250
12.83,1711437399796875
4.07,1711437399812500
-5.6,1711437399828125
-15.47,1711437399843750
-24.41,1711437399859375
-31.09,1711437399875000
-34.29,1711437399890625
-33.34,1711437399906250
-28.31,1711437399921875
-19.97,1711437399937500
-9.47,1711437399953125
1.97,1711437399968750
13.45,1711437399984375
24.45,1711437400000000
34.86,1711437400015625
44.72,1711437400031250
54.16,1711437400046875
63.15,1711437400062500
71.46,1711437400078125
78.7,1711437400093750
84.41,1711437400109375
88.26,1711437400125000
90.16,1711437400140625
90.31,1711437400156250
89.21,1711437400171875
87.46,1711437400187500
85.66,1711437400203125
84.29,1711437400218750
83.53,1711437400234375
83.32,1711437400250000
83.31,1711437400265625
83.01,1711437400281250
81.88,1711437400296875
79.56,1711437400312500
75.87,1711437400328125
70.88,1711437400343750
64.84,1711437400359375
57.98,1711437400375000
50.58,1711437400390625
42.84,1711437400406250
34.9,1711437400421875
26.76,1711437400437500
18.2,1711437400453125
8.86,1711437400468750
-1.62,1711437400484375
-13.2,1711437400500000
-25.25,1711437400515625
-36.5,1711437400531250
-45.38,1711437400546875
-50.57,1711437400562500
-51.5,1711437400578125
-48.56,1711437400593750
-42.88,1711437400609375
-35.86,1711437400625000
-28.61,1711437400640625
-21.73,1711437400656250
-15.38,1711437400671875
-9.49,1711437400687500
-4.08,1711437400703125
0.65,1711437400718750
4.4,1711437400734375
6.92,1711437400750000
8.17,1711437400765625
8.41,1711437400781250
8.05,1711437400796875
7.49,1711437400812500
7.06,1711437400828125
6.85,1711437400843750
6.84,1711437400859375
6.92,1711437400875000
6.99,1711437400890625
7.04,1711437400906250
7.17,1711437400921875
7.5,1711437400937500
8.17,1711437400953125
9.22,1711437400968750
10.59,1711437400984375
12.11,1711437401000000
13.62,1711437401015625
14.92,1711437401031250
15.83,1711437401046875
16.18,1711437401062500
15.87,1711437401078125
14.92,1711437401093750
13.47,1711437401109375
11.67,1711437401125000
9.54,1711437401140625
6.85,1711437401156250
3.12,1711437401171875
-2.11,1711437401187500
-9.02,1711437401203125
-17.14,1711437401218750
-25.37,1711437401234375
-32.18,1711437401250000
-36.13,1711437401265625
-36.32,1711437401281250
-32.71,1711437401296875
-25.94,1711437401312500
-17.08,1711437401328125
-7.13,1711437401343750
3.11,1711437401359375
13.14,1711437401375000
22.56,1711437401390625
30.94,1711437401406250
37.77,1711437401421875
42.61,1711437401437500
45.27,1711437401453125
45.97,1711437401468750
45.3,1711437401484375
44.0,1711437401500000
42.73,1711437401515625
41.9,1711437401531250
41.62,1711437401546875
41.81,1711437401562500
42.25,1711437401578125
42.76,1711437401593750
43.11,1711437401609375
43.15,1711437401625000
42.76,1711437401640625
41.92,1711437401656250
40.73,1711437401671875
39.37,1711437401687500
37.98,1711437401703125
36.63,1711437401718750
35.2,1711437401734375
33.47,1711437401750000
31.17,1711437401765625
28.18,1711437401781250
24.54,1711437401796875
20.47,1711437401812500
16.23,1711437401828125
12.0,1711437401843750
7.81,1711437401859375
3.48,1711437401875000
-1.27,1711437401890625
-6.75,1711437401906250
-13.2,1711437401921875
-20.6,1711437401937500
-28.63,1711437401953125
-36.57,1711437401968750
-43.39,1711437401984375
-47.94,1711437402000000
-49.36,1711437402015625
-47.3,1711437402031250
-42.11,1711437402046875
-34.72,1711437402062500
-26.29,1711437402078125
-17.88,1711437402093750
-10.18,1711437402109375
-3.56,1711437402125000
1.9,1711437402140625
6.15,1711437402156250
9.19,1711437402171875
11.08,1711437402187500
12.0,1711437402203125
12.25,1711437402218750
12.13,1711437402234375
11.88,1711437402250000
11.63,1711437402265625
11.44,1711437402281250
11.33,1711437402296875
11.35,1711437402312500
11.56,1711437402328125
11.96,1711437402343750
12.5,1711437402359375
13.13,1711437402375000
13.79,1711437402390625
14.47,1711437402406250
15.13,1711437402421875
15.58,1711437402437500
15.57,1711437402453125
14.79,1711437402468750
13.16,1711437402484375
10.81,1711437402500000
8.09,1711437402515625
5.41,1711437402531250
3.0,1711437402546875
0.83,1711437402562500
-1.42,1711437402578125
-4.16,1711437402593750
-7.75,1711437402609375
-12.23,1711437402625000
-17.29,1711437402640625
-22.22,1711437402656250
-26.08,1711437402671875
-27.93,1711437402687500
-27.06,1711437402703125
-23.29,1711437402718750
-17.01,1711437402734375
-9.04,1711437402750000
-0.43,1711437402765625
7.88,1711437402781250
15.24,1711437402796875
21.37,1711437402812500
26.23,1711437402828125
29.86,1711437402843750
32.31,1711437402859375
33.55,1711437402875000
33.54,1711437402890625
32.39,1711437402906250
30.32,1711437402921875
27.67,1711437402937500
24.88,1711437402953125
22.29,1711437402968750
20.12,1711437402984375
18.42,1711437403000000
17.15,1711437403015625
16.25,1711437403031250
15.73,1711437403046875
15.65,1711437403062500
16.07,1711437403078125
16.98,1711437403093750
18.19,1711437403109375
19.36,1711437403125000
20.02,1711437403140625
19.7,1711437403156250
18.1,1711437403171875
15.17,1711437403187500
11.12,1711437403203125
6.37,1711437403218750
1.38,1711437403234375
-3.56,1711437403250000
-8.36,1711437403265625
-13.1,1711437403281250
-17.92,1711437403296875
-22.97,1711437403312500
-28.37,1711437403328125
-34.19,1711437403343750
-40.44,1711437403359375
-46.94,1711437403375000
-53.18,1711437403390625
-58.29,1711437403406250
-61.19,1711437403421875
-60.92,1711437403437500
-57.01,1711437403453125
-49.66,1711437403468750
-39.79,1711437403484375
-28.62,1711437403500000
-17.43,1711437403515625
-7.14,1711437403531250
1.72,1711437403546875
9.02,1711437403562500
14.83,1711437403578125
19.32,1711437403593750
22.61,1711437403609375
24.78,1711437403625000
25.88,1711437403640625
26.0,1711437403656250
25.32,1711437403671875
24.16,1711437403687500
22.97,1711437403703125
22.17,1711437403718750
22.05,1711437403734375
22.61,1711437403750000
23.54,1711437403765625
24.37,1711437403781250
24.65,1711437403796875
24.19,1711437403812500
23.04,1711437403828125
21.46,1711437403843750
19.71,1711437403859375
17.92,1711437403875000
16.0,1711437403890625
13.77,1711437403906250
11.0,1711437403921875
7.59,1711437403937500
3.58,1711437403953125
-0.85,1711437403968750
-5.44,1711437403984375
-9.89,1711437404000000
-13.92,1711437404015625
-17.27,1711437404031250
-19.89,1711437404046875
-22.02,1711437404062500
-24.26,1711437404078125
-27.38,1711437404093750
-32.0,1711437404109375
-38.16,1711437404125000
-44.92,1711437404140625
-50.41,1711437404156250
-52.24,1711437404171875
-48.25,1711437404187500
-37.39,1711437404203125
-20.24,1711437404218750
0.99,1711437404234375
22.94,1711437404250000
41.88,1711437404265625
54.59,1711437404281250
59.0,1711437404296875
54.72,1711437404312500
43.05,1711437404328125
26.71,1711437404343750
9.12,1711437404359375
-6.5,1711437404375000
-18.06,1711437404390625
-24.99,1711437404406250
-28.13,1711437404421875
-29.14,1711437404437500
-29.66,1711437404453125
-30.79,1711437404468750
-32.81,1711437404484375
-35.53,1711437404500000
-38.45,1711437404515625
-41.08,1711437404531250
-42.93,1711437404546875
-43.51,1711437404562500
-42.27,1711437404578125
-38.77,1711437404593750
-32.75,1711437404609375
-24.26,1711437404625000
-13.68,1711437404640625
-1.72,1711437404656250
10.73,1711437404671875
22.73,1711437404687500
33.54,1711437404703125
42.78,1711437404718750
50.53,1711437404734375
57.26,1711437404750000
63.45,1711437404765625
69.31,1711437404781250
74.63,1711437404796875
78.82,1711437404812500
81.22,1711437404828125
81.34,1711437404843750
79.05,1711437404859375
74.53,1711437404875000
68.1,1711437404890625
60.15,1711437404906250
50.97,1711437404921875
40.86,1711437404937500
30.17,1711437404953125
19.27,1711437404968750
8.5,1711437404984375
-2.02,1711437405000000
-12.5,1711437405015625
-23.48,1711437405031250
-35.6,1711437405046875
-49.32,1711437405062500
-64.51,1711437405078125
-80.32,1711437405093750
-95.31,1711437405109375
-107.76,1711437405125000
-116.33,1711437405140625
-120.43,1711437405156250
-120.47,1711437405171875
-117.65,1711437405187500
-113.48,1711437405203125
-109.18,1711437405218750
-105.32,1711437405234375
-101.55,1711437405250000
-96.75,1711437405265625
-89.38,1711437405281250
-78.16,1711437405296875
-62.58,1711437405312500
-43.32,1711437405328125
-22.27,1711437405343750
-2.13,1711437405359375
14.35,1711437405375000
25.13,1711437405390625
29.59,1711437405406250
28.78,1711437405421875
24.9,1711437405437500
20.47,1711437405453125
17.57,1711437405468750
17.2,1711437405484375
19.4,1711437405500000
23.34,1711437405515625
27.82,1711437405531250
31.73,1711437405546875
34.53,1711437405562500
36.06,1711437405578125
36.25,1711437405593750
34.97,1711437405609375
31.9,1711437405625000
26.92,1711437405640625
20.03,1711437405656250
11.3,1711437405671875
0.89,1711437405687500
-10.51,1711437405703125
-22.03,1711437405718750
-32.66,1711437405734375
-41.15,1711437405750000
-46.28,1711437405765625
-46.68,1711437405781250
-41.68,1711437405796875
-31.77,1711437405812500
-18.46,1711437405828125
-2.71,1711437405843750
14.31,1711437405859375
31.33,1711437405875000
47.33,1711437405890625
61.58,1711437405906250
75.27,1711437405921875
89.92,1711437405937500
106.14,1711437405953125
123.29,1711437405968750
141.77,1711437405984375
160.66,1711437406000000
177.8,1711437406015625
190.6,1711437406031250
196.03,1711437406046875
194.3,1711437406062500
186.13,1711437406078125
171.48,1711437406093750
150.02,1711437406109375
125.21,1711437406125000
100.64,1711437406140625
79.07,1711437406156250
62.47,1711437406171875
51.3,1711437406187500
50.05,1711437406203125
63.06,1711437406218750
92.24,1711437406234375
136.75,1711437406250000
197.1,1711437406265625
269.76,1711437406281250
346.44,1711437406296875
415.97,1711437406312500
466.02,1711437406328125
493.21,1711437406343750
499.52,1711437406359375
489.96,1711437406375000
442.07,1711437406390625
348.99,1711437406406250
223.31,1711437406421875
92.05,1711437406437500
-4.98,1711437406453125
-70.54,1711437406468750
-114.36,1711437406484375
-144.87,1711437406500000
-170.63,1711437406515625
-194.82,1711437406531250
-214.05,1711437406546875
-224.97,1711437406562500
-226.44,1711437406578125
-219.86,1711437406593750
-210.02,1711437406609375
-197.38,1711437406625000
-182.64,1711437406640625
-168.47,1711437406656250
-158.27,1711437406671875
-151.98,1711437406687500
-149.24,1711437406703125
-150.03,1711437406718750
-154.81,1711437406734375
-165.07,1711437406750000
-177.69,1711437406765625
-188.82,1711437406781250
-195.7,1711437406796875
-196.61,1711437406812500
-188.93,1711437406828125
-171.78,1711437406843750
-147.1,1711437406859375
-119.85,1711437406875000
-97.8,1711437406890625
-86.22,1711437406906250
-87.69,1711437406921875
-100.78,1711437406937500
-119.18,1711437406953125
-132.27,1711437406968750
-129.7,1711437406984375
-105.65,1711437407000000
-61.22,1711437407015625
-3.98,1711437407031250
56.76,1711437407046875
112.78,1711437407062500
159.12,1711437407078125
194.58,1711437407093750
220.56,1711437407109375
238.47,1711437407125000
248.25,1711437407140625
248.29,1711437407156250
236.44,1711437407171875
211.86,1711437407187500
175.23,1711437407203125
128.55,1711437407218750
74.68,1711437407234375
17.0,1711437407250000
-40.62,1711437407265625
-93.92,1711437407281250
-138.81,1711437407296875
-172.42,1711437407312500
-194.22,1711437407328125
-206.71,1711437407343750
-215.02,1711437407359375
-225.28,1711437407375000
-242.28,1711437407390625
-267.12,1711437407406250
-296.26,1711437407421875
-322.47,1711437407437500
-337.28,1711437407453125
-334.23,1711437407468750
-311.09,1711437407484375
-270.24,1711437407500000
-217.13,1711437407515625
-157.96,1711437407531250
-97.81,1711437407546875
-40.17,1711437407562500
12.2,1711437407578125
56.2,1711437407593750
88.07,1711437407609375
104.48,1711437407625000
104.46,1711437407640625
90.84,1711437407656250
70.12,1711437407671875
50.63,1711437407687500
39.75,1711437407703125
41.42,1711437407718750
55.02,1711437407734375
75.81,1711437407750000
96.6,1711437407765625
109.96,1711437407781250
110.45,1711437407796875
96.12,1711437407812500
69.23,1711437407828125
35.64,1711437407843750
3.01,1711437407859375
-21.71,1711437407875000
-34.66,1711437407890625
-36.09,1711437407906250
-29.58,1711437407921875
-20.04,1711437407937500
-11.56,1711437407953125
-6.22,1711437407968750
-4.37,1711437407984375
-5.7,1711437408000000
-10.19,1711437408015625
-18.42,1711437408031250
-31.15,1711437408046875
-48.78,1711437408062500
-71.0,1711437408078125
-96.81,1711437408093750
-124.26,1711437408109375
-150.44,1711437408125000
-171.55,1711437408140625
-183.98,1711437408156250
-186.03,1711437408171875
-179.46,1711437408187500
-169.64,1711437408203125
-163.34,1711437408218750
-165.46,1711437408234375
-176.29,1711437408250000
-191.25,1711437408265625
-203.17,1711437408281250
-205.77,1711437408296875
-196.28,1711437408312500
-175.99,1711437408328125
-148.88,1711437408343750
-119.56,1711437408359375
-91.72,1711437408375000
-67.49,1711437408390625
-47.41,1711437408406250
-30.6,1711437408421875
-14.83,1711437408437500
2.98,1711437408453125
25.83,1711437408468750
55.51,1711437408484375
91.75,1711437408500000
132.23,1711437408515625
173.41,1711437408531250
211.47,1711437408546875
243.13,1711437408562500
265.92,1711437408578125
278.28,1711437408593750
279.48,1711437408609375
269.66,1711437408625000
249.76,1711437408640625
221.18,1711437408656250
185.51,1711437408671875
144.35,1711437408687500
99.45,1711437408703125
52.76,1711437408718750
6.55,1711437408734375
-36.6,1711437408750000
-74.06,1711437408765625
-102.96,1711437408781250
-120.14,1711437408796875
-122.27,1711437408812500
-106.72,1711437408828125
-73.3,1711437408843750
-25.66,1711437408859375
28.41,1711437408875000
78.52,1711437408890625
114.88,1711437408906250
131.64,1711437408921875
128.79,1711437408937500
111.61,1711437408953125
87.75,1711437408968750
63.71,1711437408984375
42.53,1711437409000000
23.87,1711437409015625
5.91,1711437409031250
-12.31,1711437409046875
-29.9,1711437409062500
-44.84,1711437409078125
-55.58,1711437409093750
-62.4,1711437409109375
-67.19,1711437409125000
-72.04,1711437409140625
-77.68,1711437409156250
-82.9,1711437409171875
-85.33,1711437409187500
-82.81,1711437409203125
-74.84,1711437409218750
-62.88,1711437409234375
-49.62,1711437409250000
-37.72,1711437409265625
-28.76,1711437409281250
-22.88,1711437409296875
-19.11,1711437409312500
-15.92,1711437409328125
-11.96,1711437409343750
-6.57,1711437409359375
0.08,1711437409375000
7.18,1711437409390625
13.68,1711437409406250
18.7,1711437409421875
21.75,1711437409437500
22.68,1711437409453125
21.56,1711437409468750
18.59,1711437409484375
14.15,1711437409500000
8.94,1711437409515625
3.98,1711437409531250
0.35,1711437409546875
-1.17,1711437409562500
-0.43,1711437409578125
2.09,1711437409593750
5.48,1711437409609375
8.83,1711437409625000
11.58,1711437409640625
13.61,1711437409656250
15.09,1711437409671875
16.14,1711437409687500
16.69,1711437409703125
16.43,1711437409718750
15.15,1711437409734375
12.95,1711437409750000
10.36,1711437409765625
8.15,1711437409781250
7.08,1711437409796875
7.46,1711437409812500
9.16,1711437409828125
11.62,1711437409843750
14.09,1711437409859375
15.79,1711437409875000
16.11,1711437409890625
14.66,1711437409906250
11.45,1711437409921875
6.93,1711437409937500
1.95,1711437409953125
-2.54,1711437409968750
-5.86,1711437409984375
-7.96,1711437410000000
-9.46,1711437410015625
-11.39,1711437410031250
-14.7,1711437410046875
-19.84,1711437410062500
-26.62,1711437410078125
-34.36,1711437410093750
-42.12,1711437410109375
-49.05,1711437410125000
-54.35,1711437410140625
-57.37,1711437410156250
-57.62,1711437410171875
-54.78,1711437410187500
-48.93,1711437410203125
-40.59,1711437410218750
-30.69,1711437410234375
-20.36,1711437410250000
-10.68,1711437410265625
-2.4,1711437410281250
4.14,1711437410296875
9.0,1711437410312500
12.45,1711437410328125
14.83,1711437410343750
16.44,1711437410359375
17.47,1711437410375000
18.02,1711437410390625
18.12,1711437410406250
17.81,1711437410421875
17.12,1711437410437500
16.14,1711437410453125
15.01,1711437410468750
13.88,1711437410484375
12.91,1711437410500000
12.19,1711437410515625
11.71,1711437410531250
11.34,1711437410546875
10.95,1711437410562500
10.41,1711437410578125
9.73,1711437410593750
9.04,1711437410609375
8.53,1711437410625000
8.38,1711437410640625
8.61,1711437410656250
9.11,1711437410671875
9.74,1711437410687500
10.35,1711437410703125
10.88,1711437410718750
11.39,1711437410734375
11.95,1711437410750000
12.61,1711437410765625
13.29,1711437410781250
13.85,1711437410796875
14.13,1711437410812500
14.0,1711437410828125
13.47,1711437410843750
12.61,1711437410859375
11.6,1711437410875000
10.66,1711437410890625
9.95,1711437410906250
9.61,1711437410921875
9.57,1711437410937500
9.69,1711437410953125
9.76,1711437410968750
9.6,1711437410984375
9.13,1711437411000000
8.43,1711437411015625
7.65,1711437411031250
6.9,1711437411046875
6.28,1711437411062500
5.73,1711437411078125
5.19,1711437411093750
4.59,1711437411109375
3.95,1711437411125000
3.31,1711437411140625
2.79,1711437411156250
2.53,1711437411171875
2.7,1711437411187500
3.44,1711437411203125
4.77,1711437411218750
6.56,1711437411234375
8.46,1711437411250000
10.06,1711437411265625
11.04,1711437411281250
11.31,1711437411296875
11.06,1711437411312500
10.68,1711437411328125
10.54,1711437411343750
10.76,1711437411359375
11.18,1711437411375000
11.44,1711437411390625
11.13,1711437411406250
10.04,1711437411421875
8.24,1711437411437500
6.03,1711437411453125
3.79,1711437411468750
1.81,1711437411484375
0.14,1711437411500000
-1.41,1711437411515625
-3.25,1711437411531250
-5.8,1711437411546875
-9.27,1711437411562500
-13.54,1711437411578125
-18.17,1711437411593750
-22.59,1711437411609375
-26.42,1711437411625000
-29.71,1711437411640625
-33.0,1711437411656250
-37.06,1711437411671875
-42.64,1711437411687500
-50.31,1711437411703125
-60.42,1711437411718750
-73.28,1711437411734375
-89.11,1711437411750000
-107.98,1711437411765625
-129.45,1711437411781250
-152.27,1711437411796875
-174.47,1711437411812500
-193.46,1711437411828125
-206.63,1711437411843750
-211.66,1711437411859375
-207.0,1711437411875000
-192.02,1711437411890625
-167.18,1711437411906250
-134.1,1711437411921875
-95.42,1711437411937500
-54.39,1711437411953125
-14.16,1711437411968750
23.12,1711437411984375
56.95,1711437412000000
88.72,1711437412015625
121.33,1711437412031250
157.93,1711437412046875
200.67,1711437412062500
249.22,1711437412078125
300.18,1711437412093750
347.43,1711437412109375
383.36,1711437412125000
401.02,1711437412140625
396.08,1711437412156250
368.46,1711437412171875
322.76,1711437412187500
267.33,1711437412203125
212.22,1711437412218750
166.34,1711437412234375
135.12,1711437412250000
119.22,1711437412265625
114.96,1711437412281250
116.22,1711437412296875
116.99,1711437412312500
113.46,1711437412328125
104.83,1711437412343750
92.69,1711437412359375
79.36,1711437412375000
66.22,1711437412390625
52.94,1711437412406250
37.92,1711437412421875
19.54,1711437412437500
-2.69,1711437412453125
-27.59,1711437412468750
-52.68,1711437412484375
-74.92,1711437412500000
-91.36,1711437412515625
-99.29,1711437412531250
-96.43,1711437412546875
-81.26,1711437412562500
-54.16,1711437412578125
-18.84,1711437412593750
17.09,1711437412609375
43.17,1711437412625000
49.53,1711437412640625
31.51,1711437412656250
-6.98,1711437412671875
-53.7,1711437412687500
-92.52,1711437412703125
-110.28,1711437412718750
-102.38,1711437412734375
-74.15,1711437412750000
-37.61,1711437412765625
-5.22,1711437412781250
15.42,1711437412796875
23.48,1711437412812500
23.12,1711437412828125
19.91,1711437412843750
18.15,1711437412859375
20.15,1711437412875000
27.3,1711437412890625
40.89,1711437412906250
61.84,1711437412921875
89.37,1711437412937500
119.76,1711437412953125
146.56,1711437412968750
162.62,1711437412984375
162.64,1711437413000000
144.89,1711437413015625
111.36,1711437413031250
66.34,1711437413046875
14.45,1711437413062500
-40.85,1711437413078125
-97.32,1711437413093750
-152.71,1711437413109375
-203.38,1711437413125000
-244.05,1711437413140625
-269.36,1711437413156250
-276.52,1711437413171875
-267.86,1711437413187500
-251.35,1711437413203125
-238.51,1711437413218750
-240.44,1711437413234375
-263.55,1711437413250000
-307.29,1711437413265625
-364.66,1711437413281250
-425.02,1711437413296875
-477.62,1711437413312500
-514.47,1711437413328125
-531.4,1711437413343750
-527.77,1711437413359375
-505.46,1711437413375000
-467.66,1711437413390625
-418.19,1711437413406250
-360.82,1711437413421875
-298.91,1711437413437500
-235.04,1711437413453125
-171.17,1711437413468750
-108.87,1711437413484375
-49.72,1711437413500000
4.37,1711437413515625
51.3,1711437413531250
89.14,1711437413546875
116.7,1711437413562500
133.95,1711437413578125
142.04,1711437413593750
142.97,1711437413609375
139.16,1711437413625000
132.99,1711437413640625
126.57,1711437413656250
121.7,1711437413671875
119.68,1711437413687500
121.1,1711437413703125
125.61,1711437413718750
131.94,1711437413734375
138.37,1711437413750000
143.42,1711437413765625
146.42,1711437413781250
147.73,1711437413796875
148.28,1711437413812500
149.04,1711437413828125
150.62,1711437413843750
153.11,1711437413859375
156.37,1711437413875000
160.31,1711437413890625
165.11,1711437413906250
171.15,1711437413921875
178.74,1711437413937500
187.89,1711437413953125
197.85,1711437413968750
207.07,1711437413984375
213.31,1711437414000000
214.01,1711437414015625
207.1,1711437414031250
191.81,1711437414046875
169.16,1711437414062500
141.94,1711437414078125
113.91,1711437414093750
88.52,1711437414109375
67.76,1711437414125000
51.72,1711437414140625
39.0,1711437414156250
27.84,1711437414171875
17.12,1711437414187500
6.84,1711437414203125
-2.32,1711437414218750
-9.8,1711437414234375
-15.91,1711437414250000
-21.81,1711437414265625
-28.92,1711437414281250
-37.93,1711437414296875
-48.26,1711437414312500
-58.33,1711437414328125
-66.22,1711437414343750
-70.74,1711437414359375
-71.85,1711437414375000
-70.55,1711437414390625
-68.26,1711437414406250
-66.15,1711437414421875
-64.7,1711437414437500
-63.7,1711437414453125
-62.59,1711437414468750
-60.75,1711437414484375
-57.76,1711437414500000
-53.47,1711437414515625
-47.89,1711437414531250
-41.16,1711437414546875
-33.46,1711437414562500
-25.0,1711437414578125
-16.12,1711437414593750
-7.29,1711437414609375
0.95,1711437414625000
8.07,1711437414640625
13.57,1711437414656250
17.14,1711437414671875
18.67,1711437414687500
18.25,1711437414703125
16.24,1711437414718750
13.22,1711437414734375
9.92,1711437414750000
7.11,1711437414765625
5.35,1711437414781250
4.86,1711437414796875
5.41,1711437414812500
6.43,1711437414828125
7.2,1711437414843750
7.18,1711437414859375
6.14,1711437414875000
4.22,1711437414890625
1.8,1711437414906250
-0.75,1711437414921875
-3.18,1711437414937500
-5.56,1711437414953125
-8.13,1711437414968750
-11.25,1711437414984375
-15.31,1711437415000000
-20.55,1711437415015625
-27.03,1711437415031250
-34.46,1711437415046875
-42.09,1711437415062500
-48.63,1711437415078125
-52.47,1711437415093750
-52.06,1711437415109375
-46.48,1711437415125000
-35.93,1711437415140625
-21.82,1711437415156250
-6.4,1711437415171875
7.95,1711437415187500
19.5,1711437415203125
27.55,1711437415218750
32.35,1711437415234375
34.64,1711437415250000
35.04,1711437415265625
33.87,1711437415281250
31.15,1711437415296875
26.96,1711437415312500
21.78,1711437415328125
16.47,1711437415343750
11.96,1711437415359375
8.84,1711437415375000
7.04,1711437415390625
5.84,1711437415406250
4.27,1711437415421875
1.5,1711437415437500
-2.73,1711437415453125
-8.09,1711437415468750
-13.89,1711437415484375
-19.43,1711437415500000
-24.29,1711437415515625
-28.51,1711437415531250
-32.45,1711437415546875
-36.63,1711437415562500
-41.6,1711437415578125
-47.87,1711437415593750
-55.92,1711437415609375
-66.03,1711437415625000
-78.0,1711437415640625
-90.78,1711437415656250
-102.37,1711437415671875
-110.18,1711437415687500
-111.81,1711437415703125
-105.99,1711437415718750
-93.27,1711437415734375
-75.94,1711437415750000
-57.3,1711437415765625
-40.54,1711437415781250
-27.77,1711437415796875
-19.62,1711437415812500
-15.44,1711437415828125
-13.98,1711437415843750
-14.07,1711437415859375
-15.0,1711437415875000
-16.52,1711437415890625
-18.59,1711437415906250
-21.13,1711437415921875
-23.9,1711437415937500
-26.55,1711437415953125
-28.78,1711437415968750
-30.49,1711437415984375
-31.83,1711437416000000
-33.11,1711437416015625
-34.68,1711437416031250
-36.85,1711437416046875
-39.8,1711437416062500
-43.56,1711437416078125
-48.11,1711437416093750
-53.25,1711437416109375
-58.76,1711437416125000
-64.34,1711437416140625
-69.74,1711437416156250
-74.85,1711437416171875
-79.67,1711437416187500
-84.47,1711437416203125
-89.72,1711437416218750
-95.98,1711437416234375
-103.74,1711437416250000
-112.89,1711437416265625
-122.33,1711437416281250
-129.83,1711437416296875
-132.37,1711437416312500
-127.01,1711437416328125
-111.98,1711437416343750
-87.44,1711437416359375
-55.58,1711437416375000
-19.98,1711437416390625
15.56,1711437416406250
48.01,1711437416421875
75.69,1711437416437500
98.2,1711437416453125
115.91,1711437416468750
129.47,1711437416484375
139.43,1711437416500000
146.18,1711437416515625
149.94,1711437416531250
150.91,1711437416546875
149.37,1711437416562500
145.66,1711437416578125
140.19,1711437416593750
133.46,1711437416609375
126.03,1711437416625000
118.51,1711437416640625
111.53,1711437416656250
105.62,1711437416671875
101.01,1711437416687500
97.47,1711437416703125
94.28,1711437416718750
90.42,1711437416734375
84.87,1711437416750000
77.05,1711437416765625
67.04,1711437416781250
55.6,1711437416796875
43.79,1711437416812500
32.59,1711437416828125
22.52,1711437416843750
13.42,1711437416859375
4.46,1711437416875000
-5.56,1711437416890625
-17.85,1711437416906250
-32.9,1711437416921875
-49.93,1711437416937500
-66.49,1711437416953125
-78.77,1711437416968750
-82.63,1711437416984375
-74.91,1711437417000000
-54.81,1711437417015625
-24.3,1711437417031250
12.31,1711437417046875
49.74,1711437417062500
83.28,1711437417078125
109.79,1711437417093750
128.02,1711437417109375
138.19,1711437417125000
141.26,1711437417140625
138.38,1711437417156250
130.78,1711437417171875
119.85,1711437417187500
107.26,1711437417203125
94.81,1711437417218750
84.02,1711437417234375
75.73,1711437417250000
69.93,1711437417265625
65.92,1711437417281250
62.78,1711437417296875
59.83,1711437417312500
56.95,1711437417328125
54.43,1711437417343750
52.62,1711437417359375
51.48,1711437417375000
50.38,1711437417390625
48.27,1711437417406250
44.07,1711437417421875
37.19,1711437417437500
27.76,1711437417453125
16.65,1711437417468750
5.1,1711437417484375
-5.84,1711437417500000
-15.62,1711437417515625
-24.46,1711437417531250
-33.24,1711437417546875
-43.16,1711437417562500
-55.27,1711437417578125
-69.95,1711437417593750
-86.31,1711437417609375
-102.12,1711437417625000
-113.89,1711437417640625
-117.83,1711437417656250
-110.98,1711437417671875
-92.35,1711437417687500
-63.48,1711437417703125
-28.13,1711437417718750
8.75,1711437417734375
42.45,1711437417750000
69.57,1711437417765625
88.54,1711437417781250
99.31,1711437417796875
102.81,1711437417812500
100.34,1711437417828125
93.25,1711437417843750
82.92,1711437417859375
70.77,1711437417875000
58.28,1711437417890625
46.75,1711437417906250
37.18,1711437417921875
30.03,1711437417937500
25.23,1711437417953125
22.28,1711437417968750
20.45,1711437417984375
19.0,1711437418000000
17.29,1711437418015625
14.85,1711437418031250
11.3,1711437418046875
6.36,1711437418062500
-0.18,1711437418078125
-8.42,1711437418093750
-18.3,1711437418109375
-29.54,1711437418125000
-41.75,1711437418140625
-54.52,1711437418156250
-67.53,1711437418171875
-80.66,1711437418187500
-94.08,1711437418203125
-108.25,1711437418218750
-123.82,1711437418234375
-141.22,1711437418250000
-160.22,1711437418265625
-179.49,1711437418281250
-196.54,1711437418296875
-208.17,1711437418312500
-211.26,1711437418328125
-203.82,1711437418343750
-185.59,1711437418359375
-158.27,1711437418375000
-124.99,1711437418390625
-89.48,1711437418406250
-55.21,1711437418421875
-24.7,1711437418437500
0.7,1711437418453125
20.82,1711437418468750
36.44,1711437418484375
48.85,1711437418500000
59.58,1711437418515625
70.19,1711437418531250
82.12,1711437418546875
96.38,1711437418562500
113.03,1711437418578125
130.64,1711437418593750
146.19,1711437418609375
155.86,1711437418625000
156.46,1711437418640625
146.9,1711437418656250
128.75,1711437418671875
105.57,1711437418687500
81.18,1711437418703125
57.95,1711437418718750
36.27,1711437418734375
15.22,1711437418750000
-5.7,1711437418765625
-25.42,1711437418781250
-41.13,1711437418796875
-49.59,1711437418812500
-49.02,1711437418828125
-40.39,1711437418843750
-27.53,1711437418859375
-15.68,1711437418875000
-9.45,1711437418890625
-11.0,1711437418906250
-19.24,1711437418921875
-30.3,1711437418937500
-39.09,1711437418953125
-41.14,1711437418968750
-34.01,1711437418984375
-17.62,1711437419000000
6.19,1711437419015625
34.8,1711437419031250
65.81,1711437419046875
97.48,1711437419062500
128.86,1711437419078125
159.38,1711437419093750
188.64,1711437419109375
216.24,1711437419125000
241.59,1711437419140625
263.6,1711437419156250
280.59,1711437419171875
290.43,1711437419187500
291.32,1711437419203125
282.62,1711437419218750
265.49,1711437419234375
242.69,1711437419250000
217.82,1711437419265625
194.05,1711437419281250
173.21,1711437419296875
155.61,1711437419312500
140.54,1711437419328125
127.16,1711437419343750
115.06,1711437419359375
104.37,1711437419375000
95.31,1711437419390625
87.72,1711437419406250
80.9,1711437419421875
73.83,1711437419437500
65.67,1711437419453125
56.17,1711437419468750
45.76,1711437419484375
35.25,1711437419500000
25.45,1711437419515625
16.77,1711437419531250
9.06,1711437419546875
1.83,1711437419562500
-5.46,1711437419578125
-13.06,1711437419593750
-20.79,1711437419609375
-28.2,1711437419625000
-34.78,1711437419640625
-40.29,1711437419656250
-44.91,1711437419671875
-49.12,1711437419687500
-53.43,1711437419703125
-58.01,1711437419718750
-62.55,1711437419734375
-66.31,1711437419750000
-68.41,1711437419765625
-68.32,1711437419781250
-66.07,1711437419796875
-62.33,1711437419812500
-58.09,1711437419828125
-54.27,1711437419843750
-51.46,1711437419859375
-49.75,1711437419875000
-48.97,1711437419890625
-48.76,1711437419906250
-48.79,1711437419921875
-48.79,1711437419937500
-48.51,1711437419953125
-47.79,1711437419968750
-46.6,1711437419984375
-45.13,1711437420000000
-43.76,1711437420015625
-42.98,1711437420031250
-43.18,1711437420046875
-44.44,1711437420062500
-46.48,1711437420078125
-48.78,1711437420093750
-50.81,1711437420109375
-52.3,1711437420125000
-53.43,1711437420140625
-54.77,1711437420156250
-57.06,1711437420171875
-60.79,1711437420187500
-66.0,1711437420203125
-72.09,1711437420218750
-78.07,1711437420234375
-82.93,1711437420250000
-86.12,1711437420265625
-87.93,1711437420281250
-89.48,1711437420296875
-92.51,1711437420312500
-98.76,1711437420328125
-109.25,1711437420343750
-123.71,1711437420359375
-140.37,1711437420375000
-156.48,1711437420390625
-169.32,1711437420406250
-177.27,1711437420421875
-180.49,1711437420437500
-180.63,1711437420453125
-179.76,1711437420468750
-179.0,1711437420484375
-177.61,1711437420500000
-173.22,1711437420515625
-163.01,1711437420531250
-145.2,1711437420546875
-120.3,1711437420562500
-90.95,1711437420578125
-60.85,1711437420593750
-33.13,1711437420609375
-9.05,1711437420625000
12.45,1711437420640625
34.01,1711437420656250
58.89,1711437420671875
89.92,1711437420687500
128.85,1711437420703125
175.83,1711437420718750
228.79,1711437420734375
282.89,1711437420750000
330.64,1711437420765625
363.25,1711437420781250
373.45,1711437420796875
358.72,1711437420812500
323.38,1711437420828125
278.02,1711437420843750
235.94,1711437420859375
207.96,1711437420875000
198.09,1711437420890625
202.24,1711437420906250
210.69,1711437420921875
213.05,1711437420937500
203.04,1711437420953125
180.69,1711437420968750
151.02,1711437420984375
120.43,1711437421000000
93.08,1711437421015625
69.36,1711437421031250
47.18,1711437421046875
24.59,1711437421062500
2.22,1711437421078125
-16.58,1711437421093750
-27.67,1711437421109375
-29.01,1711437421125000
-22.48,1711437421140625
-13.65,1711437421156250
-9.28,1711437421171875
-14.28,1711437421187500
-29.65,1711437421203125
-52.45,1711437421218750
-77.82,1711437421234375
-101.63,1711437421250000
-122.3,1711437421265625
-140.9,1711437421281250
-159.72,1711437421296875
-180.4,1711437421312500
-202.5,1711437421328125
-223.51,1711437421343750
-240.04,1711437421359375
-249.49,1711437421375000
-251.26,1711437421390625
-246.78,1711437421406250
-238.6,1711437421421875
-229.08,1711437421437500
-219.55,1711437421453125
-210.21,1711437421468750
-200.92,1711437421484375
-192.0,1711437421500000
-184.64,1711437421515625
-180.47,1711437421531250
-180.53,1711437421546875
-184.35,1711437421562500
-189.52,1711437421578125
-192.21,1711437421593750
-188.33,1711437421609375
-174.95,1711437421625000
-151.23,1711437421640625
-118.57,1711437421656250
-79.98,1711437421671875
-38.98,1711437421687500
1.39,1711437421703125
39.2,1711437421718750
73.61,1711437421734375
104.48,1711437421750000
131.8,1711437421765625
155.15,1711437421781250
173.34,1711437421796875
184.3,1711437421812500
185.55,1711437421828125
175.14,1711437421843750
152.92,1711437421859375
121.32,1711437421875000
85.25,1711437421890625
50.84,1711437421906250
23.52,1711437421921875
6.24,1711437421937500
-1.14,1711437421953125
-1.29,1711437421968750
2.09,1711437421984375
5.78,1711437422000000
7.92,1711437422015625
7.98,1711437422031250
6.24,1711437422046875
3.36,1711437422062500
0.23,1711437422078125
-1.95,1711437422093750
-1.54,1711437422109375
3.2,1711437422125000
13.51,1711437422140625
29.59,1711437422156250
50.26,1711437422171875
73.02,1711437422187500
94.42,1711437422203125
110.83,1711437422218750
119.37,1711437422234375
118.76,1711437422250000
109.65,1711437422265625
94.48,1711437422281250
76.66,1711437422296875
59.4,1711437422312500
44.72,1711437422328125
33.12,1711437422343750
23.81,1711437422359375
15.54,1711437422375000
7.42,1711437422390625
-0.62,1711437422406250
-8.02,1711437422421875
-14.06,1711437422437500
-18.51,1711437422453125
-21.96,1711437422468750
-25.81,1711437422484375
-31.74,1711437422500000
-40.99,1711437422515625
-53.71,1711437422531250
-68.51,1711437422546875
-82.6,1711437422562500
-92.46,1711437422578125
-95.02,1711437422593750
-88.76,1711437422609375
-74.33,1711437422625000
-54.43,1711437422640625
-32.87,1711437422656250
-13.37,1711437422671875
1.5,1711437422687500
10.72,1711437422703125
14.58,1711437422718750
14.01,1711437422734375
9.98,1711437422750000
3.11,1711437422765625
-6.27,1711437422781250
-17.82,1711437422796875
-30.89,1711437422812500
-44.31,1711437422828125
-56.45,1711437422843750
-65.53,1711437422859375
-70.09,1711437422875000
-69.45,1711437422890625
-63.97,1711437422906250
-54.86,1711437422921875
-43.63,1711437422937500
-31.47,1711437422953125
-18.8,1711437422968750
-5.22,1711437422984375
9.95,1711437423000000
27.13,1711437423015625
46.06,1711437423031250
65.76,1711437423046875
84.79,1711437423062500
101.44,1711437423078125
113.75,1711437423093750
119.62,1711437423109375
117.21,1711437423125000
105.65,1711437423140625
85.83,1711437423156250
60.73,1711437423171875
34.71,1711437423187500
12.15,1711437423203125
-4.18,1711437423218750
-14.01,1711437423234375
-19.3,1711437423250000
-23.07,1711437423265625
-27.91,1711437423281250
-34.98,1711437423296875
-43.68,1711437423312500
-52.15,1711437423328125
-57.87,1711437423343750
-58.48,1711437423359375
-52.34,1711437423375000
-39.0,1711437423390625
-19.55,1711437423406250
3.44,1711437423421875
26.45,1711437423437500
45.87,1711437423453125
59.02,1711437423468750
64.76,1711437423484375
63.57,1711437423500000
57.08,1711437423515625
47.35,1711437423531250
36.33,1711437423546875
25.57,1711437423562500
16.26,1711437423578125
9.27,1711437423593750
5.23,1711437423609375
4.27,1711437423625000
5.86,1711437423640625
8.78,1711437423656250
11.39,1711437423671875
12.2,1711437423687500
10.52,1711437423703125
6.7,1711437423718750
1.98,1711437423734375
-2.08,1711437423750000
-4.34,1711437423765625
-4.6,1711437423781250
-3.65,1711437423796875
-2.77,1711437423812500
-3.13,1711437423828125
-5.25,1711437423843750
-8.81,1711437423859375
-13.07,1711437423875000
-17.27,1711437423890625
-21.12,1711437423906250
-24.87,1711437423921875
-29.12,1711437423937500
-34.49,1711437423953125
-41.34,1711437423968750
-49.61,1711437423984375
-58.99,1711437424000000
-68.84,1711437424015625
-78.17,1711437424031250
-85.52,1711437424046875
-89.0,1711437424062500
-86.66,1711437424078125
-77.16,1711437424093750
-60.49,1711437424109375
-38.25,1711437424125000
-13.35,1711437424140625
10.77,1711437424156250
31.13,1711437424171875
45.86,1711437424187500
54.47,1711437424203125
57.42,1711437424218750
55.71,1711437424234375
50.37,1711437424250000
42.37,1711437424265625
32.65,1711437424281250
22.28,1711437424296875
12.47,1711437424312500
4.41,1711437424328125
-1.06,1711437424343750
-3.71,1711437424359375
-3.98,1711437424375000
-2.87,1711437424390625
-1.49,1711437424406250
-0.66,1711437424421875
-0.67,1711437424437500
-1.26,1711437424453125
-1.93,1711437424468750
-2.35,1711437424484375
-2.64,1711437424500000
-3.38,1711437424515625
-5.38,1711437424531250
-9.21,1711437424546875
-14.91,1711437424562500
-21.85,1711437424578125
-29.0,1711437424593750
-35.31,1711437424609375
-40.12,1711437424625000
-43.43,1711437424640625
-45.87,1711437424656250
-48.45,1711437424671875
-52.24,1711437424687500
-58.03,1711437424703125
-66.08,1711437424718750
-75.89,1711437424734375
-85.96,1711437424750000
-93.88,1711437424765625
-96.73,1711437424781250
-91.84,1711437424796875
-77.88,1711437424812500
-55.48,1711437424828125
-27.39,1711437424843750
2.28,1711437424859375
29.34,1711437424875000
50.7,1711437424890625
65.04,1711437424906250
72.64,1711437424921875
74.7,1711437424937500
72.53,1711437424953125
67.12,1711437424968750
59.17,1711437424984375
49.47,1711437425000000
39.1,1711437425015625
29.4,1711437425031250
21.7,1711437425046875
16.85,1711437425062500
15.06,1711437425078125
15.78,1711437425093750
17.98,1711437425109375
20.48,1711437425125000
22.32,1711437425140625
22.95,1711437425156250
22.31,1711437425171875
20.76,1711437425187500
18.76,1711437425203125
16.62,1711437425218750
14.28,1711437425234375
11.38,1711437425250000
7.36,1711437425265625
1.82,1711437425281250
-5.2,1711437425296875
-13.18,1711437425312500
-21.28,1711437425328125
-28.61,1711437425343750
-34.6,1711437425359375
-39.14,1711437425375000
-42.54,1711437425390625
-45.43,1711437425406250
-48.53,1711437425421875
-52.58,1711437425437500
-58.22,1711437425453125
-65.82,1711437425468750
-75.13,1711437425484375
-84.96,1711437425500000
-92.97,1711437425515625
-96.15,1711437425531250
-91.67,1711437425546875
-78.01,1711437425562500
-55.76,1711437425578125
-27.65,1711437425593750
2.28,1711437425609375
29.87,1711437425625000
52.07,1711437425640625
67.44,1711437425656250
75.97,1711437425671875
78.54,1711437425687500
76.27,1711437425703125
70.28,1711437425718750
61.64,1711437425734375
51.62,1711437425750000
41.61,1711437425765625
32.99,1711437425781250
26.76,1711437425796875
23.43,1711437425812500
22.82,1711437425828125
24.31,1711437425843750
26.94,1711437425859375
29.76,1711437425875000
31.96,1711437425890625
33.03,1711437425906250
32.78,1711437425921875
31.32,1711437425937500
28.92,1711437425953125
25.93,1711437425968750
22.63,1711437425984375
19.11,1711437426000000
15.28,1711437426015625
10.87,1711437426031250
5.6,1711437426046875
-0.67,1711437426062500
-7.84,1711437426078125
-15.48,1711437426093750
-23.0,1711437426109375
-29.84,1711437426125000
-35.65,1711437426140625
-40.43,1711437426156250
-44.44,1711437426171875
-48.16,1711437426187500
-52.08,1711437426203125
-56.8,1711437426218750
-62.9,1711437426234375
-70.76,1711437426250000
-80.11,1711437426265625
-89.58,1711437426281250
-96.54,1711437426296875
-97.68,1711437426312500
-90.11,1711437426328125
-72.63,1711437426343750
-46.55,1711437426359375
-15.46,1711437426375000
15.91,1711437426390625
43.17,1711437426406250
63.49,1711437426421875
76.02,1711437426437500
81.4,1711437426453125
80.99,1711437426468750
76.22,1711437426484375
68.28,1711437426500000
58.33,1711437426515625
47.61,1711437426531250
37.5,1711437426546875
29.27,1711437426562500
23.79,1711437426578125
21.33,1711437426593750
21.58,1711437426609375
23.78,1711437426625000
27.02,1711437426640625
30.41,1711437426656250
33.25,1711437426671875
35.1,1711437426687500
35.69,1711437426703125
34.99,1711437426718750
33.03,1711437426734375
29.89,1711437426750000
25.67,1711437426765625
20.52,1711437426781250
14.64,1711437426796875
8.28,1711437426812500
1.66,1711437426828125
-5.1,1711437426843750
-11.96,1711437426859375
-18.91,1711437426875000
-25.89,1711437426890625
-32.69,1711437426906250
-38.97,1711437426921875
-44.48,1711437426937500
-49.13,1711437426953125
-53.12,1711437426968750
-57.03,1711437426984375
-61.66,1711437427000000
-67.83,1711437427015625
-76.02,1711437427031250
-85.81,1711437427046875
-95.64,1711437427062500
-102.75,1711437427078125
-103.86,1711437427093750
-96.27,1711437427109375
-78.95,1711437427125000
-53.21,1711437427140625
-22.48,1711437427156250
8.7,1711437427171875
36.12,1711437427187500
56.93,1711437427203125
70.13,1711437427218750
76.11,1711437427234375
76.04,1711437427250000
71.19,1711437427265625
62.72,1711437427281250
51.78,1711437427296875
39.82,1711437427312500
28.56,1711437427328125
19.71,1711437427343750
14.49,1711437427359375
13.28,1711437427375000
15.48,1711437427390625
19.75,1711437427406250
24.53,1711437427421875
28.52,1711437427437500
30.97,1711437427453125
31.74,1711437427468750
31.12,1711437427484375
29.52,1711437427500000
27.25,1711437427515625
24.38,1711437427531250
20.7,1711437427546875
15.95,1711437427562500
9.93,1711437427578125
2.73,1711437427593750
-5.19,1711437427609375
-13.11,1711437427625000
-20.28,1711437427640625
-26.16,1711437427656250
-30.64,1711437427671875
-34.01,1711437427687500
-36.89,1711437427703125
-39.98,1711437427718750
-43.92,1711437427734375
-49.25,1711437427750000
-56.33,1711437427765625
-65.14,1711437427781250
-74.97,1711437427796875
-84.07,1711437427812500
-89.74,1711437427828125
-88.99,1711437427843750
-79.55,1711437427859375
-60.92,1711437427875000
-34.8,1711437427890625
-4.74,1711437427906250
24.94,1711437427921875
50.45,1711437427937500
69.43,1711437427953125
81.1,1711437427968750
85.85,1711437427984375
84.66,1711437428000000
78.65,1711437428015625
69.04,1711437428031250
57.24,1711437428046875
44.93,1711437428062500
33.86,1711437428078125
25.43,1711437428093750
20.35,1711437428109375
18.57,1711437428125000
19.41,1711437428140625
21.92,1711437428156250
25.21,1711437428171875
28.64,1711437428187500
31.71,1711437428203125
33.94,1711437428218750
34.73,1711437428234375
33.4,1711437428250000
29.37,1711437428265625
22.5,1711437428281250
13.25,1711437428296875
2.64,1711437428312500
-7.97,1711437428328125
-17.4,1711437428343750
-25.0,1711437428359375
-30.86,1711437428375000
-35.8,1711437428390625
-41.11,1711437428406250
-48.08,1711437428421875
-57.51,1711437428437500
-69.13,1711437428453125
-81.25,1711437428468750
-90.95,1711437428484375
-94.76,1711437428500000
-89.82,1711437428515625
-75.04,1711437428531250
-51.75,1711437428546875
-23.37,1711437428562500
5.67,1711437428578125
31.35,1711437428593750
51.13,1711437428609375
64.18,1711437428625000
70.98,1711437428640625
72.41,1711437428656250
69.17,1711437428671875
61.72,1711437428687500
50.62,1711437428703125
37.02,1711437428718750
22.8,1711437428734375
10.15,1711437428750000
0.97,1711437428765625
-3.89,1711437428781250
-4.91,1711437428796875
-3.71,1711437428812500
-2.42,1711437428828125
-2.83,1711437428843750
-5.75,1711437428859375
-10.83,1711437428875000
-16.87,1711437428890625
-22.55,1711437428906250
-27.09,1711437428921875
-30.84,1711437428937500
-35.05,1711437428953125
-41.49,1711437428968750
-51.67,1711437428984375
-66.2,1711437429000000
-84.37,1711437429015625
-104.11,1711437429031250
-122.53,1711437429046875
-136.63,1711437429062500
-144.15,1711437429078125
-144.14,1711437429093750
-137.04,1711437429109375
-124.31,1711437429125000
-107.65,1711437429140625
-88.31,1711437429156250
-66.6,1711437429171875
-41.82,1711437429187500
-12.81,1711437429203125
21.47,1711437429218750
61.13,1711437429234375
104.69,1711437429250000
148.69,1711437429265625
187.82,1711437429281250
215.92,1711437429296875
227.81,1711437429312500
221.26,1711437429328125
198.26,1711437429343750
164.71,1711437429359375
128.47,1711437429375000
96.55,1711437429390625
72.9,1711437429406250
57.75,1711437429421875
48.75,1711437429437500
43.03,1711437429453125
38.89,1711437429468750
36.34,1711437429484375
36.24,1711437429500000
38.99,1711437429515625
43.71,1711437429531250
48.41,1711437429546875
51.04,1711437429562500
50.46,1711437429578125
46.99,1711437429593750
42.01,1711437429609375
37.14,1711437429625000
33.4,1711437429640625
30.66,1711437429656250
27.91,1711437429671875
23.74,1711437429687500
17.11,1711437429703125
7.77,1711437429718750
-3.53,1711437429734375
-15.41,1711437429750000
-26.32,1711437429765625
-35.13,1711437429781250
-41.54,1711437429796875
-46.08,1711437429812500
-49.91,1711437429828125
-54.28,1711437429843750
-60.2,1711437429859375
-68.25,1711437429875000
-78.49,1711437429890625
-90.49,1711437429906250
-103.16,1711437429921875
-114.59,1711437429937500
-122.07,1711437429953125
-122.58,1711437429968750
-113.71,1711437429984375
-94.64,1711437430000000
-66.74,1711437430015625
-33.43,1711437430031250
0.77,1711437430046875
31.54,1711437430062500
55.86,1711437430078125
72.52,1711437430093750
81.8,1711437430109375
84.87,1711437430125000
83.14,1711437430140625
77.93,1711437430156250
70.54,1711437430171875
62.4,1711437430187500
54.99,1711437430203125
49.63,1711437430218750
47.06,1711437430234375
47.25,1711437430250000
49.35,1711437430265625
52.08,1711437430281250
54.28,1711437430296875
55.35,1711437430312500
55.38,1711437430328125
54.86,1711437430343750
54.32,1711437430359375
53.85,1711437430375000
53.01,1711437430390625
51.06,1711437430406250
47.34,1711437430421875
41.63,1711437430437500
34.36,1711437430453125
26.45,1711437430468750
18.91,1711437430484375
12.43,1711437430500000
7.01,1711437430515625
2.07,1711437430531250
-3.25,1711437430546875
-9.63,1711437430562500
-17.15,1711437430578125
-25.25,1711437430593750
-33.0,1711437430609375
-39.53,1711437430625000
-44.41,1711437430640625
-47.84,1711437430656250
-50.58,1711437430671875
-53.68,1711437430687500
-58.31,1711437430703125
-65.39,1711437430718750
-75.24,1711437430734375
-87.14,1711437430750000
-99.05,1711437430765625
-107.75,1711437430781250
-109.61,1711437430796875
-101.8,1711437430812500
-83.44,1711437430828125
-56.17,1711437430843750
-23.78,1711437430859375
8.96,1711437430875000
37.73,1711437430890625
59.74,1711437430906250
74.08,1711437430921875
81.26,1711437430937500
82.56,1711437430953125
79.42,1711437430968750
73.14,1711437430984375
65.02,1711437431000000
56.44,1711437431015625
48.82,1711437431031250
43.35,1711437431046875
40.69,1711437431062500
40.7,1711437431078125
42.56,1711437431093750
45.11,1711437431109375
47.28,1711437431125000
48.48,1711437431140625
48.75,1711437431156250
48.49,1711437431171875
48.14,1711437431187500
47.76,1711437431203125
46.95,1711437431218750
44.98,1711437431234375
41.15,1711437431250000
35.16,1711437431265625
27.43,1711437431281250
18.93,1711437431296875
10.89,1711437431312500
4.21,1711437431328125
-0.82,1711437431343750
-4.69,1711437431359375
-8.4,1711437431375000
-12.9,1711437431390625
-18.71,1711437431406250
-25.62,1711437431421875
-32.85,1711437431437500
-39.42,1711437431453125
-44.63,1711437431468750
-48.34,1711437431484375
-51.01,1711437431500000
-53.49,1711437431515625
-56.76,1711437431531250
-61.74,1711437431546875
-68.97,1711437431562500
-78.3,1711437431578125
-88.58,1711437431593750
-97.52,1711437431609375
-102.03,1711437431625000
-99.07,1711437431640625
-86.78,1711437431656250
-65.34,1711437431671875
-37.19,1711437431687500
-6.37,1711437431703125
22.71,1711437431718750
46.54,1711437431734375
63.3,1711437431750000
72.81,1711437431765625
76.03,1711437431781250
74.33,1711437431796875
69.01,1711437431812500
61.22,1711437431828125
52.14,1711437431843750
43.04,1711437431859375
35.26,1711437431875000
29.86,1711437431890625
27.32,1711437431906250
27.33,1711437431921875
28.91,1711437431937500
30.79,1711437431953125
31.87,1711437431968750
31.68,1711437431984375
30.31,1711437432000000
28.28,1711437432015625
26.13,1711437432031250
24.1,1711437432046875
22.11,1711437432062500
19.94,1711437432078125
17.44,1711437432093750
14.72,1711437432109375
12.05,1711437432125000
9.58,1711437432140625
7.15,1711437432156250
4.18,1711437432171875
-0.12,1711437432187500
-6.37,1711437432203125
-14.7,1711437432218750
-24.49,1711437432234375
-34.57,1711437432250000
-43.53,1711437432265625
-50.21,1711437432281250
-54.09,1711437432296875
-55.47,1711437432312500
-55.35,1711437432328125
-55.15,1711437432343750
-56.33,1711437432359375
-59.82,1711437432375000
-65.62,1711437432390625
-72.48,1711437432406250
-78.01,1711437432421875
-79.26,1711437432437500
-73.73,1711437432453125
-60.31,1711437432468750
-39.89,1711437432484375
-15.15,1711437432500000
10.25,1711437432515625
32.86,1711437432531250
50.34,1711437432546875
61.8,1711437432562500
67.5,1711437432578125
68.16,1711437432593750
64.58,1711437432609375
57.45,1711437432625000
47.6,1711437432640625
36.26,1711437432656250
25.08,1711437432671875
15.82,1711437432687500
9.84,1711437432703125
7.66,1711437432718750
8.81,1711437432734375
12.09,1711437432750000
16.01,1711437432765625
19.4,1711437432781250
21.69,1711437432796875
22.95,1711437432812500
23.58,1711437432828125
23.87,1711437432843750
23.75,1711437432859375
22.7,1711437432875000
20.08,1711437432890625
15.47,1711437432906250
8.98,1711437432921875
1.33,1711437432937500
-6.44,1711437432953125
-13.34,1711437432968750
-18.9,1711437432984375
-23.31,1711437433000000
-27.42,1711437433015625
-32.37,1711437433031250
-39.22,1711437433046875
-48.61,1711437433062500
-60.39,1711437433078125
-73.4,1711437433093750
-85.4,1711437433109375
-93.28,1711437433125000
-93.91,1711437433140625
-84.95,1711437433156250
-65.81,1711437433171875
-38.11,1711437433187500
-5.33,1711437433203125
27.97,1711437433218750
57.39,1711437433234375
79.52,1711437433250000
92.48,1711437433265625
95.85,1711437433281250
90.33,1711437433296875
77.41,1711437433312500
59.16,1711437433328125
38.09,1711437433343750
17.07,1711437433359375
-1.03,1711437433375000
-13.81,1711437433390625
-19.82,1711437433406250
-18.88,1711437433421875
-12.11,1711437433437500
-1.59,1711437433453125
10.23,1711437433468750
21.13,1711437433484375
29.61,1711437433500000
34.87,1711437433515625
36.78,1711437433531250
35.47,1711437433546875
31.19,1711437433562500
24.17,1711437433578125
14.8,1711437433593750
3.65,1711437433609375
-8.38,1711437433625000
-20.19,1711437433640625
-30.66,1711437433656250
-38.92,1711437433671875
-44.55,1711437433687500
-47.77,1711437433703125
-49.34,1711437433718750
-50.49,1711437433734375
-52.59,1711437433750000
-56.83,1711437433765625
-63.77,1711437433781250
-72.95,1711437433796875
-82.57,1711437433812500
-89.69,1711437433828125
-90.95,1711437433843750
-83.71,1711437433859375
-67.13,1711437433875000
-42.85,1711437433890625
-14.56,1711437433906250
13.16,1711437433921875
36.36,1711437433937500
52.82,1711437433953125
62.31,1711437433968750
65.98,1711437433984375
65.32,1711437434000000
61.46,1711437434015625
54.96,1711437434031250
46.25,1711437434046875
36.11,1711437434062500
25.85,1711437434078125
17.09,1711437434093750
11.15,1711437434109375
8.61,1711437434125000
9.06,1711437434140625
11.3,1711437434156250
13.89,1711437434171875
15.63,1711437434187500
16.0,1711437434203125
15.11,1711437434218750
13.5,1711437434234375
11.77,1711437434250000
10.13,1711437434265625
8.34,1711437434281250
5.75,1711437434296875
1.73,1711437434312500
-4.11,1711437434328125
-11.56,1711437434343750
-19.85,1711437434359375
-27.95,1711437434375000
-34.91,1711437434390625
-40.23,1711437434406250
-44.0,1711437434421875
-46.85,1711437434437500
-49.68,1711437434453125
-53.43,1711437434468750
-58.88,1711437434484375
-66.45,1711437434500000
-75.98,1711437434515625
-86.42,1711437434531250
-95.66,1711437434546875
-100.83,1711437434562500
-99.0,1711437434578125
-88.22,1711437434593750
-68.49,1711437434609375
-42.0,1711437434625000
-12.64,1711437434640625
15.2,1711437434656250
37.98,1711437434671875
53.86,1711437434687500
62.8,1711437434703125
65.97,1711437434718750
64.96,1711437434734375
61.14,1711437434750000
55.52,1711437434765625
48.89,1711437434781250
42.05,1711437434796875
35.87,1711437434812500
31.06,1711437434828125
27.97,1711437434843750
26.45,1711437434859375
25.95,1711437434875000
25.78,1711437434890625
25.46,1711437434906250
24.8,1711437434921875
23.93,1711437434937500
23.01,1711437434953125
22.11,1711437434968750
21.06,1711437434984375
19.58,1711437435000000
17.42,1711437435015625
14.51,1711437435031250
11.06,1711437435046875
7.46,1711437435062500
4.1,1711437435078125
1.24,1711437435093750
-1.12,1711437435109375
-3.22,1711437435125000
-5.5,1711437435140625
-8.33,1711437435156250
-11.99,1711437435171875
-16.49,1711437435187500
-21.68,1711437435203125
-27.33,1711437435218750
-33.24,1711437435234375
-39.37,1711437435250000
-45.87,1711437435265625
-53.06,1711437435281250
-61.26,1711437435296875
-70.51,1711437435312500
-80.1,1711437435328125
-88.31,1711437435343750
-92.5,1711437435359375
-89.86,1711437435375000
-78.4,1711437435390625
-57.99,1711437435406250
-30.71,1711437435421875
-0.41,1711437435437500
28.45,1711437435453125
52.12,1711437435468750
68.53,1711437435484375
77.4,1711437435500000
79.81,1711437435515625
77.38,1711437435531250
71.69,1711437435546875
63.95,1711437435562500
55.16,1711437435578125
46.23,1711437435593750
38.12,1711437435609375
31.74,1711437435625000
27.7,1711437435640625
26.12,1711437435656250
26.54,1711437435671875
28.12,1711437435687500
29.95,1711437435703125
31.4,1711437435718750
32.27,1711437435734375
32.65,1711437435750000
32.62,1711437435765625
32.04,1711437435781250
30.47,1711437435796875
27.38,1711437435812500
22.51,1711437435828125
16.17,1711437435843750
9.14,1711437435859375
2.39,1711437435875000
-3.41,1711437435890625
-8.16,1711437435906250
-12.35,1711437435921875
-16.77,1711437435937500
-22.02,1711437435953125
-28.23,1711437435968750
-34.96,1711437435984375
-41.47,1711437436000000
-47.03,1711437436015625
-51.26,1711437436031250
-54.3,1711437436046875
-56.73,1711437436062500
-59.49,1711437436078125
-63.62,1711437436093750
-69.9,1711437436109375
-78.45,1711437436125000
-88.3,1711437436140625
-97.2,1711437436156250
-101.99,1711437436171875
-99.53,1711437436187500
-87.81,1711437436203125
-66.96,1711437436218750
-39.4,1711437436234375
-9.21,1711437436250000
19.22,1711437436265625
42.41,1711437436281250
58.6,1711437436296875
67.7,1711437436312500
70.67,1711437436328125
68.83,1711437436343750
63.27,1711437436359375
54.92,1711437436375000
44.72,1711437436390625
33.89,1711437436406250
24.0,1711437436421875
16.63,1711437436437500
12.88,1711437436453125
13.0,1711437436468750
16.24,1711437436484375
21.14,1711437436500000
26.08,1711437436515625
29.85,1711437436531250
31.97,1711437436546875
32.62,1711437436562500
32.28,1711437436578125
31.34,1711437436593750
29.77,1711437436609375
27.21,1711437436625000
23.15,1711437436640625
17.36,1711437436656250
10.11,1711437436671875
2.18,1711437436687500
-5.4,1711437436703125
-11.73,1711437436718750
-16.41,1711437436734375
-19.64,1711437436750000
-22.15,1711437436765625
-24.94,1711437436781250
-28.98,1711437436796875
-34.97,1711437436812500
-43.12,1711437436828125
-52.88,1711437436843750
-62.84,1711437436859375
-70.71,1711437436875000
-73.8,1711437436890625
-69.83,1711437436906250
-57.77,1711437436921875
-38.38,1711437436937500
-14.17,1711437436953125
11.4,1711437436968750
34.88,1711437436984375
53.72,1711437437000000
66.64,1711437437015625
73.43,1711437437031250
74.52,1711437437046875
70.6,1711437437062500
62.51,1711437437078125
51.38,1711437437093750
38.73,1711437437109375
26.37,1711437437125000
16.06,1711437437140625
9.08,1711437437156250
5.87,1711437437171875
5.95,1711437437187500
8.17,1711437437203125
11.25,1711437437218750
14.14,1711437437234375
16.4,1711437437250000
18.02,1711437437265625
19.15,1711437437281250
19.71,1711437437296875
19.23,1711437437312500
16.98,1711437437328125
12.35,1711437437343750
5.3,1711437437359375
-3.54,1711437437375000
-12.95,1711437437390625
-21.63,1711437437406250
-28.68,1711437437421875
-33.88,1711437437437500
-37.76,1711437437453125
-41.34,1711437437468750
-45.82,1711437437484375
-52.23,1711437437500000
-61.0,1711437437515625
-71.61,1711437437531250
-82.36,1711437437546875
-90.45,1711437437562500
-92.64,1711437437578125
-86.3,1711437437593750
-70.49,1711437437609375
-46.49,1711437437625000
-17.65,1711437437640625
11.66,1711437437656250
37.38,1711437437671875
56.8,1711437437687500
68.96,1711437437703125
74.36,1711437437718750
74.19,1711437437734375
69.74,1711437437750000
62.09,1711437437765625
52.19,1711437437781250
41.13,1711437437796875
30.27,1711437437812500
21.08,1711437437828125
14.82,1711437437843750
12.04,1711437437859375
12.43,1711437437875000
14.85,1711437437890625
17.81,1711437437906250
20.0,1711437437921875
20.78,1711437437937500
20.31,1711437437953125
19.19,1711437437968750
18.06,1711437437984375
17.15,1711437438000000
16.05,1711437438015625
13.99,1711437438031250
10.15,1711437438046875
4.15,1711437438062500
-3.8,1711437438078125
-12.81,1711437438093750
-21.73,1711437438109375
-29.47,1711437438125000
-35.42,1711437438140625
-39.66,1711437438156250
-42.87,1711437438171875
-46.12,1711437438187500
-50.51,1711437438203125
-56.94,1711437438218750
-65.81,1711437438234375
-76.78,1711437438250000
-88.51,1711437438265625
-98.59,1711437438281250
-103.89,1711437438296875
-101.37,1711437438312500
-89.13,1711437438328125
-67.31,1711437438343750
-38.3,1711437438359375
-6.18,1711437438375000
24.55,1711437438390625
50.18,1711437438406250
68.63,1711437438421875
79.53,1711437438437500
83.72,1711437438453125
82.56,1711437438468750
77.43,1711437438484375
69.6,1711437438500000
60.27,1711437438515625
50.67,1711437438531250
41.96,1711437438546875
35.08,1711437438562500
30.52,1711437438578125
28.28,1711437438593750
27.99,1711437438609375
29.02,1711437438625000
30.77,1711437438640625
32.71,1711437438656250
34.46,1711437438671875
35.73,1711437438687500
36.25,1711437438703125
35.76,1711437438718750
34.01,1711437438734375
30.88,1711437438750000
26.42,1711437438765625
20.84,1711437438781250
14.46,1711437438796875
7.64,1711437438812500
0.62,1711437438828125
-6.49,1711437438843750
-13.63,1711437438859375
-20.77,1711437438875000
-27.8,1711437438890625
-34.53,1711437438906250
-40.75,1711437438921875
-46.33,1711437438937500
-51.3,1711437438953125
-55.92,1711437438968750
-60.7,1711437438984375
-66.35,1711437439000000
-73.59,1711437439015625
-82.76,1711437439031250
-93.28,1711437439046875
-103.34,1711437439062500
-109.96,1711437439078125
-109.76,1711437439093750
-100.19,1711437439109375
-80.65,1711437439125000
-53.08,1711437439140625
-21.47,1711437439156250
9.34,1711437439171875
35.18,1711437439187500
53.56,1711437439203125
64.0,1711437439218750
67.45,1711437439234375
65.5,1711437439250000
59.64,1711437439265625
51.05,1711437439281250
40.7,1711437439296875
29.65,1711437439312500
19.17,1711437439328125
10.58,1711437439343750
4.91,1711437439359375
2.52,1711437439375000
2.98,1711437439390625
5.22,1711437439406250
8.05,1711437439421875
10.71,1711437439437500
13.15,1711437439453125
15.97,1711437439468750
20.02,1711437439484375
25.84,1711437439500000
33.32,1711437439515625
41.77,1711437439531250
50.2,1711437439546875
57.77,1711437439562500
63.98,1711437439578125
68.53,1711437439593750
70.95,1711437439609375
70.38,1711437439625000
65.72,1711437439640625
56.24,1711437439656250
42.18,1711437439671875
25.09,1711437439687500
7.58,1711437439703125
-7.6,1711437439718750
-18.55,1711437439734375
-24.87,1711437439750000
-27.72,1711437439765625
-29.12,1711437439781250
-31.12,1711437439796875
-35.07,1711437439812500
-41.52,1711437439828125
-50.38,1711437439843750
-61.22,1711437439859375
-73.21,1711437439875000
-84.85,1711437439890625
-93.78,1711437439906250
-97.01,1711437439921875
-91.81,1711437439937500
-76.82,1711437439953125
-52.95,1711437439968750
-23.38,1711437439984375
7.27,1711437440000000
34.41,1711437440015625
54.83,1711437440031250
67.36,1711437440046875
72.61,1711437440062500
72.18,1711437440078125
67.79,1711437440093750
60.76,1711437440109375
52.06,1711437440125000
42.56,1711437440140625
33.3,1711437440156250
25.54,1711437440171875
20.43,1711437440187500
18.7,1711437440203125
20.36,1711437440218750
24.66,1711437440234375
30.33,1711437440250000
36.07,1711437440265625
40.84,1711437440281250
44.22,1711437440296875
46.28,1711437440312500
47.34,1711437440328125
47.6,1711437440343750
46.95,1711437440359375
44.94,1711437440375000
41.15,1711437440390625
35.46,1711437440406250
28.29,1711437440421875
20.54,1711437440437500
13.19,1711437440453125
6.92,1711437440468750
1.79,1711437440484375
-2.69,1711437440500000
-7.32,1711437440515625
-12.71,1711437440531250
-19.0,1711437440546875
-25.81,1711437440562500
-32.37,1711437440578125
-37.94,1711437440593750
-42.12,1711437440609375
-45.01,1711437440625000
-47.24,1711437440640625
-49.77,1711437440656250
-53.6,1711437440671875
-59.5,1711437440687500
-67.69,1711437440703125
-77.53,1711437440718750
-87.34,1711437440734375
-94.51,1711437440750000
-96.06,1711437440765625
-89.52,1711437440781250
-73.88,1711437440796875
-50.18,1711437440812500
-21.33,1711437440828125
8.58,1711437440843750
35.58,1711437440859375
56.78,1711437440875000
70.85,1711437440890625
77.9,1711437440906250
78.92,1711437440921875
75.15,1711437440937500
67.82,1711437440953125
58.14,1711437440968750
47.43,1711437440984375
37.15,1711437441000000
28.73,1711437441015625
23.27,1711437441031250
21.16,1711437441046875
22.05,1711437441062500
24.95,1711437441078125
28.68,1711437441093750
32.17,1711437441109375
34.83,1711437441125000
36.55,1711437441140625
37.47,1711437441156250
37.77,1711437441171875
37.45,1711437441187500
36.23,1711437441203125
33.73,1711437441218750
29.67,1711437441234375
24.1,1711437441250000
17.44,1711437441265625
10.39,1711437441281250
3.7,1711437441296875
-2.12,1711437441312500
-6.95,1711437441328125
-11.09,1711437441343750
-15.07,1711437441359375
-19.34,1711437441375000
-24.07,1711437441390625
-29.03,1711437441406250
-33.76,1711437441421875
-37.76,1711437441437500
-40.78,1711437441453125
-42.95,1711437441468750
-44.72,1711437441484375
-46.75,1711437441500000
-49.77,1711437441515625
-54.4,1711437441531250
-60.93,1711437441546875
-68.99,1711437441562500
-77.26,1711437441578125
-83.5,1711437441593750
-84.97,1711437441609375
-79.26,1711437441625000
-65.26,1711437441640625
-43.74,1711437441656250
-17.29,1711437441671875
10.36,1711437441687500
35.48,1711437441703125
55.3,1711437441718750
68.44,1711437441734375
74.83,1711437441750000
75.22,1711437441765625
70.8,1711437441781250
62.83,1711437441796875
52.7,1711437441812500
41.94,1711437441828125
32.06,1711437441843750
24.39,1711437441859375
19.73,1711437441875000
18.22,1711437441890625
19.35,1711437441906250
22.15,1711437441921875
25.51,1711437441937500
28.51,1711437441953125
30.51,1711437441968750
31.29,1711437441984375
30.93,1711437442000000
29.68,1711437442015625
27.8,1711437442031250
25.44,1711437442046875
22.56,1711437442062500
18.94,1711437442078125
14.3,1711437442093750
8.52,1711437442109375
1.71,1711437442125000
-5.74,1711437442140625
-13.24,1711437442156250
-20.2,1711437442171875
-26.22,1711437442187500
-31.18,1711437442203125
-35.3,1711437442218750
-38.96,1711437442234375
-42.68,1711437442250000
-47.03,1711437442265625
-52.45,1711437442281250
