phoneTimestamp,sensorTimestamp,ecg
1710844279359,599616025634508727,915
1710844279366,599616025642188114,1501
1710844279374,599616025649867501,2110
1710844279382,599616025657546888,2836
1710844279389,599616025665226275,3432
1710844279397,599616025672905662,3979
1710844279405,599616025680585049,4563
1710844279412,599616025688264436,5101
1710844279420,599616025695943823,5594
1710844279428,599616025703623210,6082
1710844279435,599616025711302597,6543
1710844279443,599616025718981984,6980
1710844279451,599616025726661371,7412
1710844279457,599616025734340758,7802
1710844279465,599616025742020145,8126
1710844279473,599616025749699532,8447
1710844279481,599616025757378919,8783
1710844279489,599616025765058306,9097
1710844279497,599616025772737693,9367
1710844279504,599616025780417080,9623
1710844279512,599616025788096467,9885
1710844279520,599616025795775854,10118
1710844279527,599616025803455241,10292
1710844279535,599616025811134628,10447
1710844279543,599616025818814015,10631
1710844279550,599616025826493402,10805
1710844279558,599616025834172789,10957
1710844279566,599616025841852176,11092
1710844279574,599616025849531563,11181
1710844279581,599616025857210950,11274
1710844279589,599616025864890337,11455
1710844279597,599616025872569724,11784
1710844279604,599616025880249111,12165
1710844279612,599616025887928498,12250
1710844279620,599616025895607885,11860
1710844279627,599616025903287272,11350
1710844279635,599616025910966659,11311
1710844279643,599616025918646046,11605
1710844279649,599616025926325433,11706
1710844279657,599616025934004820,11708
1710844279665,599616025941684207,11794
1710844279673,599616025949363594,11828
1710844279681,599616025957042981,11779
1710844279689,599616025964722368,11757
1710844279696,599616025972401755,11777
1710844279704,599616025980081142,11767
1710844279712,599616025987760529,11698
1710844279719,599616025995439916,11639
1710844279727,599616026003119303,11632
1710844279735,599616026010798690,11617
1710844279742,599616026018478077,11561
1710844279750,599616026026157464,11522
1710844279758,599616026033836851,11492
1710844279766,599616026041516238,11453
1710844279773,599616026049195625,11414
1710844279781,599616026056875012,11345
1710844279789,599616026064554399,11269
1710844279796,599616026072233786,11195
1710844279804,599616026079913173,11127
1710844279812,599616026087592560,11065
1710844279819,599616026095271947,10967
1710844279827,599616026102951334,10859
1710844279835,599616026110630721,10788
1710844279841,599616026118310108,10695
1710844279849,599616026125989495,10572
1710844279857,599616026133668882,10476
1710844279865,599616026141348269,10398
1710844279873,599616026149027656,10292
1710844279881,599616026156707043,10192
1710844279888,599616026164386430,10096
1710844279896,599616026172065817,9946
1710844279904,599616026179745204,9812
1710844279911,599616026187424591,9748
1710844279919,599616026195083954,9689
1710844279927,599616026202763620,9588
1710844279934,599616026210443286,9456
1710844279942,599616026218122952,9345
1710844279950,599616026225802618,9274
1710844279957,599616026233482284,9208
1710844279965,599616026241161950,9112
1710844279973,599616026248841616,8972
1710844279981,599616026256521282,8842
1710844279988,599616026264200948,8752
1710844279996,599616026271880614,8668
1710844280004,599616026279560280,8550
1710844280011,599616026287239946,8430
1710844280019,599616026294919612,8354
1710844280027,599616026302599278,8266
1710844280033,599616026310278944,8114
1710844280041,599616026317958610,7991
1710844280049,599616026325638276,7939
1710844280057,599616026333317942,7868
1710844280065,599616026340997608,7763
1710844280073,599616026348677274,7674
1710844280080,599616026356356940,7591
1710844280088,599616026364036606,7495
1710844280096,599616026371716272,7397
1710844280103,599616026379395938,7299
1710844280111,599616026387075604,7218
1710844280119,599616026394755270,7149
1710844280126,599616026402434936,7032
1710844280134,599616026410114602,6835
1710844280142,599616026417794268,6681
1710844280149,599616026425473934,6629
1710844280157,599616026433153600,6565
1710844280165,599616026440833266,6448
1710844280173,599616026448512932,6322
1710844280180,599616026456192598,6229
1710844280188,599616026463872264,6175
1710844280196,599616026471551930,6188
1710844280203,599616026479231596,6310
1710844280211,599616026486911262,6487
1710844280219,599616026494590928,6497
1710844280225,599616026502270594,6026
1710844280233,599616026509950260,5272
1710844280241,599616026517629926,5047
1710844280249,599616026525309592,5316
1710844280257,599616026532989258,5361
1710844280265,599616026540668924,5272
1710844280272,599616026548348590,5297
1710844280280,599616026556028256,5209
1710844280288,599616026563707922,5061
1710844280295,599616026571387588,5015
1710844280303,599616026579067254,4968
1710844280311,599616026586746920,4880
1710844280318,599616026594426586,4804
1710844280326,599616026602106252,4750
1710844280334,599616026609785918,4696
1710844280341,599616026617465584,4644
1710844280349,599616026625145250,4583
1710844280357,599616026632824916,4487
1710844280364,599616026640504582,4421
1710844280372,599616026648184248,4418
1710844280380,599616026655863914,4391
1710844280388,599616026663543580,4296
1710844280395,599616026671223246,4198
1710844280403,599616026678902912,4141
1710844280411,599616026686582578,4097
1710844280417,599616026694262244,4046
1710844280425,599616026701941910,3994
1710844280433,599616026709621576,3930
1710844280441,599616026717301242,3859
1710844280449,599616026724980908,3778
1710844280457,599616026732660574,3682
1710844280464,599616026740340240,3609
1710844280472,599616026748019906,3562
1710844280480,599616026755709621,3484
1710844280487,599616026763389148,3381
1710844280495,599616026771068675,3305
1710844280503,599616026778748202,3268
1710844280510,599616026786427729,3216
1710844280518,599616026794107256,3135
1710844280526,599616026801786783,3052
1710844280533,599616026809466310,2981
1710844280541,599616026817145837,2902
1710844280549,599616026824825364,2846
1710844280556,599616026832504891,2821
1710844280564,599616026840184418,2777
1710844280572,599616026847863945,2694
1710844280580,599616026855543472,2610
1710844280587,599616026863222999,2571
1710844280595,599616026870902526,2566
1710844280603,599616026878582053,2544
1710844280609,599616026886261580,2500
1710844280617,599616026893941107,2451
1710844280625,599616026901620634,2402
1710844280633,599616026909300161,2362
1710844280641,599616026916979688,2326
1710844280649,599616026924659215,2269
1710844280656,599616026932338742,2213
1710844280664,599616026940018269,2178
1710844280672,599616026947697796,2132
1710844280679,599616026955377323,2068
1710844280687,599616026963056850,2014
1710844280695,599616026970736377,1972
1710844280702,599616026978415904,1943
1710844280710,599616026986095431,1906
1710844280718,599616026993774958,1862
1710844280725,599616027001454485,1820
1710844280733,599616027009134012,1771
1710844280741,599616027016813539,1724
1710844280748,599616027024493066,1688
1710844280756,599616027032172593,1648
1710844280764,599616027039852120,1614
1710844280772,599616027047531647,1594
1710844280779,599616027055211174,1570
1710844280787,599616027062890701,1533
1710844280795,599616027070570228,1538
1710844280801,599616027078249755,1661
1710844280809,599616027085929282,1911
1710844280817,599616027093608809,2132
1710844280825,599616027101288336,2011
1710844280833,599616027108967863,1423
1710844280841,599616027116647390,932
1710844280848,599616027124326917,1059
1710844280856,599616027132006444,1297
1710844280864,599616027139685971,1261
1710844280871,599616027147365498,1258
1710844280879,599616027155045025,1317
1710844280887,599616027162724552,1266
1710844280894,599616027170404079,1209
1710844280902,599616027178083606,1209
1710844280910,599616027185763133,1194
1710844280917,599616027193442660,1158
1710844280925,599616027201122187,1128
1710844280933,599616027208801714,1118
1710844280940,599616027216481241,1118
1710844280948,599616027224160768,1106
1710844280956,599616027231840295,1082
1710844280964,599616027239519822,1074
1710844280971,599616027247199349,1072
1710844280979,599616027254878876,1055
1710844280987,599616027262558403,1035
1710844280993,599616027270237930,1028
1710844281001,599616027277917457,1025
1710844281009,599616027285596984,1008
1710844281017,599616027293276511,976
1710844281025,599616027300956038,944
1710844281033,599616027308635565,917
1710844281040,599616027316315108,880
1710844281048,599616027323994635,844
1710844281056,599616027331674162,809
1710844281063,599616027339353689,767
1710844281071,599616027347033216,728
1710844281079,599616027354712743,709
1710844281086,599616027362392270,684
1710844281094,599616027370071797,647
1710844281102,599616027377751324,613
1710844281109,599616027385430851,586
1710844281117,599616027393110378,576
1710844281125,599616027400789905,576
1710844281132,599616027408469432,559
1710844281140,599616027416148959,539
1710844281148,599616027423828486,532
1710844281155,599616027431508013,522
1710844281163,599616027439187540,490
1710844281171,599616027446867067,463
1710844281179,599616027454546594,453
1710844281185,599616027462226121,458
1710844281193,599616027469905648,458
1710844281201,599616027477585175,449
1710844281209,599616027485264702,434
1710844281217,599616027492944229,412
1710844281225,599616027500623756,399
1710844281232,599616027508303283,395
1710844281240,599616027515982810,390
1710844281248,599616027523662337,375
1710844281255,599616027531341864,350
1710844281263,599616027539021391,338
1710844281271,599616027546700918,341
1710844281278,599616027554380445,333
1710844281286,599616027562059972,316
1710844281294,599616027569739499,304
1710844281301,599616027577419026,299
1710844281309,599616027585098553,299
1710844281317,599616027592778080,296
1710844281324,599616027600457607,272
1710844281332,599616027608137134,230
1710844281340,599616027615816661,196
1710844281347,599616027623496188,179
1710844281355,599616027631175715,176
1710844281363,599616027638855242,157
1710844281371,599616027646534769,130
1710844281377,599616027654214296,122
1710844281385,599616027661893823,127
1710844281393,599616027669573350,125
1710844281401,599616027677252877,166
1710844281409,599616027684932404,348
1710844281417,599616027692611931,655
1710844281424,599616027700291458,792
1710844281432,599616027707970985,436
1710844281440,599616027715650512,-208
1710844281447,599616027723330039,-412
1710844281455,599616027731009566,-130
1710844281463,599616027738689093,4
1710844281470,599616027746368620,-39
1710844281478,599616027754048147,0
1710844281486,599616027761727674,22
1710844281493,599616027769407201,2
1710844281501,599616027777086728,19
1710844281509,599616027784766255,39
1710844281516,599616027792445782,26
1710844281524,599616027800125309,19
1710844281532,599616027807804836,39
1710844281539,599616027815484363,51
1710844281547,599616027823163890,34
1710844281555,599616027830843417,24
1710844281563,599616027838522944,39
1710844281569,599616027846202471,68
1710844281577,599616027853881998,88
1710844281585,599616027861561525,78
1710844281593,599616027869241052,73
1710844281601,599616027876920595,85
1710844281609,599616027884600122,85
1710844281616,599616027892279649,76
1710844281624,599616027899959176,66
1710844281632,599616027907638703,44
1710844281639,599616027915318230,19
1710844281647,599616027922997757,0
1710844281655,599616027930677284,-19
1710844281662,599616027938356811,-31
1710844281670,599616027946036338,-44
1710844281678,599616027953715865,-58
1710844281685,599616027961395392,-83
1710844281693,599616027969074919,-122
1710844281701,599616027976754446,-147
1710844281708,599616027984433973,-142
1710844281716,599616027992113500,-147
1710844281724,599616027999793027,-171
1710844281731,599616028007472554,-184
1710844281739,599616028015152081,-181
1710844281747,599616028022831608,-176
1710844281755,599616028030511135,-164
1710844281761,599616028038190662,-157
1710844281769,599616028045870189,-174
1710844281777,599616028053549716,-191
1710844281785,599616028061229243,-174
1710844281793,599616028068908770,-144
1710844281801,599616028076588297,-147
1710844281808,599616028084267824,-164
1710844281816,599616028091947351,-166
1710844281824,599616028099626878,-164
1710844281831,599616028107306405,-169
1710844281839,599616028114985932,-174
1710844281847,599616028122665459,-196
1710844281854,599616028130344986,-245
1710844281862,599616028138024513,-284
1710844281870,599616028145704040,-272
1710844281877,599616028153383567,-250
1710844281885,599616028161063094,-238
1710844281893,599616028168742621,-223
1710844281900,599616028176422148,-245
1710844281908,599616028184101675,-282
1710844281916,599616028191781202,-260
1710844281923,599616028199460729,-211
1710844281931,599616028207140256,-206
1710844281939,599616028214819783,-240
1710844281945,599616028222499310,-264
1710844281953,599616028230178837,-252
1710844281961,599616028237858364,-255
1710844281969,599616028245537891,-306
1710844281977,599616028253217418,-343
1710844281985,599616028260896945,-328
1710844281993,599616028268576472,-326
1710844282000,599616028276255999,-368
1710844282008,599616028283935526,-365
1710844282016,599616028291615053,-235
1710844282023,599616028299294580,58
1710844282031,599616028306974107,318
1710844282039,599616028314653634,164
1710844282046,599616028322333161,-412
1710844282054,599616028330012688,-758
1710844282062,599616028337692215,-502
1710844282069,599616028345371742,-252
1710844282077,599616028353051269,-287
1710844282085,599616028360730796,-274
1710844282092,599616028368410323,-220
1710844282100,599616028376089850,-230
1710844282108,599616028383769377,-242
1710844282115,599616028391448904,-252
1710844282123,599616028399128431,-294
1710844282131,599616028406807958,-341
1710844282137,599616028414487485,-387
1710844282145,599616028422167012,-456
1710844282153,599616028429846539,-515
1710844282161,599616028437531122,-507
1710844282169,599616028445210579,-483
1710844282177,599616028452890036,-485
1710844282185,599616028460569493,-480
1710844282192,599616028468248950,-461
1710844282200,599616028475928407,-449
1710844282208,599616028483607864,-436
1710844282215,599616028491287321,-426
1710844282223,599616028498966778,-422
1710844282231,599616028506646235,-407
1710844282238,599616028514325692,-404
1710844282246,599616028522005149,-424
1710844282254,599616028529684606,-444
1710844282261,599616028537364063,-446
1710844282269,599616028545043520,-451
1710844282277,599616028552722977,-480
1710844282284,599616028560402434,-529
1710844282292,599616028568081891,-520
1710844282300,599616028575761348,-395
1710844282307,599616028583440805,-260
1710844282315,599616028591120262,-203
1710844282323,599616028598799719,-193
1710844282329,599616028606479176,-191
1710844282337,599616028614158633,-181
1710844282345,599616028621838090,-164
1710844282353,599616028629517547,-149
1710844282361,599616028637197004,-139
1710844282369,599616028644876461,-134
1710844282377,599616028652555918,-130
1710844282384,599616028660235375,-130
1710844282392,599616028667914832,-139
1710844282400,599616028675594289,-154
1710844282407,599616028683273746,-147
1710844282415,599616028690953203,-120
1710844282423,599616028698632660,-105
1710844282430,599616028706312117,-95
1710844282438,599616028713991574,-85
1710844282446,599616028721671031,-95
1710844282453,599616028729350488,-137
1710844282461,599616028737029945,-191
1710844282469,599616028744709402,-240
1710844282476,599616028752388859,-260
1710844282484,599616028760068316,-242
1710844282492,599616028767747773,-240
1710844282499,599616028775427230,-262
1710844282507,599616028783106687,-277
1710844282515,599616028790786144,-284
1710844282521,599616028798465601,-299
1710844282529,599616028806145058,-309
1710844282537,599616028813824515,-306
1710844282545,599616028821503972,-299
1710844282553,599616028829183429,-304
1710844282561,599616028836862886,-333
1710844282569,599616028844542343,-370
1710844282576,599616028852221800,-382
1710844282584,599616028859901257,-363
1710844282592,599616028867580714,-343
1710844282599,599616028875260171,-343
1710844282607,599616028882939628,-348
1710844282615,599616028890619085,-343
1710844282622,599616028898298542,-338
1710844282630,599616028905977999,-291
1710844282638,599616028913657456,-105
1710844282645,599616028921336913,201
1710844282653,599616028929016370,372
1710844282661,599616028936695827,88
1710844282668,599616028944375284,-564
1710844282676,599616028952054741,-846
1710844282684,599616028959734198,-534
1710844282691,599616028967413655,-353
1710844282699,599616028975093112,-422
1710844282707,599616028982772569,-363
1710844282713,599616028990452026,-294
1710844282721,599616028998121517,-326
1710844282729,599616029005801113,-343
1710844282737,599616029013480709,-350
1710844282745,599616029021160305,-368
1710844282753,599616029028839901,-341
1710844282761,599616029036519497,-309
1710844282768,599616029044199093,-343
1710844282776,599616029051878689,-377
1710844282784,599616029059558285,-350
1710844282791,599616029067237881,-309
1710844282799,599616029074917477,-291
1710844282807,599616029082597073,-279
1710844282814,599616029090276669,-257
1710844282822,599616029097956265,-233
1710844282830,599616029105635861,-223
1710844282837,599616029113315457,-225
1710844282845,599616029120995053,-228
1710844282853,599616029128674649,-225
1710844282860,599616029136354245,-215
1710844282868,599616029144033841,-223
1710844282876,599616029151713437,-240
1710844282883,599616029159393033,-238
1710844282891,599616029167072629,-228
1710844282899,599616029174752225,-233
1710844282905,599616029182431821,-260
1710844282913,599616029190111417,-309
1710844282921,599616029197791013,-355
1710844282929,599616029205470609,-387
1710844282937,599616029213150205,-412
1710844282945,599616029220829801,-414
1710844282953,599616029228509397,-407
1710844282960,599616029236188993,-397
1710844282968,599616029243868589,-395
1710844282976,599616029251548185,-417
1710844282983,599616029259227781,-439
1710844282991,599616029266907377,-436
1710844282999,599616029274586973,-436
1710844283006,599616029282266569,-500
1710844283014,599616029289946165,-593
1710844283022,599616029297625761,-625
1710844283029,599616029305305357,-610
1710844283037,599616029312984953,-613
1710844283045,599616029320664549,-623
1710844283052,599616029328344145,-630
1710844283060,599616029336023741,-623
1710844283068,599616029343703337,-610
1710844283075,599616029351382933,-615
1710844283083,599616029359062529,-593
1710844283091,599616029366742125,-520
1710844283097,599616029374421721,-424
1710844283105,599616029382101317,-372
1710844283113,599616029389780913,-390
1710844283121,599616029397460509,-402
1710844283129,599616029405140105,-365
1710844283137,599616029412819701,-348
1710844283144,599616029420499297,-336
1710844283152,599616029428178893,-274
1710844283160,599616029435858489,-228
1710844283168,599616029443538085,-164
1710844283175,599616029451217681,-44
1710844283183,599616029458897277,12
1710844283191,599616029466576873,-9
1710844283198,599616029474256469,-7
1710844283206,599616029481936065,-2
1710844283214,599616029489615661,-12
1710844283221,599616029497295257,4
1710844283229,599616029504974853,29
1710844283237,599616029512654449,76
1710844283244,599616029520334045,206
1710844283252,599616029528013641,426
1710844283260,599616029535693237,657
1710844283267,599616029543372833,662
1710844283275,599616029551052429,186
1710844283283,599616029558752106,-382
1710844283289,599616029566431424,-360
1710844283297,599616029574110742,-51
1710844283305,599616029581790060,-29
1710844283313,599616029589469378,-49
1710844283321,599616029597148696,63
1710844283329,599616029604828014,61
1710844283336,599616029612507332,9
1710844283344,599616029620186650,39
1710844283352,599616029627865968,36
1710844283360,599616029635545286,17
1710844283367,599616029643224604,53
1710844283375,599616029650903922,71
1710844283383,599616029658583240,46
1710844283390,599616029666262558,26
1710844283398,599616029673941876,22
1710844283406,599616029681621194,44
1710844283413,599616029689300512,83
1710844283421,599616029696979830,103
1710844283429,599616029704659148,98
1710844283436,599616029712338466,78
1710844283444,599616029720017784,71
1710844283452,599616029727697102,73
1710844283459,599616029735376420,61
1710844283467,599616029743055738,41
1710844283475,599616029750735056,29
1710844283481,599616029758414374,22
1710844283489,599616029766093692,14
1710844283497,599616029773773010,12
1710844283505,599616029781452328,-2
1710844283513,599616029789131646,-17
1710844283521,599616029796810964,-22
1710844283528,599616029804490282,-24
1710844283536,599616029812169600,-39
1710844283544,599616029819848918,-61
1710844283552,599616029827528236,-78
1710844283559,599616029835207554,-71
1710844283567,599616029842886872,-56
1710844283575,599616029850566190,-61
1710844283582,599616029858245508,-71
1710844283590,599616029865924826,-66
1710844283598,599616029873604144,-49
1710844283605,599616029881283462,-22
1710844283613,599616029888962780,4
1710844283621,599616029896642098,9
1710844283628,599616029904321416,7
1710844283636,599616029912000734,14
1710844283644,599616029919680052,7
1710844283651,599616029927359370,-7
1710844283659,599616029935038688,0
1710844283667,599616029942718006,7
1710844283673,599616029950397324,-12
1710844283681,599616029958076642,-34
1710844283689,599616029965755960,-39
1710844283697,599616029973435278,-36
1710844283705,599616029981114596,-36
1710844283713,599616029988793914,-44
1710844283720,599616029996473232,-61
1710844283728,599616030004152550,-71
1710844283736,599616030011831868,-66
1710844283744,599616030019511186,-66
1710844283751,599616030027190504,-68
1710844283759,599616030034869822,-58
1710844283767,599616030042549140,-26
1710844283774,599616030050228458,0
1710844283782,599616030057907776,-7
1710844283790,599616030065587094,-39
1710844283797,599616030073266412,-58
1710844283805,599616030080945730,-56
1710844283813,599616030088625048,-51
1710844283820,599616030096304366,-46
1710844283828,599616030103983684,-49
1710844283836,599616030111663002,-58
1710844283843,599616030119332327,-56
1710844283851,599616030127011784,-36
1710844283859,599616030134691241,49
1710844283865,599616030142370698,282
1710844283873,599616030150050155,561
1710844283881,599616030157729612,527
1710844283889,599616030165409069,-7
1710844283897,599616030173088526,-547
1710844283905,599616030180767983,-468
1710844283912,599616030188447440,-147
1710844283920,599616030196126897,-115
1710844283928,599616030203806354,-134
1710844283935,599616030211485811,-78
1710844283943,599616030219165268,-93
1710844283951,599616030226844725,-105
1710844283959,599616030234524182,-58
1710844283966,599616030242203639,-39
1710844283974,599616030249883096,-53
1710844283982,599616030257562553,-58
1710844283989,599616030265242010,-44
1710844283997,599616030272921467,-24
1710844284005,599616030280600924,-12
1710844284012,599616030288280381,-12
1710844284020,599616030295959838,0
1710844284028,599616030303639295,17
1710844284035,599616030311318752,22
1710844284043,599616030318998209,19
1710844284051,599616030326677666,31
1710844284057,599616030334357123,56
1710844284065,599616030342036580,68
1710844284073,599616030349716037,58
1710844284081,599616030357395494,53
1710844284089,599616030365074951,63
1710844284097,599616030372754408,73
1710844284104,599616030380433865,61
1710844284112,599616030388113322,44
1710844284120,599616030395792779,29
1710844284127,599616030403472236,7
1710844284135,599616030411151693,-2
1710844284143,599616030418831150,-9
1710844284151,599616030426510607,-31
1710844284158,599616030434190064,-49
1710844284166,599616030441869521,-44
1710844284174,599616030449548978,-39
1710844284181,599616030457228435,-41
1710844284189,599616030464907892,-39
1710844284197,599616030472587349,-31
1710844284204,599616030480266806,-31
1710844284212,599616030487946263,-31
1710844284220,599616030495625720,-26
1710844284227,599616030503305177,-19
1710844284235,599616030510984634,-9
1710844284243,599616030518664091,-12
1710844284249,599616030526343548,-36
1710844284257,599616030534023005,-58
1710844284265,599616030541702462,-58
1710844284273,599616030549381919,-53
1710844284281,599616030557061376,-63
1710844284289,599616030564740833,-71
1710844284296,599616030572420290,-58
1710844284304,599616030580099747,-51
1710844284312,599616030587779204,-63
1710844284319,599616030595458661,-71
1710844284327,599616030603138118,-66
1710844284335,599616030610817575,-61
1710844284342,599616030618497032,-53
1710844284350,599616030626176489,-61
1710844284358,599616030633855946,-90
1710844284366,599616030641535403,-88
1710844284373,599616030649214860,-29
1710844284381,599616030656894317,17
1710844284389,599616030664573774,29
1710844284396,599616030672253231,44
1710844284404,599616030679932728,46
1710844284412,599616030687612185,12
1710844284419,599616030695291642,-17
1710844284427,599616030702971099,-12
1710844284435,599616030710650556,-7
1710844284441,599616030718330013,-22
1710844284449,599616030726009470,-41
1710844284457,599616030733688927,-49
1710844284465,599616030741368384,-41
1710844284473,599616030749047841,-31
1710844284481,599616030756727298,36
1710844284488,599616030764406755,245
1710844284496,599616030772086212,537
1710844284504,599616030779765669,586
1710844284511,599616030787445126,100
1710844284519,599616030795124583,-515
1710844284527,599616030802804040,-517
1710844284534,599616030810483497,-176
1710844284542,599616030818162954,-117
1710844284550,599616030825842411,-152
1710844284558,599616030833521868,-73
1710844284565,599616030841201325,-51
1710844284573,599616030848880782,-73
1710844284581,599616030856560239,-58
1710844284588,599616030864239696,-46
1710844284596,599616030871919153,-26
1710844284604,599616030879598610,2
1710844284611,599616030887278067,0
1710844284619,599616030894957524,-4
1710844284627,599616030902636981,17
1710844284633,599616030910316438,34
1710844284641,599616030917995895,44
1710844284649,599616030925675352,61
1710844284657,599616030933354809,63
1710844284665,599616030941034266,53
1710844284673,599616030948713723,61
1710844284680,599616030956393180,83
1710844284688,599616030964072637,80
1710844284696,599616030971752094,66
1710844284703,599616030979431551,66
1710844284711,599616030987111008,76
1710844284719,599616030994790465,58
1710844284726,599616031002469922,34
1710844284734,599616031010149379,31
1710844284742,599616031017828836,26
1710844284749,599616031025508293,7
1710844284757,599616031033187750,-17
1710844284765,599616031040867207,-41
1710844284773,599616031048546664,-63
1710844284780,599616031056226121,-78
1710844284788,599616031063905578,-85
1710844284796,599616031071585035,-95
1710844284803,599616031079264492,-100
1710844284811,599616031086943949,-85
1710844284819,599616031094623406,-80
1710844284825,599616031102302863,-83
1710844284833,599616031109982320,-66
1710844284841,599616031117661777,-49
1710844284849,599616031125341234,-51
1710844284857,599616031133020691,-63
1710844284865,599616031140700148,-53
1710844284872,599616031148379605,-29
1710844284880,599616031156059062,-29
1710844284888,599616031163738519,-41
1710844284895,599616031171417976,-39
1710844284903,599616031179097433,-36
1710844284911,599616031186776890,-44
1710844284918,599616031194456347,-44
1710844284926,599616031202135804,-44
1710844284934,599616031209815261,-66
1710844284941,599616031217494718,-78
1710844284949,599616031225174175,-73
1710844284957,599616031232853632,-76
1710844284965,599616031240533129,-93
1710844284972,599616031248212586,-100
1710844284980,599616031255892043,-93
1710844284988,599616031263571500,-90
1710844284995,599616031271250957,-93
1710844285003,599616031278930414,-95
1710844285011,599616031286609871,-93
1710844285017,599616031294289328,-83
1710844285025,599616031301968785,-68
1710844285033,599616031309648242,-58
1710844285041,599616031317327699,-63
1710844285049,599616031325007156,-78
1710844285057,599616031332686613,-80
1710844285064,599616031340366070,-76
1710844285072,599616031348045527,-66
1710844285080,599616031355724984,-51
1710844285087,599616031363404441,-58
1710844285095,599616031371083898,-71
1710844285103,599616031378763355,-44
1710844285110,599616031386442812,61
1710844285118,599616031394122269,294
1710844285126,599616031401801726,574
1710844285133,599616031409481183,561
1710844285141,599616031417160640,39
1710844285149,599616031424840097,-505
1710844285157,599616031432519554,-446
1710844285164,599616031440199011,-159
1710844285172,599616031447878468,-152
1710844285180,599616031455557925,-157
1710844285187,599616031463237382,-68
1710844285195,599616031470916839,-83
1710844285203,599616031478596296,-122
1710844285209,599616031486275753,-93
1710844285217,599616031493955210,-63
1710844285225,599616031501634667,-68
1710844285233,599616031509314124,-83
1710844285241,599616031516993581,-68
1710844285249,599616031524673038,-29
1710844285256,599616031532352495,-17
1710844285264,599616031540031952,-29
1710844285272,599616031547711409,-26
1710844285279,599616031555390866,-2
1710844285287,599616031563070323,24
1710844285295,599616031570749780,4
1710844285302,599616031578429237,-44
1710844285310,599616031586108694,-58
1710844285318,599616031593788151,-80
1710844285325,599616031601467608,-134
1710844285333,599616031609147065,-179
1710844285341,599616031616826522,-225
1710844285348,599616031624505979,-274
1710844285356,599616031632185436,-311
1710844285364,599616031639864893,-343
1710844285372,599616031647544350,-365
1710844285379,599616031655223807,-348
1710844285387,599616031662903264,-314
1710844285395,599616031670582721,-318
1710844285401,599616031678262178,-377
1710844285409,599616031685941635,-404
1710844285417,599616031693621092,-397
1710844285425,599616031701300549,-395
1710844285433,599616031708980006,-390
1710844285441,599616031716659463,-365
1710844285448,599616031724338920,-336
1710844285456,599616031732018377,-314
1710844285464,599616031739697834,-296
1710844285471,599616031747377291,-279
1710844285479,599616031755056748,-257
1710844285487,599616031762736205,-242
1710844285494,599616031770415662,-242
1710844285502,599616031778095119,-223
1710844285510,599616031785774576,-188
1710844285517,599616031793454033,-191
1710844285525,599616031801128490,-215
1710844285533,599616031808808017,-220
1710844285540,599616031816487544,-203
1710844285548,599616031824167071,-201
1710844285556,599616031831846598,-220
1710844285564,599616031839526125,-238
1710844285571,599616031847205652,-235
1710844285579,599616031854885179,-223
1710844285587,599616031862564706,-220
1710844285593,599616031870244233,-238
1710844285601,599616031877923760,-269
1710844285609,599616031885603287,-284
1710844285617,599616031893282814,-269
1710844285625,599616031900962341,-245
1710844285633,599616031908641868,-218
1710844285640,599616031916321395,-198
1710844285648,599616031924000922,-176
1710844285656,599616031931680449,-139
1710844285663,599616031939359976,-132
1710844285671,599616031947039503,-164
1710844285679,599616031954719030,-179
1710844285686,599616031962398557,-166
1710844285694,599616031970078084,-152
1710844285702,599616031977757611,-152
1710844285709,599616031985437138,-154
1710844285717,599616031993116665,-127
1710844285725,599616032000796192,-88
1710844285732,599616032008475719,-44
1710844285740,599616032016155246,100
1710844285748,599616032023834773,370
1710844285756,599616032031514300,500
1710844285763,599616032039193827,159
1710844285771,599616032046873354,-473
1710844285779,599616032054552881,-669
1710844285785,599616032062232408,-375
1710844285793,599616032069911935,-238
1710844285801,599616032077591462,-257
1710844285809,599616032085270989,-154
1710844285817,599616032092950516,-105
1710844285825,599616032100630043,-179
1710844285832,599616032108309570,-176
1710844285840,599616032115989097,-134
1710844285848,599616032123668624,-159
1710844285855,599616032131348151,-144
1710844285863,599616032139027678,-88
1710844285871,599616032146707205,-90
1710844285878,599616032154386732,-115
1710844285886,599616032162066259,-152
1710844285894,599616032169745786,-238
1710844285901,599616032177425313,-299
1710844285909,599616032185104840,-264
1710844285917,599616032192784367,-211
1710844285924,599616032200463894,-176
1710844285932,599616032208143421,-134
1710844285940,599616032215822948,-100
1710844285947,599616032223502475,-76
1710844285955,599616032231182002,-61
1710844285963,599616032238861529,-63
1710844285971,599616032246541056,-61
1710844285977,599616032254220583,-61
1710844285985,599616032261900110,-90
1710844285993,599616032269579637,-103
1710844286001,599616032277259164,-85
1710844286009,599616032284938691,-73
1710844286017,599616032292618218,-83
1710844286024,599616032300297745,-107
1710844286032,599616032307977272,-117
1710844286040,599616032315656799,-112
1710844286047,599616032323336326,-107
1710844286055,599616032331015853,-98
1710844286063,599616032338695380,-95
1710844286070,599616032346374907,-90
1710844286078,599616032354054434,-68
1710844286086,599616032361713961,-61
1710844286093,599616032369393766,-56
1710844286101,599616032377073571,-36
1710844286109,599616032384753376,-29
1710844286116,599616032392433181,-34
1710844286124,599616032400112986,-34
1710844286132,599616032407792791,-29
1710844286139,599616032415472596,-34
1710844286147,599616032423152401,-51
1710844286155,599616032430832206,-58
1710844286163,599616032438512011,-53
1710844286169,599616032446191816,-49
1710844286177,599616032453871621,-39
1710844286185,599616032461551426,-44
1710844286193,599616032469231231,-61
1710844286201,599616032476911036,-66
1710844286209,599616032484590841,-51
1710844286216,599616032492270646,-53
1710844286224,599616032499950451,-66
1710844286232,599616032507630256,-66
1710844286239,599616032515310061,-51
1710844286247,599616032522989866,-44
1710844286255,599616032530669671,-26
1710844286262,599616032538349476,9
1710844286270,599616032546029281,24
1710844286278,599616032553709086,34
1710844286285,599616032561388891,61
1710844286293,599616032569068696,46
1710844286301,599616032576748501,14
1710844286308,599616032584428306,14
1710844286316,599616032592108111,14
1710844286324,599616032599787916,4
1710844286331,599616032607467721,22
1710844286339,599616032615147526,46
1710844286347,599616032622827331,29
1710844286353,599616032630507136,7
1710844286361,599616032638186941,68
1710844286369,599616032645866746,257
1710844286377,599616032653546551,537
1710844286385,599616032661226356,694
1710844286393,599616032668906161,402
1710844286401,599616032676585966,-228
1710844286408,599616032684265771,-483
1710844286416,599616032691945576,-191
1710844286424,599616032699625381,-22
1710844286431,599616032707305186,-80
1710844286439,599616032714984991,-31
1710844286447,599616032722664796,31
1710844286454,599616032730344601,7
1710844286462,599616032738024406,14
1710844286470,599616032745704211,46
1710844286477,599616032753384016,51
1710844286485,599616032761063821,66
1710844286493,599616032768743626,80
1710844286500,599616032776423431,85
1710844286508,599616032784103236,98
1710844286516,599616032791783041,110
1710844286523,599616032799462846,107
1710844286531,599616032807142651,93
1710844286539,599616032814822456,107
1710844286545,599616032822502261,159
1710844286553,599616032830182066,198
1710844286561,599616032837861871,203
1710844286569,599616032845541676,201
1710844286577,599616032853221481,201
1710844286585,599616032860901286,191
1710844286593,599616032868581091,176
1710844286600,599616032876260896,157
1710844286608,599616032883940701,134
1710844286616,599616032891620506,127
1710844286623,599616032899300311,120
1710844286631,599616032906980116,95
1710844286639,599616032914659921,66
1710844286646,599616032922364850,41
1710844286654,599616032930044307,29
1710844286662,599616032937723764,19
1710844286669,599616032945403221,7
1710844286677,599616032953082678,22
1710844286685,599616032960762135,44
1710844286692,599616032968441592,34
1710844286700,599616032976121049,12
1710844286708,599616032983800506,19
1710844286715,599616032991479963,19
1710844286723,599616032999159420,4
1710844286731,599616033006838877,9
1710844286739,599616033014518334,24
1710844286745,599616033022197791,26
1710844286753,599616033029877248,14
1710844286761,599616033037556705,2
1710844286769,599616033045236162,-2
1710844286777,599616033052915619,-9
1710844286785,599616033060595076,-14
1710844286792,599616033068274533,-19
1710844286800,599616033075953990,-31
1710844286808,599616033083633447,-34
1710844286815,599616033091312904,-36
1710844286823,599616033098992361,-41
1710844286831,599616033106671818,-31
1710844286838,599616033114351275,-26
1710844286846,599616033122030732,-31
1710844286854,599616033129710189,-26
1710844286861,599616033137389646,-44
1710844286869,599616033145069103,-73
1710844286877,599616033152748560,-56
1710844286884,599616033160428017,-31
1710844286892,599616033168107474,-39
1710844286900,599616033175786931,-31
1710844286907,599616033183466388,4
1710844286915,599616033191145845,19
1710844286923,599616033198825302,12
1710844286929,599616033206504759,-2
1710844286937,599616033214184216,-26
1710844286945,599616033221863673,-31
1710844286953,599616033229543130,-14
1710844286961,599616033237222587,-2
1710844286969,599616033244902044,-2
1710844286977,599616033252581501,-12
1710844286984,599616033260260958,-14
1710844286992,599616033267940415,-14
1710844287000,599616033275619872,51
1710844287007,599616033283299329,269
1710844287015,599616033290978786,549
1710844287023,599616033298658243,588
1710844287030,599616033306337700,161
1710844287038,599616033314017157,-390
1710844287046,599616033321696614,-419
1710844287053,599616033329376071,-132
1710844287061,599616033337055528,-78
1710844287069,599616033344734985,-100
1710844287076,599616033352414442,-24
1710844287084,599616033360093899,-17
1710844287092,599616033367773356,-46
1710844287099,599616033375452813,-7
1710844287107,599616033383132270,31
1710844287115,599616033390811727,14
1710844287121,599616033398491184,0
1710844287129,599616033406170641,2
1710844287137,599616033413850098,2
1710844287145,599616033421529555,4
1710844287153,599616033429209012,24
1710844287161,599616033436888469,29
1710844287169,599616033444567926,12
1710844287176,599616033452247383,17
1710844287184,599616033459926840,34
1710844287192,599616033467606297,34
1710844287199,599616033475285754,29
1710844287207,599616033482975259,31
1710844287215,599616033490654577,31
1710844287222,599616033498333895,51
1710844287230,599616033506013213,51
1710844287238,599616033513692531,22
1710844287245,599616033521371849,22
1710844287253,599616033529051167,31
1710844287261,599616033536730485,-2
1710844287268,599616033544409803,-44
1710844287276,599616033552089121,-58
1710844287284,599616033559768439,-63
1710844287291,599616033567447757,-83
1710844287299,599616033575127075,-112
1710844287307,599616033582806393,-122
1710844287313,599616033590485711,-115
1710844287321,599616033598165029,-120
1710844287329,599616033605844347,-125
1710844287337,599616033613523665,-115
1710844287345,599616033621202983,-112
1710844287353,599616033628882301,-110
1710844287361,599616033636561619,-100
1710844287368,599616033644240937,-93
1710844287376,599616033651920255,-95
1710844287384,599616033659599573,-88
1710844287391,599616033667278891,-76
1710844287399,599616033674958209,-68
1710844287407,599616033682637527,-68
1710844287414,599616033690316845,-68
1710844287422,599616033697996163,-63
1710844287430,599616033705675481,-61
1710844287437,599616033713354799,-61
1710844287445,599616033721034117,-61
1710844287453,599616033728713435,-68
1710844287460,599616033736392753,-61
1710844287468,599616033744072071,-51
1710844287476,599616033751751389,-63
1710844287483,599616033759430707,-78
1710844287491,599616033767110025,-88
1710844287499,599616033774789343,-93
1710844287505,599616033782468661,-85
1710844287513,599616033790147979,-83
1710844287521,599616033797827297,-95
1710844287529,599616033805506615,-85
1710844287537,599616033813185933,-58
1710844287545,599616033820865251,-41
1710844287553,599616033828544569,-49
1710844287560,599616033836223887,-61
1710844287568,599616033843903205,-61
1710844287576,599616033851582523,-63
1710844287583,599616033859261841,-71
1710844287591,599616033866941159,-61
1710844287599,599616033874620477,-51
1710844287606,599616033882299795,-53
1710844287614,599616033889979113,-63
1710844287622,599616033897658431,-73
1710844287629,599616033905337749,-73
1710844287637,599616033913017067,-26
1710844287645,599616033920696385,137
1710844287652,599616033928375703,417
1710844287660,599616033936055021,598
1710844287668,599616033943734339,348
1710844287675,599616033951413657,-269
1710844287683,599616033959092975,-571
1710844287691,599616033966772293,-316
1710844287697,599616033974451611,-132
1710844287705,599616033982130929,-161
1710844287713,599616033989810247,-110
1710844287721,599616033997489565,-58
1710844287729,599616034005168883,-90
1710844287737,599616034012848201,-90
1710844287745,599616034020527519,-51
1710844287752,599616034028206837,-31
1710844287760,599616034035886155,-31
1710844287768,599616034043550438,-39
1710844287775,599616034051229965,-36
1710844287783,599616034058909492,-17
1710844287791,599616034066589019,0
1710844287798,599616034074268546,7
1710844287806,599616034081948073,14
1710844287814,599616034089627600,31
1710844287821,599616034097307127,39
1710844287829,599616034104986654,26
1710844287837,599616034112666181,24
1710844287844,599616034120345708,46
1710844287852,599616034128025235,53
1710844287860,599616034135704762,49
1710844287867,599616034143384289,46
1710844287875,599616034151063816,41
1710844287883,599616034158743343,19
1710844287889,599616034166422870,-2
1710844287897,599616034174102397,-14
1710844287905,599616034181781924,-19
1710844287913,599616034189461451,-26
1710844287921,599616034197140978,-36
1710844287929,599616034204820505,-51
1710844287936,599616034212500032,-58
1710844287944,599616034220179559,-68
1710844287952,599616034227859086,-80
1710844287960,599616034235538613,-90
1710844287967,599616034243218140,-85
1710844287975,599616034250897667,-68
1710844287983,599616034258577194,-58
1710844287990,599616034266256721,-58
1710844287998,599616034273936248,-63
1710844288006,599616034281615775,-71
1710844288013,599616034289295302,-76
1710844288021,599616034296974829,-66
1710844288029,599616034304654356,-73
1710844288036,599616034312333883,-98
1710844288044,599616034320013410,-100
1710844288052,599616034327692937,-90
1710844288059,599616034335372464,-95
1710844288067,599616034343051991,-103
1710844288075,599616034350731518,-98
1710844288081,599616034358411045,-98
1710844288089,599616034366090572,-105
1710844288097,599616034373770099,-107
1710844288105,599616034381449626,-107
1710844288113,599616034389129153,-110
1710844288121,599616034396808680,-105
1710844288128,599616034404488207,-107
1710844288136,599616034412167734,-120
1710844288144,599616034419847261,-115
1710844288152,599616034427526788,-98
1710844288159,599616034435206315,-93
1710844288167,599616034442885842,-90
1710844288175,599616034450565369,-68
1710844288182,599616034458244896,-44
1710844288190,599616034465924423,-26
1710844288198,599616034473603950,-29
1710844288205,599616034481283477,-46
1710844288213,599616034488963004,-78
1710844288221,599616034496642531,-93
1710844288228,599616034504322058,-76
1710844288236,599616034512001585,-63
1710844288244,599616034519681112,-76
1710844288251,599616034527360639,-88
1710844288259,599616034535040166,-80
1710844288267,599616034542719693,-46
1710844288273,599616034550399220,56
1710844288281,599616034558078747,299
1710844288289,599616034565758274,569
1710844288297,599616034573437801,510
1710844288305,599616034581117328,-51
1710844288313,599616034588796855,-571
1710844288320,599616034596476382,-441
1710844288328,599616034604125829,-115
1710844288336,599616034611805774,-105
1710844288343,599616034619485719,-125
1710844288351,599616034627165664,-49
1710844288359,599616034634845609,-39
1710844288367,599616034642525554,-61
1710844288374,599616034650205499,-51
1710844288382,599616034657885444,-46
1710844288390,599616034665565389,-51
1710844288397,599616034673245334,-58
1710844288405,599616034680925279,-63
1710844288413,599616034688605224,-49
1710844288420,599616034696285169,-44
1710844288428,599616034703965114,-68
1710844288436,599616034711645059,-73
1710844288443,599616034719325004,-44
1710844288451,599616034727004949,-22
1710844288459,599616034734684894,-19
1710844288465,599616034742364839,0
1710844288473,599616034750044784,24
1710844288481,599616034757724729,26
1710844288489,599616034765404674,29
1710844288497,599616034773084619,39
1710844288505,599616034780764564,36
1710844288512,599616034788444509,26
1710844288520,599616034796124454,24
1710844288528,599616034803804399,14
1710844288535,599616034811484344,-2
1710844288543,599616034819164289,-14
1710844288551,599616034826844234,-22
1710844288559,599616034834524179,-39
1710844288566,599616034842204124,-63
1710844288574,599616034849884069,-76
1710844288582,599616034857564014,-73
1710844288589,599616034865243959,-71
1710844288597,599616034872923904,-68
1710844288605,599616034880603849,-63
1710844288612,599616034888283794,-51
1710844288620,599616034895963739,-29
1710844288628,599616034903643684,-14
1710844288635,599616034911323629,-14
1710844288643,599616034919003574,-24
1710844288651,599616034926683519,-26
1710844288657,599616034934363464,-17
1710844288665,599616034942043409,-9
1710844288673,599616034949723354,-9
1710844288681,599616034957403299,-12
1710844288689,599616034965083244,-7
1710844288697,599616034972763189,-2
1710844288704,599616034980443134,-9
1710844288712,599616034988123079,-29
1710844288720,599616034995803024,-34
1710844288727,599616035003482969,-29
1710844288735,599616035011162914,-31
1710844288743,599616035018842859,-44
1710844288751,599616035026522804,-51
1710844288758,599616035034202749,-56
1710844288766,599616035041882694,-51
1710844288774,599616035049562639,-44
1710844288781,599616035057242584,-49
1710844288789,599616035064922529,-53
1710844288797,599616035072602474,-39
1710844288804,599616035080282419,-22
1710844288812,599616035087962364,-7
1710844288820,599616035095642309,9
1710844288827,599616035103322254,4
1710844288835,599616035111002199,-9
1710844288843,599616035118682144,-12
1710844288849,599616035126362089,-7
1710844288857,599616035134042034,-7
1710844288865,599616035141721979,0
1710844288873,599616035149401924,9
1710844288881,599616035157081869,14
1710844288889,599616035164791930,17
1710844288896,599616035172471457,53
1710844288904,599616035180150984,206
1710844288912,599616035187830511,507
1710844288920,599616035195510038,723
1710844288927,599616035203189565,488
1710844288935,599616035210869092,-166
1710844288943,599616035218548619,-544
1710844288950,599616035226228146,-291
1710844288958,599616035233907673,-49
1710844288966,599616035241587200,-83
1710844288973,599616035249266727,-44
1710844288981,599616035256946254,31
1710844288989,599616035264625781,9
1710844288996,599616035272305308,4
1710844289004,599616035279984835,36
1710844289012,599616035287664362,49
1710844289019,599616035295343889,61
1710844289027,599616035303023416,88
1710844289035,599616035310702943,105
1710844289041,599616035318382470,112
1710844289049,599616035326061997,122
1710844289057,599616035333741524,122
1710844289065,599616035341421051,120
1710844289073,599616035349100578,125
1710844289081,599616035356780105,142
1710844289088,599616035364459632,154
1710844289096,599616035372139159,152
1710844289104,599616035379818686,144
1710844289111,599616035387498213,144
1710844289119,599616035395177740,144
1710844289127,599616035402857267,144
1710844289135,599616035410536794,144
1710844289142,599616035418216321,122
1710844289150,599616035425895848,90
1710844289158,599616035433575375,85
1710844289165,599616035441254902,76
1710844289173,599616035448934429,44
1710844289181,599616035456613956,34
1710844289188,599616035464293483,41
1710844289196,599616035471973010,34
1710844289204,599616035479652537,24
1710844289211,599616035487332064,19
1710844289219,599616035495011591,17
1710844289227,599616035502691118,29
1710844289233,599616035510370645,44
1710844289241,599616035518050172,44
1710844289249,599616035525729699,46
1710844289257,599616035533409226,61
1710844289265,599616035541088753,73
1710844289273,599616035548768280,73
1710844289280,599616035556447807,66
1710844289288,599616035564127334,58
1710844289296,599616035571806861,63
1710844289303,599616035579486388,63
1710844289311,599616035587165915,49
1710844289319,599616035594845442,34
1710844289327,599616035602524969,19
1710844289334,599616035610204496,14
1710844289342,599616035617884023,22
1710844289350,599616035625563550,14
1710844289357,599616035633243077,4
1710844289365,599616035640922604,14
1710844289373,599616035648602131,26
1710844289380,599616035656281658,12
1710844289388,599616035663961185,-9
1710844289396,599616035671640712,-14
1710844289403,599616035679320239,2
1710844289411,599616035686999766,12
1710844289419,599616035694679293,4
1710844289425,599616035702358820,0
1710844289433,599616035710038347,9
1710844289441,599616035717717874,17
1710844289449,599616035725397419,29
1710844289457,599616035733076946,44
1710844289465,599616035740756473,44
1710844289472,599616035748436000,31
1710844289480,599616035756115527,0
1710844289488,599616035763795054,-31
1710844289495,599616035771474581,-29
1710844289503,599616035779154108,-19
1710844289511,599616035786833635,-22
1710844289519,599616035794513162,-22
1710844289526,599616035802192689,-31
1710844289534,599616035809872216,-39
1710844289542,599616035817551743,-4
1710844289549,599616035825231270,132
1710844289557,599616035832910797,404
1710844289565,599616035840590324,630
1710844289572,599616035848269851,468
1710844289580,599616035855949378,-122
1710844289588,599616035863628905,-520
1710844289595,599616035871308432,-318
1710844289603,599616035878987959,-80
1710844289611,599616035886667486,-103
1710844289617,599616035894347013,-71
1710844289625,599616035902026540,2
1710844289633,599616035909706067,-7
1710844289641,599616035917385594,-2
1710844289649,599616035925065121,49
1710844289657,599616035932744648,63
1710844289664,599616035940424175,49
1710844289672,599616035948103702,49
1710844289680,599616035955783229,63
1710844289687,599616035963462756,78
1710844289695,599616035971142283,83
1710844289703,599616035978821810,80
1710844289710,599616035986501337,93
1710844289718,599616035994180864,115
1710844289726,599616036001860391,122
1710844289734,599616036009539918,122
1710844289741,599616036017219445,132
1710844289749,599616036024898972,144
1710844289757,599616036032578499,154
1710844289764,599616036040258026,157
1710844289772,599616036047937553,144
1710844289780,599616036055617080,127
1710844289787,599616036063296607,122
1710844289795,599616036070976134,115
1710844289803,599616036078655661,110
1710844289809,599616036086335188,112
1710844289817,599616036094014715,103
1710844289825,599616036101694242,80
1710844289833,599616036109373769,51
1710844289841,599616036117053296,29
1710844289849,599616036124732823,19
1710844289856,599616036132412350,14
1710844289864,599616036140091877,14
1710844289872,599616036147771404,17
1710844289879,599616036155450931,29
1710844289887,599616036163130458,39
1710844289895,599616036170809985,44
1710844289902,599616036178489512,49
1710844289910,599616036186169039,49
1710844289918,599616036193848566,41
1710844289926,599616036201528093,46
1710844289933,599616036209207620,58
1710844289941,599616036216887147,51
1710844289949,599616036224566674,39
1710844289956,599616036232246201,39
1710844289964,599616036239925728,41
1710844289972,599616036247605255,34
1710844289979,599616036255284782,22
1710844289987,599616036262964309,29
1710844289995,599616036270643836,41
1710844290001,599616036278323363,34
1710844290009,599616036286017954,22
1710844290017,599616036293697272,14
1710844290025,599616036301376590,14
1710844290033,599616036309055908,19
1710844290041,599616036316735226,14
1710844290048,599616036324414544,7
1710844290056,599616036332093862,17
1710844290064,599616036339773180,24
1710844290071,599616036347452498,29
1710844290079,599616036355131816,31
1710844290087,599616036362811134,34
1710844290094,599616036370490452,58
1710844290102,599616036378169770,80
1710844290110,599616036385849088,73
1710844290118,599616036393528406,78
1710844290125,599616036401207724,112
1710844290133,599616036408887042,115
1710844290141,599616036416566360,78
1710844290148,599616036424245678,68
1710844290156,599616036431924996,93
1710844290164,599616036439604314,95
1710844290171,599616036447283632,88
1710844290179,599616036454962950,98
1710844290187,599616036462642268,110
1710844290193,599616036470321586,107
1710844290201,599616036478000904,130
1710844290209,599616036485680222,269
1710844290217,599616036493359540,547
1710844290225,599616036501038858,755
1710844290233,599616036508718176,556
1710844290240,599616036516397494,-56
1710844290248,599616036524076812,-429
1710844290256,599616036531756130,-191
1710844290263,599616036539435448,49
1710844290271,599616036547114766,29
1710844290279,599616036554794084,58
1710844290286,599616036562473402,110
1710844290294,599616036570152720,88
1710844290302,599616036577832038,88
1710844290310,599616036585511356,110
1710844290317,599616036593190674,110
1710844290325,599616036600869992,110
1710844290333,599616036608549310,117
1710844290340,599616036616228628,120
1710844290348,599616036623907946,117
1710844290356,599616036631587264,120
1710844290363,599616036639266582,132
1710844290371,599616036646945900,157
1710844290379,599616036654625218,169
1710844290385,599616036662304536,159
1710844290393,599616036669983854,169
1710844290401,599616036677663172,193
1710844290409,599616036685342490,188
1710844290417,599616036693021808,184
1710844290425,599616036700701126,198
1710844290432,599616036708380444,201
1710844290440,599616036716059762,186
1710844290448,599616036723739080,169
1710844290455,599616036731418398,154
1710844290463,599616036739097716,147
1710844290471,599616036746777034,139
1710844290478,599616036754456352,112
1710844290486,599616036762135670,76
1710844290494,599616036769814988,63
1710844290501,599616036777494306,66
1710844290509,599616036785173624,46
1710844290517,599616036792852942,22
1710844290525,599616036800532260,24
1710844290532,599616036808211578,29
1710844290540,599616036815890896,19
1710844290548,599616036823570214,12
1710844290555,599616036831249532,14
1710844290563,599616036838928850,19
1710844290571,599616036846598175,26
1710844290577,599616036854277632,26
1710844290585,599616036861957089,22
1710844290593,599616036869636546,22
1710844290601,599616036877316003,31
1710844290609,599616036884995460,56
1710844290617,599616036892674917,80
1710844290624,599616036900354374,83
1710844290632,599616036908033831,90
1710844290640,599616036915713288,100
1710844290647,599616036923392745,100
1710844290655,599616036931072202,95
1710844290663,599616036938751659,103
1710844290670,599616036946431116,103
1710844290678,599616036954110573,93
1710844290686,599616036961790030,88
1710844290693,599616036969469487,103
1710844290701,599616036977148944,117
1710844290709,599616036984828401,112
1710844290716,599616036992507858,98
1710844290724,599616037000187315,93
1710844290732,599616037007866772,103
1710844290740,599616037015546229,93
1710844290747,599616037023225686,73
1710844290755,599616037030905143,78
1710844290763,599616037038584600,85
1710844290769,599616037046264057,95
1710844290777,599616037053943514,110
1710844290785,599616037061622971,122
1710844290793,599616037069302428,130
1710844290801,599616037076981885,125
1710844290809,599616037084661342,98
1710844290816,599616037092340799,78
1710844290824,599616037100020256,73
1710844290832,599616037107699713,76
1710844290839,599616037115379170,83
1710844290847,599616037123058627,85
1710844290855,599616037130738084,73
1710844290862,599616037138417541,68
1710844290870,599616037146096998,110
1710844290878,599616037153776455,250
1710844290885,599616037161455912,498
1710844290893,599616037169135369,709
1710844290901,599616037176814826,571
1710844290908,599616037184494283,0
1710844290916,599616037192173740,-419
1710844290924,599616037199853197,-223
1710844290932,599616037207532654,41
1710844290939,599616037215212111,7
1710844290947,599616037222891568,26
1710844290955,599616037230571025,115
1710844290961,599616037238250482,88
1710844290969,599616037245929939,71
1710844290977,599616037253609396,117
1710844290985,599616037261288853,117
1710844290993,599616037268968310,98
1710844291001,599616037276647767,107
1710844291008,599616037284327224,122
1710844291016,599616037292006681,130
1710844291024,599616037299686138,147
1710844291031,599616037307365595,152
1710844291039,599616037315045052,144
1710844291047,599616037322724509,161
1710844291054,599616037330403966,191
1710844291062,599616037338083423,193
1710844291070,599616037345762880,179
1710844291077,599616037353442337,184
1710844291085,599616037361121794,203
1710844291093,599616037368801251,213
1710844291100,599616037376480708,201
1710844291108,599616037384160165,184
1710844291116,599616037391839622,176
1710844291124,599616037399519079,164
1710844291131,599616037407203616,142
1710844291139,599616037414883003,125
1710844291147,599616037422562390,115
1710844291153,599616037430241777,100
1710844291161,599616037437921164,85
1710844291169,599616037445600551,76
1710844291177,599616037453279938,49
1710844291185,599616037460959325,19
1710844291193,599616037468638712,9
1710844291200,599616037476318099,19
1710844291208,599616037483997486,31
1710844291216,599616037491676873,24
1710844291223,599616037499356260,26
1710844291231,599616037507035647,44
1710844291239,599616037514715034,56
1710844291246,599616037522394421,61
1710844291254,599616037530073808,68
1710844291262,599616037537753195,66
1710844291269,599616037545432582,63
1710844291277,599616037553111969,58
1710844291285,599616037560791356,56
1710844291292,599616037568470743,53
1710844291300,599616037576150130,53
1710844291308,599616037583829517,58
1710844291316,599616037591508904,56
1710844291323,599616037599188291,39
1710844291331,599616037606867678,29
1710844291339,599616037614547065,39
1710844291345,599616037622226452,51
1710844291353,599616037629905839,53
1710844291361,599616037637585226,44
1710844291369,599616037645264613,41
1710844291377,599616037652944000,51
1710844291385,599616037660623387,66
1710844291392,599616037668302774,66
1710844291400,599616037675982161,51
1710844291408,599616037683661548,51
1710844291415,599616037691340935,63
1710844291423,599616037699020322,68
1710844291431,599616037706699709,76
1710844291438,599616037714379096,100
1710844291446,599616037722058483,125
1710844291454,599616037729737870,137
1710844291461,599616037737417257,125
1710844291469,599616037745096644,85
1710844291477,599616037752776031,68
1710844291484,599616037760455418,88
1710844291492,599616037768134805,88
1710844291500,599616037775814192,73
1710844291507,599616037783493579,71
1710844291515,599616037791172966,71
1710844291523,599616037798852353,83
1710844291531,599616037806531740,127
1710844291537,599616037814211127,260
1710844291545,599616037821890514,515
1710844291553,599616037829569901,699
1710844291561,599616037837249288,463
1710844291569,599616037844928675,-161
1710844291577,599616037852608062,-490
1710844291584,599616037860287449,-208
1710844291592,599616037867966836,34
1710844291600,599616037875646223,4
1710844291607,599616037883325610,36
1710844291615,599616037891004997,85
1710844291623,599616037898684384,53
1710844291630,599616037906363771,49
1710844291638,599616037914043158,58
1710844291646,599616037921722545,49
1710844291653,599616037929401932,49
1710844291661,599616037937081319,56
1710844291669,599616037944760706,63
1710844291676,599616037952440093,71
1710844291684,599616037960119480,73
1710844291692,599616037967788849,78
1710844291699,599616037975468376,85
1710844291707,599616037983147903,98
1710844291715,599616037990827430,117
1710844291721,599616037998506957,127
1710844291729,599616038006186484,130
1710844291737,599616038013866011,147
1710844291745,599616038021545538,159
1710844291753,599616038029225065,152
1710844291761,599616038036904592,139
1710844291769,599616038044584119,127
1710844291776,599616038052263646,115
1710844291784,599616038059943173,105
1710844291792,599616038067622700,83
1710844291799,599616038075302227,56
1710844291807,599616038082981754,46
1710844291815,599616038090661281,31
1710844291822,599616038098340808,2
1710844291830,599616038106020335,-4
1710844291838,599616038113699862,7
1710844291845,599616038121379389,12
1710844291853,599616038129058916,-2
1710844291861,599616038136738443,-17
1710844291868,599616038144417970,7
1710844291876,599616038152097497,41
1710844291884,599616038159777024,49
1710844291891,599616038167456551,36
1710844291899,599616038175136078,26
1710844291907,599616038182815605,34
1710844291913,599616038190495132,44
1710844291921,599616038198174659,44
1710844291929,599616038205854186,46
1710844291937,599616038213533713,44
1710844291945,599616038221213240,41
1710844291953,599616038228892767,58
1710844291961,599616038236572294,71
1710844291968,599616038244251821,63
1710844291976,599616038251931348,61
1710844291984,599616038259610875,73
1710844291991,599616038267290402,73
1710844291999,599616038274969929,51
1710844292007,599616038282649456,44
1710844292014,599616038290328983,58
1710844292022,599616038298008510,61
1710844292030,599616038305688037,49
1710844292037,599616038313367564,58
1710844292045,599616038321047091,68
1710844292053,599616038328726618,61
1710844292060,599616038336406145,49
1710844292068,599616038344085672,26
1710844292076,599616038351765199,14
1710844292083,599616038359444726,26
1710844292091,599616038367124253,34
1710844292099,599616038374803780,36
1710844292105,599616038382483307,46
1710844292113,599616038390162834,68
1710844292121,599616038397842361,90
1710844292129,599616038405521888,83
1710844292137,599616038413201415,39
1710844292145,599616038420880942,14
1710844292153,599616038428560469,31
1710844292160,599616038436239996,46
1710844292168,599616038443919523,41
1710844292176,599616038451599050,31
1710844292183,599616038459278577,34
1710844292191,599616038466958104,49
1710844292199,599616038474637631,71
1710844292206,599616038482317158,181
1710844292214,599616038489996685,434
1710844292222,599616038497676212,669
1710844292229,599616038505355739,569
1710844292237,599616038513035266,24
1710844292245,599616038520714793,-429
1710844292252,599616038528394336,-279
1710844292260,599616038536073863,14
1710844292268,599616038543753390,31
1710844292275,599616038551432917,39
1710844292283,599616038559112444,103
1710844292291,599616038566791971,95
1710844292297,599616038574471498,80
1710844292305,599616038582151025,110
1710844292313,599616038589830552,125
1710844292321,599616038597510079,115
1710844292329,599616038605189606,115
1710844292337,599616038612869133,134
1710844292345,599616038620548660,147
1710844292352,599616038628228187,137
1710844292360,599616038635907714,130
1710844292368,599616038643587241,154
1710844292375,599616038651266768,174
1710844292383,599616038658946295,176
1710844292391,599616038666625822,191
1710844292398,599616038674305349,208
1710844292406,599616038681984876,208
1710844292414,599616038689664403,198
1710844292421,599616038697343930,201
1710844292429,599616038705023457,215
1710844292437,599616038712702984,208
1710844292444,599616038720382511,186
1710844292452,599616038728062038,171
1710844292460,599616038735741565,154
1710844292467,599616038743421092,137
1710844292475,599616038751100619,125
1710844292483,599616038758780146,95
1710844292489,599616038766459673,61
1710844292497,599616038774139200,46
1710844292505,599616038781818727,39
1710844292513,599616038789498254,22
1710844292521,599616038797177781,7
1710844292529,599616038804857308,4
1710844292537,599616038812536835,9
1710844292544,599616038820216362,17
1710844292552,599616038827895889,24
1710844292560,599616038835575416,24
1710844292567,599616038843254943,7
1710844292575,599616038850934470,2
1710844292583,599616038858613997,14
1710844292590,599616038866293524,17
1710844292598,599616038873973051,7
1710844292606,599616038881652578,12
1710844292613,599616038889332105,26
1710844292621,599616038897011632,34
1710844292629,599616038904691159,34
1710844292636,599616038912370686,34
1710844292644,599616038920050213,46
1710844292652,599616038927729740,63
1710844292659,599616038935409267,61
1710844292667,599616038943088794,51
1710844292675,599616038950768321,63
1710844292681,599616038958447848,80
1710844292689,599616038966127375,71
1710844292697,599616038973806902,66
1710844292705,599616038981486429,68
1710844292713,599616038989165956,56
1710844292721,599616038996845483,61
1710844292729,599616039004525010,85
1710844292736,599616039012204537,80
1710844292744,599616039019884064,56
1710844292752,599616039027563591,63
1710844292759,599616039035243118,80
1710844292767,599616039042922645,76
1710844292775,599616039050602172,78
1710844292782,599616039058281699,100
1710844292790,599616039065961226,115
1710844292798,599616039073640753,122
1710844292805,599616039081320280,103
1710844292813,599616039089009905,78
1710844292821,599616039096689292,93
1710844292828,599616039104368679,107
1710844292836,599616039112048066,93
1710844292844,599616039119727453,93
1710844292851,599616039127406840,112
1710844292859,599616039135086227,115
1710844292867,599616039142765614,132
1710844292873,599616039150445001,213
1710844292881,599616039158124388,407
1710844292889,599616039165803775,664
1710844292897,599616039173483162,691
1710844292905,599616039181162549,238
1710844292913,599616039188841936,-328
1710844292921,599616039196521323,-341
1710844292928,599616039204200710,-12
1710844292936,599616039211880097,53
1710844292944,599616039219559484,19
1710844292951,599616039227238871,98
1710844292959,599616039234918258,115
1710844292967,599616039242597645,83
1710844292974,599616039250277032,103
1710844292982,599616039257956419,112
1710844292990,599616039265635806,107
1710844292997,599616039273315193,125
1710844293005,599616039280994580,137
1710844293013,599616039288673967,127
1710844293020,599616039296353354,125
1710844293028,599616039304032741,144
1710844293036,599616039311712128,157
1710844293043,599616039319391515,137
1710844293051,599616039327070902,132
1710844293059,599616039334750289,169
1710844293065,599616039342429676,196
1710844293073,599616039350109063,186
1710844293081,599616039357788450,181
1710844293089,599616039365467837,191
1710844293097,599616039373147224,188
1710844293105,599616039380826611,176
1710844293112,599616039388505998,157
1710844293120,599616039396185385,144
1710844293128,599616039403864772,132
1710844293136,599616039411544159,112
1710844293143,599616039419223546,90
1710844293151,599616039426902933,71
1710844293159,599616039434582320,46
1710844293166,599616039442261707,31
1710844293174,599616039449941094,26
1710844293182,599616039457620481,9
1710844293189,599616039465299868,-9
1710844293197,599616039472979255,-7
1710844293205,599616039480658642,-4
1710844293212,599616039488338029,-17
1710844293220,599616039496017416,-26
1710844293228,599616039503696803,-29
1710844293235,599616039511376190,-29
1710844293243,599616039519055577,-29
1710844293251,599616039526734964,-29
1710844293257,599616039534414351,-34
1710844293265,599616039542093738,-31
1710844293273,599616039549773125,-22
1710844293281,599616039557452512,-24
1710844293289,599616039565131899,-36
1710844293297,599616039572811286,-39
1710844293304,599616039580490673,-36
1710844293312,599616039588170060,-49
1710844293320,599616039595849447,-73
1710844293328,599616039603528834,-95
1710844293335,599616039611208221,-122
1710844293343,599616039618887608,-139
1710844293351,599616039626566995,-149
1710844293358,599616039634246382,-169
1710844293366,599616039641925769,-186
1710844293374,599616039649615228,-198
1710844293381,599616039657294476,-220
1710844293389,599616039664973724,-260
1710844293397,599616039672652972,-301
1710844293404,599616039680332220,-350
1710844293412,599616039688011468,-404
1710844293420,599616039695690716,-449
1710844293427,599616039703369964,-485
1710844293435,599616039711049212,-507
1710844293443,599616039718728460,-502
1710844293449,599616039726407708,-500
1710844293457,599616039734086956,-559
1710844293465,599616039741766204,-657
1710844293473,599616039749445452,-711
1710844293481,599616039757124700,-716
1710844293489,599616039764803948,-740
1710844293496,599616039772483196,-765
1710844293504,599616039780162444,-753
1710844293512,599616039787841692,-731
1710844293520,599616039795520940,-691
1710844293527,599616039803200188,-556
1710844293535,599616039810879436,-291
1710844293543,599616039818558684,-71
1710844293550,599616039826237932,-206
1710844293558,599616039833917180,-770
1710844293566,599616039841596428,-1187
1710844293573,599616039849275676,-981
1710844293581,599616039856954924,-691
1710844293589,599616039864634172,-714
1710844293596,599616039872313420,-691
1710844293604,599616039879992668,-586
1710844293612,599616039887671916,-586
1710844293619,599616039895351164,-606
1710844293627,599616039903030412,-579
1710844293635,599616039910709660,-571
1710844293641,599616039918388908,-569
1710844293649,599616039926068156,-542
1710844293657,599616039933747404,-522
1710844293665,599616039941426652,-517
1710844293673,599616039949105900,-500
1710844293681,599616039956785148,-478
1710844293688,599616039964464396,-453
1710844293696,599616039972143644,-426
1710844293704,599616039979822892,-407
1710844293711,599616039987502140,-407
1710844293719,599616039995181388,-395
1710844293727,599616040002860636,-370
1710844293735,599616040010539884,-355
1710844293742,599616040018219132,-353
1710844293750,599616040025898380,-350
1710844293758,599616040033577628,-355
1710844293765,599616040041256876,-370
1710844293773,599616040048936124,-368
1710844293781,599616040056615372,-360
1710844293788,599616040064294620,-370
1710844293796,599616040071973868,-399
1710844293804,599616040079653116,-426
1710844293811,599616040087332364,-439
1710844293819,599616040095011612,-446
1710844293827,599616040102690860,-456
1710844293833,599616040110370108,-453
1710844293841,599616040118049356,-456
1710844293849,599616040125728604,-461
1710844293857,599616040133407852,-451
1710844293865,599616040141087100,-444
1710844293873,599616040148766348,-444
1710844293880,599616040156445596,-434
1710844293888,599616040164124844,-419
1710844293896,599616040171804092,-402
1710844293903,599616040179483340,-385
1710844293911,599616040187162588,-377
1710844293919,599616040194841836,-377
1710844293927,599616040202521084,-368
1710844293934,599616040210180281,-360
1710844293942,599616040217859808,-380
1710844293950,599616040225539335,-397
1710844293957,599616040233218862,-382
1710844293965,599616040240898389,-363
1710844293973,599616040248577916,-358
1710844293980,599616040256257443,-358
1710844293988,599616040263936970,-348
1710844293996,599616040271616497,-328
1710844294003,599616040279296024,-321
1710844294011,599616040286975551,-318
1710844294019,599616040294655078,-304
1710844294025,599616040302334605,-289
1710844294033,599616040310014132,-287
1710844294041,599616040317693659,-294
1710844294049,599616040325373186,-291
1710844294057,599616040333052713,-260
1710844294065,599616040340732240,-225
1710844294072,599616040348411767,-206
1710844294080,599616040356091294,-179
1710844294088,599616040363770821,-166
1710844294095,599616040371450348,-184
1710844294103,599616040379129875,-191
1710844294111,599616040386809402,-171
1710844294118,599616040394488929,-159
1710844294126,599616040402168456,-157
1710844294134,599616040409847983,-159
1710844294142,599616040417527510,-166
1710844294149,599616040425207037,-161
1710844294157,599616040432886564,-122
1710844294165,599616040440566091,26
1710844294172,599616040448245618,240
1710844294180,599616040455925145,225
1710844294188,599616040463604672,-230
1710844294195,599616040471284199,-794
1710844294203,599616040478963726,-826
1710844294211,599616040486643253,-500
1710844294217,599616040494322780,-431
1710844294225,599616040502002307,-485
1710844294233,599616040509681834,-407
1710844294241,599616040517361361,-377
1710844294249,599616040525040888,-409
1710844294257,599616040532720415,-390
1710844294264,599616040540399942,-368
1710844294272,599616040548079469,-370
1710844294280,599616040555758996,-348
1710844294287,599616040563438523,-314
1710844294295,599616040571118050,-291
1710844294303,599616040578797577,-279
1710844294310,599616040586477104,-269
1710844294318,599616040594156631,-255
1710844294326,599616040601836158,-235
1710844294334,599616040609515685,-213
1710844294341,599616040617195212,-193
1710844294349,599616040624874739,-174
1710844294357,599616040632554266,-154
1710844294364,599616040640233793,-134
1710844294372,599616040647913320,-122
1710844294380,599616040655592847,-117
1710844294387,599616040663272374,-122
1710844294395,599616040670951901,-139
1710844294403,599616040678631428,-149
1710844294409,599616040686310955,-147
1710844294417,599616040693990482,-144
1710844294425,599616040701670009,-154
1710844294433,599616040709349536,-159
1710844294441,599616040717029063,-152
1710844294449,599616040724708590,-144
1710844294456,599616040732388117,-147
1710844294464,599616040740067644,-147
1710844294472,599616040747747171,-137
1710844294479,599616040755426698,-127
1710844294487,599616040763106225,-120
1710844294495,599616040770785768,-115
1710844294502,599616040778465295,-95
1710844294510,599616040786144822,-68
1710844294518,599616040793824349,-56
1710844294525,599616040801503876,-46
1710844294533,599616040809183403,-36
1710844294541,599616040816862930,-31
1710844294549,599616040824542457,-19
1710844294556,599616040832221984,-14
1710844294564,599616040839901511,-22
1710844294572,599616040847581038,-17
1710844294579,599616040855260565,2
1710844294587,599616040862940092,24
1710844294595,599616040870619619,49
1710844294601,599616040878299146,61
1710844294609,599616040885978673,71
1710844294617,599616040893658200,83
1710844294625,599616040901337727,85
1710844294633,599616040909017254,73
1710844294641,599616040916696781,68
1710844294648,599616040924376308,88
1710844294656,599616040932055835,107
1710844294664,599616040939735362,98
1710844294671,599616040947414889,90
1710844294679,599616040955094416,130
1710844294687,599616040962773943,206
1710844294694,599616040970453470,240
1710844294702,599616040978132997,215
1710844294710,599616040985812524,196
1710844294717,599616040993492051,220
1710844294725,599616041001171578,269
1710844294733,599616041008851105,314
1710844294741,599616041016530632,289
1710844294748,599616041024210159,230
1710844294756,599616041031889686,218
1710844294764,599616041039569213,233
1710844294771,599616041047248740,267
1710844294779,599616041054928267,375
1710844294787,599616041062607794,591
1710844294793,599616041070287321,794
1710844294801,599616041077966848,718
1710844294809,599616041085646375,203
1710844294817,599616041093325902,-289
1710844294825,599616041101005429,-161
1710844294833,599616041108684956,166
1710844294840,599616041116364483,149
1710844294848,599616041124044010,149
1710844294856,599616041131723537,316
1710844294863,599616041139403064,350
1710844294871,599616041147082591,301
1710844294879,599616041154762118,331
1710844294886,599616041162441645,343
1710844294894,599616041170121172,311
1710844294902,599616041177800699,328
1710844294909,599616041185480226,380
1710844294917,599616041193159753,395
1710844294925,599616041200839280,395
1710844294933,599616041208518807,407
1710844294940,599616041216198334,397
1710844294948,599616041223877861,407
1710844294956,599616041231557388,439
1710844294963,599616041239236915,409
1710844294971,599616041246916442,399
1710844294979,599616041254595969,488
1710844294985,599616041262275496,556
1710844294993,599616041269955023,544
1710844295001,599616041277634550,502
1710844295009,599616041285314077,461
1710844295017,599616041292993604,439
1710844295025,599616041300673131,436
1710844295032,599616041308352658,461
1710844295040,599616041316032185,449
1710844295048,599616041323711712,365
1710844295055,599616041331391255,338
1710844295063,599616041339070782,355
1710844295071,599616041346750309,350
1710844295078,599616041354429836,370
1710844295086,599616041362109363,380
1710844295094,599616041369788890,296
1710844295101,599616041377468417,225
1710844295109,599616041385147944,279
1710844295117,599616041392827471,363
1710844295124,599616041400506998,375
1710844295132,599616041408186525,363
1710844295140,599616041415866052,368
1710844295148,599616041423545579,360
1710844295155,599616041431225106,338
1710844295163,599616041438904633,318
1710844295171,599616041446584160,311
1710844295177,599616041454263687,279
1710844295185,599616041461943214,233
1710844295193,599616041469622741,247
1710844295201,599616041477302268,301
1710844295209,599616041484981795,306
1710844295217,599616041492661322,269
1710844295224,599616041500340849,247
1710844295232,599616041508020376,228
1710844295240,599616041515699903,196
1710844295247,599616041523379430,201
1710844295255,599616041531058957,235
1710844295263,599616041538738484,206
1710844295270,599616041546418011,115
1710844295278,599616041554097538,76
1710844295286,599616041561777065,117
1710844295293,599616041569456592,186
1710844295301,599616041577136119,245
1710844295309,599616041584815646,274
1710844295316,599616041592495173,267
1710844295324,599616041600174700,230
1710844295332,599616041607854227,193
1710844295340,599616041615533754,161
1710844295347,599616041623213281,157
1710844295355,599616041630892808,152
1710844295363,599616041638572335,100
1710844295369,599616041646251862,110
1710844295377,599616041653931389,184
1710844295385,599616041661610916,184
1710844295393,599616041669290443,208
1710844295401,599616041676969970,392
1710844295409,599616041684649497,608
1710844295416,599616041692329024,677
1710844295424,599616041700008551,412
1710844295432,599616041707688078,-179
1710844295439,599616041715367605,-431
1710844295447,599616041723047132,-71
1710844295455,599616041730726659,157
1710844295462,599616041738406186,31
1710844295470,599616041746085713,34
1710844295478,599616041753765240,164
1710844295485,599616041761444767,161
1710844295493,599616041769124294,110
1710844295501,599616041776803821,161
1710844295508,599616041784483348,184
1710844295516,599616041792162875,105
1710844295524,599616041799842402,112
1710844295532,599616041807521929,220
1710844295539,599616041815201456,233
1710844295547,599616041822880983,188
1710844295555,599616041830560510,206
1710844295561,599616041838240037,245
1710844295569,599616041845919564,260
1710844295577,599616041853599091,235
1710844295585,599616041861278618,179
1710844295593,599616041868958145,203
1710844295601,599616041876637672,282
1710844295608,599616041884317199,267
1710844295616,599616041891996742,242
1710844295624,599616041899676269,296
1710844295631,599616041907355796,299
1710844295639,599616041915035323,201
1710844295647,599616041922714850,147
1710844295654,599616041930394377,208
1710844295662,599616041938073904,228
1710844295670,599616041945753431,125
1710844295677,599616041953432958,46
1710844295685,599616041961112485,63
1710844295693,599616041968792012,63
1710844295700,599616041976471539,53
1710844295708,599616041984151066,85
1710844295716,599616041991830593,90
1710844295724,599616041999510120,63
1710844295731,599616042007189647,71
1710844295739,599616042014869174,103
1710844295747,599616042022548701,76
1710844295753,599616042030228228,-39
1710844295761,599616042037907755,-78
1710844295769,599616042045587282,39
1710844295777,599616042053266809,78
1710844295785,599616042060946336,0
1710844295793,599616042068625863,7
1710844295800,599616042076305390,53
1710844295808,599616042083984917,17
1710844295816,599616042091664444,-34
1710844295823,599616042099343971,-12
1710844295831,599616042107023498,12
1710844295839,599616042114703025,-24
1710844295846,599616042122382552,-44
1710844295854,599616042130062079,-9
1710844295862,599616042137741606,17
1710844295869,599616042145421133,24
1710844295877,599616042153100660,-7
1710844295885,599616042160780187,-53
1710844295892,599616042168459714,-56
1710844295900,599616042176139241,-24
1710844295908,599616042183818768,-9
1710844295915,599616042191498295,7
1710844295923,599616042199177822,49
1710844295931,599616042206857349,68
1710844295939,599616042214536876,17
1710844295945,599616042222216403,-41
1710844295953,599616042229895930,-39
1710844295961,599616042237575457,-44
1710844295969,599616042245254984,-85
1710844295977,599616042252934511,-88
1710844295985,599616042260614038,-66
1710844295992,599616042268293565,-95
1710844296000,599616042275973092,-122
1710844296008,599616042283652619,-26
1710844296015,599616042291332146,213
1710844296023,599616042299011673,463
1710844296031,599616042306691200,493
1710844296038,599616042314370727,93
1710844296046,599616042322050254,-468
1710844296054,599616042329729781,-544
1710844296061,599616042337409308,-225
1710844296069,599616042345088835,-117
1710844296077,599616042352768362,-149
1710844296084,599616042360447889,-73
1710844296092,599616042368127416,-9
1710844296100,599616042375806943,0
1710844296107,599616042383486470,24
1710844296115,599616042391165997,24
1710844296123,599616042398845524,-2
1710844296131,599616042406525051,9
1710844296137,599616042414204578,53
1710844296145,599616042421884105,49
1710844296153,599616042429563632,-34
1710844296161,599616042437243159,-68
1710844296169,599616042444922686,9
1710844296177,599616042452612311,76
1710844296184,599616042460291698,80
1710844296192,599616042467971085,88
1710844296200,599616042475650472,95
1710844296207,599616042483329859,90
1710844296215,599616042491009246,95
1710844296223,599616042498688633,105
1710844296230,599616042506368020,115
1710844296238,599616042514047407,105
1710844296246,599616042521726794,83
1710844296253,599616042529406181,76
1710844296261,599616042537085568,73
1710844296269,599616042544764955,71
1710844296276,599616042552444342,76
1710844296284,599616042560123729,63
1710844296292,599616042567803116,9
1710844296299,599616042575482503,-31
1710844296307,599616042583161890,-2
1710844296315,599616042590841277,26
1710844296323,599616042598520664,-12
1710844296329,599616042606200051,-22
1710844296337,599616042613879438,29
1710844296345,599616042621558825,17
1710844296353,599616042629238212,-26
1710844296361,599616042636917599,-17
1710844296369,599616042644596986,-17
1710844296376,599616042652276373,-53
1710844296384,599616042659955760,-36
1710844296392,599616042667635147,14
1710844296399,599616042675314534,9
1710844296407,599616042682993921,-26
1710844296415,599616042690673308,-53
1710844296422,599616042698352695,-73
1710844296430,599616042706032082,-83
1710844296438,599616042713711469,-73
1710844296445,599616042721390856,-58
1710844296453,599616042729070243,-58
1710844296461,599616042736749630,-83
1710844296468,599616042744429017,-122
1710844296476,599616042752108404,-103
1710844296484,599616042759787791,-19
1710844296491,599616042767467178,-4
1710844296499,599616042775146565,-76
1710844296507,599616042782825952,-98
1710844296513,599616042790505339,-85
1710844296521,599616042798184726,-78
1710844296529,599616042805864113,-36
1710844296537,599616042813543500,-9
1710844296545,599616042821222887,-24
1710844296553,599616042828902274,-7
1710844296561,599616042836581661,-14
1710844296568,599616042844261048,-61
1710844296576,599616042851940435,-41
1710844296584,599616042859619822,4
1710844296591,599616042867299209,-9
1710844296599,599616042874978596,-51
1710844296607,599616042882657983,-78
1710844296614,599616042890337370,-49
1710844296622,599616042898016757,71
1710844296630,599616042905696144,282
1710844296637,599616042913375531,507
1710844296645,599616042921054918,490
1710844296653,599616042928734305,-9
1710844296660,599616042936413692,-574
1710844296668,599616042944093079,-512
1710844296676,599616042951772466,-149
1710844296683,599616042959451853,-100
1710844296691,599616042967131240,-137
1710844296699,599616042974810627,-78
1710844296705,599616042982490014,-98
1710844296713,599616042990169401,-85
1710844296721,599616042997848788,-7
1710844296729,599616043005528175,-34
1710844296737,599616043013187538,-85
1710844296745,599616043020867204,-46
1710844296753,599616043028546870,-7
1710844296760,599616043036226536,2
1710844296768,599616043043906202,19
1710844296776,599616043051585868,14
1710844296783,599616043059265534,12
1710844296791,599616043066945200,80
1710844296799,599616043074624866,117
1710844296806,599616043082304532,71
1710844296814,599616043089984198,61
1710844296822,599616043097663864,85
1710844296829,599616043105343530,56
1710844296837,599616043113023196,24
1710844296845,599616043120702862,36
1710844296852,599616043128382528,46
1710844296860,599616043136062194,63
1710844296868,599616043143741860,53
1710844296875,599616043151421526,-26
1710844296883,599616043159101192,-73
1710844296891,599616043166780858,-41
1710844296897,599616043174460524,-36
1710844296905,599616043182140190,-56
1710844296913,599616043189819856,-58
1710844296921,599616043197499522,-78
1710844296929,599616043205179188,-103
1710844296937,599616043212858854,-98
1710844296945,599616043220538520,-83
1710844296952,599616043228218186,-83
1710844296960,599616043235897852,-73
1710844296968,599616043243577518,-51
1710844296975,599616043251257184,-53
1710844296983,599616043258936850,-68
1710844296991,599616043266616516,-68
1710844296998,599616043274296182,-66
1710844297006,599616043281975848,-61
1710844297014,599616043289655514,-46
1710844297021,599616043297335180,-44
1710844297029,599616043305014846,-61
1710844297037,599616043312694512,-73
1710844297044,599616043320374178,-78
1710844297052,599616043328053844,-78
1710844297060,599616043335733510,-80
1710844297067,599616043343413176,-83
1710844297075,599616043351092842,-78
1710844297083,599616043358772508,-66
1710844297089,599616043366452174,-58
1710844297097,599616043374131840,-58
1710844297105,599616043381811506,-63
1710844297113,599616043389491172,-78
1710844297121,599616043397170838,-93
1710844297129,599616043404850504,-88
1710844297137,599616043412530170,-53
1710844297144,599616043420209836,-34
1710844297152,599616043427889502,-53
1710844297160,599616043435569168,-88
1710844297167,599616043443248834,-100
1710844297175,599616043450928500,-98
1710844297183,599616043458608166,-100
1710844297190,599616043466287832,-100
1710844297198,599616043473967498,-83
1710844297206,599616043481647164,-76
1710844297213,599616043489326830,-76
1710844297221,599616043497006496,-29
1710844297229,599616043504686162,144
1710844297236,599616043512365828,441
1710844297244,599616043520045494,620
1710844297252,599616043527725160,368
1710844297259,599616043535404826,-223
1710844297267,599616043543084492,-488
1710844297275,599616043550764158,-203
1710844297281,599616043558443824,-9
1710844297289,599616043566123490,-63
1710844297297,599616043573803197,-9
1710844297305,599616043581482863,66
1710844297313,599616043589162529,22
1710844297321,599616043596842195,9
1710844297329,599616043604521861,51
1710844297336,599616043612201527,56
1710844297344,599616043619881193,39
1710844297352,599616043627560859,34
1710844297359,599616043635240525,34
1710844297367,599616043642920191,34
1710844297375,599616043650599857,19
1710844297382,599616043658279523,9
1710844297390,599616043665959189,17
1710844297398,599616043673638855,24
1710844297405,599616043681318521,36
1710844297413,599616043688998187,49
1710844297421,599616043696677853,51
1710844297428,599616043704357519,58
1710844297436,599616043712037185,73
1710844297444,599616043719716851,71
1710844297451,599616043727396517,51
1710844297459,599616043735076183,41
1710844297467,599616043742755849,36
1710844297473,599616043750435515,17
1710844297481,599616043758115181,-4
1710844297489,599616043765794847,-17
1710844297497,599616043773474513,-24
1710844297505,599616043781154179,-34
1710844297513,599616043788833845,-53
1710844297521,599616043796513511,-71
1710844297528,599616043804193177,-85
1710844297536,599616043811872843,-90
1710844297544,599616043819552509,-83
1710844297551,599616043827232175,-73
1710844297559,599616043834911841,-61
1710844297567,599616043842591507,-44
1710844297574,599616043850271173,-31
1710844297582,599616043857950839,-36
1710844297590,599616043865630505,-44
1710844297597,599616043873310171,-34
1710844297605,599616043880989837,-29
1710844297613,599616043888669503,-26
1710844297620,599616043896349169,-14
1710844297628,599616043904028835,-2
1710844297636,599616043911708501,-2
1710844297643,599616043919388167,-4
1710844297651,599616043927067833,-12
1710844297659,599616043934747499,-9
1710844297665,599616043942427165,-4
1710844297673,599616043950106831,-14
1710844297681,599616043957786497,-31
1710844297689,599616043965466163,-31
1710844297697,599616043973145829,-29
1710844297705,599616043980825495,-36
1710844297712,599616043988505161,-41
1710844297720,599616043996184827,-44
1710844297728,599616044003864493,-39
1710844297736,599616044011544159,-12
1710844297743,599616044019223825,7
1710844297751,599616044026903491,-4
1710844297759,599616044034583157,-36
1710844297766,599616044042262823,-53
1710844297774,599616044049942489,-49
1710844297782,599616044057622155,-44
1710844297789,599616044065301821,-41
1710844297797,599616044072981487,-31
1710844297805,599616044080661153,-31
1710844297812,599616044088340819,-41
1710844297820,599616044096020485,-31
1710844297828,599616044103700151,85
1710844297835,599616044111379817,355
1710844297843,599616044119059483,596
1710844297851,599616044126739149,463
1710844297857,599616044134438946,-122
1710844297865,599616044142118333,-561
1710844297873,599616044149797720,-363
1710844297881,599616044157477107,-76
1710844297889,599616044165156494,-100
1710844297897,599616044172835881,-83
1710844297905,599616044180515268,-4
1710844297912,599616044188194655,-39
1710844297920,599616044195874042,-68
1710844297928,599616044203553429,-36
1710844297935,599616044211232816,-26
1710844297943,599616044218912203,-36
1710844297951,599616044226591590,-31
1710844297958,599616044234270977,-19
1710844297966,599616044241950364,-4
1710844297974,599616044249629751,9
1710844297981,599616044257309138,19
1710844297989,599616044264988525,7
1710844297997,599616044272667912,-2
1710844298004,599616044280347299,14
1710844298012,599616044288026686,39
1710844298020,599616044295706073,44
1710844298027,599616044303385460,44
1710844298035,599616044311064847,56
1710844298043,599616044318744234,66
1710844298049,599616044326423621,58
1710844298057,599616044334103008,41
1710844298065,599616044341782395,36
1710844298073,599616044349461782,39
1710844298081,599616044357141169,31
1710844298089,599616044364820556,4
1710844298096,599616044372499943,-17
1710844298104,599616044380179330,-19
1710844298112,599616044387858717,-24
1710844298120,599616044395538104,-46
1710844298127,599616044403217491,-66
1710844298135,599616044410896878,-66
1710844298143,599616044418576265,-68
1710844298150,599616044426255652,-76
1710844298158,599616044433935039,-66
1710844298166,599616044441614426,-41
1710844298173,599616044449293813,-29
1710844298181,599616044456973200,-29
1710844298189,599616044464652587,-34
1710844298196,599616044472331974,-39
1710844298204,599616044480011361,-31
1710844298212,599616044487690748,-22
1710844298219,599616044495370135,-19
1710844298227,599616044503049522,-22
1710844298235,599616044510728909,-17
1710844298241,599616044518408296,-12
1710844298249,599616044526087683,-12
1710844298257,599616044533767070,-19
1710844298265,599616044541446457,-41
1710844298273,599616044549125844,-49
1710844298281,599616044556805231,-26
1710844298288,599616044564484618,-9
1710844298296,599616044572164005,-22
1710844298304,599616044579843392,-31
1710844298312,599616044587522779,-29
1710844298319,599616044595202166,-34
1710844298327,599616044602881553,-29
1710844298335,599616044610560940,-4
1710844298342,599616044618240327,17
1710844298350,599616044625919714,17
1710844298358,599616044633599101,-9
1710844298365,599616044641278488,-41
1710844298373,599616044648957875,-51
1710844298381,599616044656637262,-31
1710844298388,599616044664316649,-17
1710844298396,599616044671996036,-19
1710844298404,599616044679675423,-34
1710844298411,599616044687354810,-49
1710844298419,599616044695024179,-24
1710844298427,599616044702703706,95
1710844298433,599616044710383233,353
1710844298441,599616044718062760,618
1710844298449,599616044725742287,554
1710844298457,599616044733421814,0
1710844298465,599616044741101341,-529
1710844298473,599616044748780868,-426
1710844298480,599616044756460395,-105
1710844298488,599616044764139922,-73
1710844298496,599616044771819449,-71
1710844298503,599616044779498976,4
1710844298511,599616044787178503,-7
1710844298519,599616044794858030,-19
1710844298527,599616044802537557,19
1710844298534,599616044810217084,29
1710844298542,599616044817896611,4
1710844298550,599616044825576138,9
1710844298557,599616044833255665,24
1710844298565,599616044840935192,22
1710844298573,599616044848614719,22
1710844298580,599616044856294246,41
1710844298588,599616044863973773,56
1710844298596,599616044871653300,58
1710844298603,599616044879332827,71
1710844298611,599616044887012354,95
1710844298619,599616044894691881,107
1710844298625,599616044902371408,110
1710844298633,599616044910050935,122
1710844298641,599616044917730462,127
1710844298649,599616044925409989,115
1710844298657,599616044933089516,95
1710844298665,599616044940769043,93
1710844298672,599616044948448570,90
1710844298680,599616044956128097,58
1710844298688,599616044963807624,24
1710844298695,599616044971487151,14
1710844298703,599616044979166678,14
1710844298711,599616044986846205,2
1710844298719,599616044994525732,-12
1710844298726,599616045002205259,-26
1710844298734,599616045009884786,-26
1710844298742,599616045017564313,-22
1710844298749,599616045025243840,-24
1710844298757,599616045032923367,-29
1710844298765,599616045040602894,-22
1710844298772,599616045048282421,-7
1710844298780,599616045055961948,-2
1710844298788,599616045063641475,-9
1710844298795,599616045071321002,-7
1710844298803,599616045079000529,2
1710844298811,599616045086680056,9
1710844298817,599616045094359583,7
1710844298825,599616045102039110,-9
1710844298833,599616045109718637,-14
1710844298841,599616045117398164,-7
1710844298849,599616045125077691,0
1710844298857,599616045132757218,2
1710844298864,599616045140436745,9
1710844298872,599616045148116272,17
1710844298880,599616045155795799,22
1710844298887,599616045163475326,17
1710844298895,599616045171154853,12
1710844298903,599616045178834380,12
1710844298911,599616045186513907,9
1710844298918,599616045194193434,4
1710844298926,599616045201872961,0
1710844298934,599616045209552488,4
1710844298941,599616045217232015,17
1710844298949,599616045224911542,36
1710844298957,599616045232591069,41
1710844298964,599616045240270596,17
1710844298972,599616045247950123,-4
1710844298980,599616045255629666,0
1710844298987,599616045263309193,14
1710844298995,599616045270988720,14
1710844299003,599616045278668247,-2
1710844299009,599616045286347774,-24
1710844299017,599616045294027301,-29
1710844299025,599616045301706828,-4
1710844299033,599616045309386355,112
1710844299041,599616045317065882,375
1710844299049,599616045324745409,635
1710844299056,599616045332424936,552
1710844299064,599616045340104463,-17
1710844299072,599616045347783990,-507
1710844299079,599616045355463517,-348
1710844299087,599616045363143044,-46
1710844299095,599616045370822571,-53
1710844299102,599616045378502098,-53
1710844299110,599616045386181625,31
1710844299118,599616045393861152,41
1710844299126,599616045401540679,39
1710844299133,599616045409220206,71
1710844299141,599616045416899733,85
1710844299149,599616045424579260,80
1710844299156,599616045432258787,90
1710844299164,599616045439938314,107
1710844299172,599616045447617841,112
1710844299179,599616045455297368,107
1710844299187,599616045462976895,103
1710844299195,599616045470656422,103
1710844299201,599616045478335949,103
1710844299209,599616045486015476,107
1710844299217,599616045493695003,117
1710844299225,599616045501374530,130
1710844299233,599616045509054057,142
1710844299241,599616045516733584,147
1710844299248,599616045524413111,149
1710844299256,599616045532092638,149
1710844299264,599616045539772165,144
1710844299271,599616045547451692,137
1710844299279,599616045555131219,117
1710844299287,599616045562810746,98
1710844299294,599616045570490273,90
1710844299302,599616045578169800,76
1710844299310,599616045585849327,44
1710844299318,599616045593528854,31
1710844299325,599616045601208381,34
1710844299333,599616045608887908,19
1710844299341,599616045616567435,2
1710844299348,599616045624246962,4
1710844299356,599616045631926489,7
1710844299364,599616045639606016,4
1710844299371,599616045647285543,2
1710844299379,599616045654965070,-2
1710844299387,599616045662644597,4
1710844299393,599616045670324124,26
1710844299401,599616045678003651,34
1710844299409,599616045685683178,34
1710844299417,599616045693362705,39
1710844299425,599616045701042232,51
1710844299433,599616045708721759,51
1710844299440,599616045716401286,49
1710844299448,599616045724080813,41
1710844299456,599616045731760340,46
1710844299463,599616045739439867,61
1710844299471,599616045747119394,66
1710844299479,599616045754798921,61
1710844299486,599616045762478448,51
1710844299494,599616045770157975,46
1710844299502,599616045777837502,51
1710844299510,599616045785517029,53
1710844299517,599616045793196556,36
1710844299525,599616045800876083,17
1710844299533,599616045808555610,31
1710844299540,599616045816235155,56
1710844299548,599616045823914682,63
1710844299556,599616045831594209,56
1710844299563,599616045839273736,53
1710844299571,599616045846953263,44
1710844299579,599616045854632790,29
1710844299585,599616045862312317,34
1710844299593,599616045869991844,56
1710844299601,599616045877671371,58
1710844299609,599616045885350898,56
1710844299617,599616045893030425,63
1710844299625,599616045900709952,56
1710844299632,599616045908389479,71
1710844299640,599616045916069006,220
1710844299648,599616045923748533,515
1710844299655,599616045931428060,718
1710844299663,599616045939107587,505
1710844299671,599616045946787114,-103
1710844299678,599616045954466641,-458
1710844299686,599616045962146168,-225
1710844299694,599616045969825695,2
1710844299701,599616045977505222,-22
1710844299709,599616045985184749,9
1710844299717,599616045992864276,66
1710844299725,599616046000543803,39
1710844299732,599616046008223330,36
1710844299740,599616046015902857,76
1710844299748,599616046023582384,88
1710844299755,599616046031261911,85
1710844299763,599616046038941438,93
1710844299771,599616046046620965,103
1710844299777,599616046054300492,112
1710844299785,599616046061980019,115
1710844299793,599616046069659546,100
1710844299801,599616046077339073,90
1710844299809,599616046085018600,105
1710844299817,599616046092698127,125
1710844299824,599616046100377654,125
1710844299832,599616046108057181,127
1710844299840,599616046115736708,152
1710844299847,599616046123416235,169
1710844299855,599616046131095762,157
1710844299863,599616046138775289,139
1710844299870,599616046146454816,147
1710844299878,599616046154134343,144
1710844299886,599616046161813870,127
1710844299893,599616046169493397,115
1710844299901,599616046177172924,110
1710844299909,599616046184852451,93
1710844299917,599616046192531978,73
1710844299924,599616046200211505,61
1710844299932,599616046207891032,51
1710844299940,599616046215570559,46
1710844299947,599616046223250086,44
1710844299955,599616046230929613,39
1710844299963,599616046238609140,34
1710844299969,599616046246288667,31
1710844299977,599616046253968194,39
1710844299985,599616046261647721,53
1710844299993,599616046269327248,51
1710844300001,599616046277006775,44
1710844300009,599616046284686302,51
1710844300016,599616046292365829,66
1710844300024,599616046300045356,66
1710844300032,599616046307724883,44
1710844300039,599616046315404410,24
1710844300047,599616046323083937,34
1710844300055,599616046330763464,53
1710844300062,599616046338442991,36
1710844300070,599616046346122518,22
1710844300078,599616046353802045,36
1710844300085,599616046361481572,46
1710844300093,599616046369161099,46
1710844300101,599616046376840642,51
1710844300109,599616046384520169,53
1710844300116,599616046392199696,56
1710844300124,599616046399879223,66
1710844300132,599616046407558750,61
1710844300139,599616046415238277,56
1710844300147,599616046422917804,61
1710844300155,599616046430597331,49
1710844300161,599616046438276858,19
1710844300169,599616046445956385,12
1710844300177,599616046453635912,26
1710844300185,599616046461315439,29
1710844300193,599616046468994966,24
1710844300201,599616046476674493,31
1710844300208,599616046484354020,19
1710844300216,599616046492033547,-12
1710844300224,599616046499713074,-4
1710844300231,599616046507392601,142
1710844300239,599616046515072128,431
1710844300247,599616046522751655,610
1710844300254,599616046530431182,370
1710844300262,599616046538110709,-233
1710844300270,599616046545790236,-525
1710844300277,599616046553469763,-240
1710844300285,599616046561149290,-34
1710844300293,599616046568828817,-76
1710844300300,599616046576508344,-17
1710844300308,599616046584187871,53
1710844300316,599616046591867398,19
1710844300324,599616046599546925,12
1710844300331,599616046607226452,49
1710844300339,599616046614905979,61
1710844300347,599616046622585506,56
1710844300353,599616046630265033,58
1710844300361,599616046637944560,58
1710844300369,599616046645624087,63
1710844300377,599616046653303614,80
1710844300385,599616046660983141,88
1710844300393,599616046668662668,88
1710844300400,599616046676342195,95
1710844300408,599616046684021722,115
1710844300416,599616046691701249,127
1710844300423,599616046699380776,127
1710844300431,599616046707060303,127
1710844300439,599616046714739830,139
1710844300446,599616046722419357,144
1710844300454,599616046730098884,137
1710844300462,599616046737778411,120
1710844300469,599616046745457938,110
1710844300477,599616046753137465,105
1710844300485,599616046760816992,90
1710844300492,599616046768496519,73
1710844300500,599616046776176046,61
1710844300508,599616046783855573,53
1710844300516,599616046791535100,46
1710844300523,599616046799214627,24
1710844300531,599616046806894154,2
1710844300539,599616046814573681,2
1710844300545,599616046822253208,2
1710844300553,599616046829932735,-4
1710844300561,599616046837612262,-2
1710844300569,599616046845291789,-4
1710844300577,599616046852971316,-17
1710844300585,599616046860650843,-19
1710844300592,599616046868330370,4
1710844300600,599616046876009897,4
1710844300608,599616046883689424,-14
1710844300615,599616046891368951,0
1710844300623,599616046899048478,26
1710844300631,599616046906728005,29
1710844300638,599616046914407532,14
1710844300646,599616046922087059,14
1710844300654,599616046929766586,26
1710844300661,599616046937446129,39
1710844300669,599616046945125656,36
1710844300677,599616046952805183,29
1710844300684,599616046960484710,36
1710844300692,599616046968164237,46
1710844300700,599616046975843764,41
1710844300708,599616046983523291,29
1710844300715,599616046991202818,26
1710844300723,599616046998882345,46
1710844300731,599616047006561872,83
1710844300737,599616047014241399,105
1710844300745,599616047021920926,88
1710844300753,599616047029600453,51
1710844300761,599616047037279980,29
1710844300769,599616047044959507,31
1710844300777,599616047052639034,39
1710844300784,599616047060318561,24
1710844300792,599616047067998088,14
1710844300800,599616047075677615,24
1710844300807,599616047083357142,29
1710844300815,599616047091036669,39
1710844300823,599616047098716196,159
1710844300830,599616047106395723,441
1710844300838,599616047114075250,672
1710844300846,599616047121754777,493
1710844300853,599616047129434304,-100
1710844300861,599616047137113831,-461
1710844300869,599616047144793358,-203
1710844300876,599616047152472885,53
1710844300884,599616047160152412,4
1710844300892,599616047167831939,19
1710844300900,599616047175511466,95
1710844300907,599616047183190993,80
1710844300915,599616047190870520,73
1710844300923,599616047198550047,112
1710844300929,599616047206229574,130
1710844300937,599616047213909101,115
1710844300945,599616047221588628,107
1710844300953,599616047229268155,115
1710844300961,599616047236947682,115
1710844300969,599616047244627209,115
1710844300976,599616047252306736,127
1710844300984,599616047259986263,130
1710844300992,599616047267665790,122
1710844300999,599616047275345317,117
1710844301007,599616047283024844,117
1710844301015,599616047290704371,125
1710844301022,599616047298383898,132
1710844301030,599616047306063425,139
1710844301038,599616047313742952,152
1710844301045,599616047321422479,159
1710844301053,599616047329102006,159
1710844301061,599616047336781533,144
1710844301068,599616047344461060,137
1710844301076,599616047352140587,130
1710844301084,599616047359820114,107
1710844301091,599616047367499641,78
1710844301099,599616047375179168,73
1710844301107,599616047382858695,78
1710844301115,599616047390538222,63
1710844301121,599616047398217749,44
1710844301129,599616047405897276,44
1710844301137,599616047413576803,53
1710844301145,599616047421256330,49
1710844301153,599616047428935857,41
1710844301161,599616047436615384,49
1710844301168,599616047444294911,53
1710844301176,599616047451974438,51
1710844301184,599616047459653965,61
1710844301191,599616047467333492,76
1710844301199,599616047475013019,85
1710844301207,599616047482692546,88
1710844301214,599616047490372073,80
1710844301222,599616047498046648,80
1710844301230,599616047505726244,83
1710844301237,599616047513405840,83
1710844301245,599616047521085436,83
1710844301253,599616047528765032,88
1710844301260,599616047536444628,93
1710844301268,599616047544124224,90
1710844301276,599616047551803820,80
1710844301283,599616047559483416,83
1710844301291,599616047567163012,88
1710844301299,599616047574842608,73
1710844301307,599616047582522204,61
1710844301313,599616047590201800,68
1710844301321,599616047597881396,78
1710844301329,599616047605560992,78
1710844301337,599616047613240588,83
1710844301345,599616047620920184,95
1710844301353,599616047628599780,110
1710844301360,599616047636279376,100
1710844301368,599616047643958972,68
1710844301376,599616047651638568,56
1710844301383,599616047659318164,63
1710844301391,599616047666997760,80
1710844301399,599616047674677356,85
1710844301406,599616047682356952,76
1710844301414,599616047690036548,63
1710844301422,599616047697716144,63
1710844301429,599616047705395740,112
1710844301437,599616047713075336,296
1710844301445,599616047720754932,579
1710844301452,599616047728434528,701
1710844301460,599616047736114124,355
1710844301468,599616047743793720,-264
1710844301475,599616047751473316,-441
1710844301483,599616047759152912,-115
1710844301491,599616047766832508,34
1710844301499,599616047774512104,-17
1710844301505,599616047782191700,29
1710844301513,599616047789871296,71
1710844301521,599616047797550892,49
1710844301529,599616047805230488,66
1710844301537,599616047812910084,93
1710844301545,599616047820589680,83
1710844301552,599616047828269276,83
1710844301560,599616047835948872,103
1710844301568,599616047843628468,107
1710844301575,599616047851308064,103
1710844301583,599616047858987660,105
1710844301591,599616047866667256,105
1710844301598,599616047874346852,117
1710844301606,599616047882026448,132
1710844301614,599616047889706044,142
1710844301621,599616047897385640,149
1710844301629,599616047905065236,159
1710844301637,599616047912744832,171
1710844301644,599616047920424428,179
1710844301652,599616047928104024,174
1710844301660,599616047935783620,157
1710844301667,599616047943463216,142
1710844301675,599616047951142812,137
1710844301683,599616047958822408,127
1710844301689,599616047966502004,103
1710844301697,599616047974181600,93
1710844301705,599616047981861196,93
1710844301713,599616047989540792,83
1710844301721,599616047997220388,68
1710844301729,599616048004899984,63
1710844301737,599616048012579580,66
1710844301744,599616048020259176,71
1710844301752,599616048027938772,66
1710844301760,599616048035618368,51
1710844301767,599616048043297964,41
1710844301775,599616048050977560,41
1710844301783,599616048058697327,41
1710844301790,599616048066376366,36
1710844301798,599616048074055405,34
1710844301806,599616048081734444,31
1710844301813,599616048089413483,22
1710844301821,599616048097092522,14
1710844301829,599616048104771561,9
1710844301836,599616048112450600,4
1710844301844,599616048120129639,4
1710844301852,599616048127808678,19
1710844301859,599616048135487717,22
1710844301867,599616048143166756,2
1710844301875,599616048150845795,-2
1710844301883,599616048158524834,9
1710844301889,599616048166203873,24
1710844301897,599616048173882912,26
1710844301905,599616048181561951,17
1710844301913,599616048189240990,19
1710844301921,599616048196920029,36
1710844301929,599616048204599068,41
1710844301936,599616048212278107,24
1710844301944,599616048219957146,22
1710844301952,599616048227636185,34
1710844301959,599616048235315224,39
1710844301967,599616048242994263,44
1710844301975,599616048250673302,66
1710844301982,599616048258352341,66
1710844301990,599616048266031380,24
1710844301998,599616048273710419,-17
1710844302005,599616048281389458,-17
1710844302013,599616048289068497,0
1710844302021,599616048296747536,0
1710844302028,599616048304426575,-2
1710844302036,599616048312105614,0
1710844302044,599616048319784653,-17
1710844302051,599616048327463692,-4
1710844302059,599616048335142731,120
1710844302067,599616048342821770,385
1710844302073,599616048350500809,603
1710844302081,599616048358179848,451
1710844302089,599616048365858887,-105
1710844302097,599616048373537926,-483
1710844302105,599616048381216965,-272
1710844302113,599616048388896004,-9
1710844302121,599616048396575043,-26
1710844302128,599616048404254082,-9
1710844302136,599616048411933121,58
1710844302144,599616048419612160,41
1710844302151,599616048427291199,26
1710844302159,599616048434970238,56
1710844302167,599616048442649277,68
1710844302174,599616048450328316,58
1710844302182,599616048458007355,61
1710844302190,599616048465686394,68
1710844302197,599616048473365433,78
1710844302205,599616048481044472,83
1710844302213,599616048488723511,73
1710844302220,599616048496402550,68
1710844302228,599616048504081589,85
1710844302236,599616048511760628,103
1710844302243,599616048519439667,112
1710844302251,599616048527118706,125
1710844302259,599616048534797745,130
1710844302265,599616048542476784,139
1710844302273,599616048550155823,149
1710844302281,599616048557834862,144
1710844302289,599616048565513901,137
1710844302297,599616048573192940,132
1710844302305,599616048580871979,130
1710844302313,599616048588551018,125
1710844302320,599616048596230057,105
1710844302328,599616048603909096,73
1710844302336,599616048611588135,56
1710844302343,599616048619232074,51
1710844302351,599616048626911601,36
1710844302359,599616048634591128,24
1710844302366,599616048642270655,24
1710844302374,599616048649950182,12
1710844302382,599616048657629709,-9
1710844302389,599616048665309236,-9
1710844302397,599616048672988763,-4
1710844302405,599616048680668290,-2
1710844302412,599616048688347817,0
1710844302420,599616048696027344,-9
1710844302428,599616048703706871,-14
1710844302435,599616048711386398,2
1710844302443,599616048719065925,14
1710844302451,599616048726745452,4
1710844302457,599616048734424979,-2
1710844302465,599616048742104506,4
1710844302473,599616048749784033,12
1710844302481,599616048757463560,9
1710844302489,599616048765143087,2
1710844302497,599616048772822614,-12
1710844302504,599616048780502141,-12
1710844302512,599616048788181668,2
1710844302520,599616048795861195,4
1710844302528,599616048803540722,-7
1710844302535,599616048811220249,-19
1710844302543,599616048818899776,-19
1710844302551,599616048826579303,-17
1710844302558,599616048834258830,-24
1710844302566,599616048841938357,-26
1710844302574,599616048849617884,-14
1710844302581,599616048857297411,-2
1710844302589,599616048864976938,2
1710844302597,599616048872656465,9
1710844302604,599616048880335992,17
1710844302612,599616048888015519,19
1710844302620,599616048895695046,12
1710844302627,599616048903374573,-12
1710844302635,599616048911054100,-31
1710844302643,599616048918733627,-26
1710844302649,599616048926413154,-14
1710844302657,599616048934092681,-12
1710844302665,599616048941772208,-12
1710844302673,599616048949451735,-17
1710844302681,599616048957131262,-12
1710844302689,599616048964810789,39
1710844302696,599616048972490316,215
1710844302704,599616048980169843,483
1710844302712,599616048987849370,581
1710844302720,599616048995528897,223
1710844302727,599616049003208424,-402
1710844302735,599616049010887951,-583
1710844302743,599616049018567478,-255
1710844302750,599616049026247005,-88
1710844302758,599616049033926532,-127
1710844302766,599616049041606059,-76
1710844302773,599616049049285586,-46
1710844302781,599616049056965113,-80
1710844302789,599616049064644640,-66
1710844302796,599616049072324167,-41
1710844302804,599616049080003694,-49
1710844302812,599616049087683221,-51
1710844302819,599616049095362748,-36
1710844302827,599616049103042275,-26
1710844302835,599616049110721802,-26
1710844302841,599616049118401329,-17
1710844302849,599616049126080856,-9
1710844302857,599616049133760383,-2
1710844302865,599616049141439910,19
1710844302873,599616049149119437,36
1710844302881,599616049156798964,41
1710844302888,599616049164478491,58
1710844302896,599616049172158018,83
1710844302904,599616049179837561,95
1710844302912,599616049187517088,98
1710844302919,599616049195196615,83
1710844302927,599616049202876142,51
1710844302935,599616049210555669,34
1710844302942,599616049218235196,31
1710844302950,599616049225914723,12
1710844302958,599616049233594250,-9
1710844302965,599616049241273777,-26
1710844302973,599616049248953304,-51
1710844302981,599616049256632831,-80
1710844302988,599616049264312358,-93
1710844302996,599616049271991885,-88
1710844303004,599616049279671412,-95
1710844303011,599616049287350939,-105
1710844303019,599616049295030466,-95
1710844303027,599616049302709993,-76
1710844303033,599616049310389520,-66
1710844303041,599616049318069047,-56
1710844303049,599616049325748574,-46
1710844303057,599616049333428101,-41
1710844303065,599616049341107628,-36
1710844303073,599616049348787155,-31
1710844303080,599616049356466682,-29
1710844303088,599616049364146209,-24
1710844303096,599616049371825736,-24
1710844303103,599616049379505263,-29
1710844303111,599616049387184790,-19
1710844303119,599616049394864317,-7
1710844303127,599616049402543844,-4
1710844303134,599616049410223371,-7
1710844303142,599616049417902898,-9
1710844303150,599616049425582425,-17
1710844303157,599616049433261952,-19
1710844303165,599616049440941479,-14
1710844303173,599616049448621006,-9
1710844303180,599616049456300533,-19
1710844303188,599616049463980060,-29
1710844303196,599616049471659587,-22
1710844303203,599616049479339114,-12
1710844303211,599616049487018641,-9
1710844303219,599616049494698168,7
1710844303225,599616049502377695,39
1710844303233,599616049510057222,68
1710844303241,599616049517736749,63
1710844303249,599616049525416276,26
1710844303257,599616049533095803,-7
1710844303265,599616049540775330,-2
1710844303272,599616049548454857,19
1710844303280,599616049556134384,17
1710844303288,599616049563813911,0
1710844303295,599616049571493438,-2
1710844303303,599616049579172965,12
1710844303311,599616049586852492,51
1710844303319,599616049594532019,191
1710844303326,599616049602211546,456
1710844303334,599616049609891073,610
1710844303342,599616049617570600,333
1710844303349,599616049625250127,-262
1710844303357,599616049632929654,-495
1710844303365,599616049640609181,-181
1710844303372,599616049648288708,14
1710844303380,599616049655968235,-51
1710844303388,599616049663647762,0
1710844303395,599616049671327289,76
1710844303403,599616049679006816,56
1710844303411,599616049686686343,61
1710844303417,599616049694365870,93
1710844303425,599616049702045397,83
1710844303433,599616049709724924,71
1710844303441,599616049717404451,88
1710844303449,599616049725083978,107
1710844303457,599616049732763505,110
1710844303464,599616049740443048,110
1710844303472,599616049748122575,112
1710844303480,599616049755802102,120
1710844303487,599616049763481629,127
1710844303495,599616049771161156,132
1710844303503,599616049778840683,137
1710844303511,599616049786520210,154
1710844303518,599616049794199737,169
1710844303526,599616049801879264,166
1710844303534,599616049809558791,152
1710844303541,599616049817238318,137
1710844303549,599616049824917845,122
1710844303557,599616049832597372,112
1710844303564,599616049840276899,107
1710844303572,599616049847956426,83
1710844303580,599616049855635953,49
1710844303587,599616049863315480,41
1710844303595,599616049870995007,41
1710844303603,599616049878674534,24
1710844303609,599616049886354061,2
1710844303617,599616049894033588,-12
1710844303625,599616049901713115,-12
1710844303633,599616049909392642,-9
1710844303641,599616049917072169,-9
1710844303649,599616049924751696,4
1710844303656,599616049932431223,26
1710844303664,599616049940110750,36
1710844303672,599616049947790277,44
1710844303679,599616049955469804,56
1710844303687,599616049963149331,66
1710844303695,599616049970828858,73
1710844303702,599616049978508385,76
1710844303710,599616049986187912,85
1710844303718,599616049993867439,93
1710844303726,599616050001546966,88
1710844303733,599616050009226493,85
1710844303741,599616050016906020,90
1710844303749,599616050024585547,93
1710844303756,599616050032265074,83
1710844303764,599616050039944601,76
1710844303772,599616050047624128,78
1710844303779,599616050055303655,80
1710844303787,599616050062983182,80
1710844303795,599616050070662709,85
1710844303801,599616050078342236,85
1710844303809,599616050086021763,78
1710844303817,599616050093701290,63
1710844303825,599616050101380817,51
1710844303833,599616050109060344,51
1710844303841,599616050116739871,68
1710844303848,599616050124419398,95
1710844303856,599616050132098925,122
1710844303864,599616050139778452,132
1710844303871,599616050147457979,115
1710844303879,599616050155137506,88
1710844303887,599616050162817033,85
1710844303894,599616050170496560,95
1710844303902,599616050178176087,85
1710844303910,599616050185855614,76
1710844303918,599616050193535141,85
1710844303925,599616050201214668,88
1710844303933,599616050208894195,90
1710844303941,599616050216573722,171
1710844303948,599616050224253249,417
1710844303956,599616050231932776,684
1710844303964,599616050239612303,613
1710844303971,599616050247291830,71
1710844303979,599616050254971357,-424
1710844303987,599616050262650884,-291
1710844303993,599616050270330411,34
1710844304001,599616050278009938,41
1710844304009,599616050285689465,14
1710844304017,599616050293368992,88
1710844304025,599616050301048535,85
1710844304033,599616050308728062,51
1710844304040,599616050316407589,61
1710844304048,599616050324087116,68
1710844304056,599616050331766643,68
1710844304063,599616050339446170,80
1710844304071,599616050347125697,88
1710844304079,599616050354805224,88
1710844304086,599616050362484751,85
1710844304094,599616050370164278,93
1710844304102,599616050377843805,107
1710844304110,599616050385523332,122
1710844304117,599616050393202859,132
1710844304125,599616050400882386,137
1710844304133,599616050408561913,144
1710844304140,599616050416241440,149
1710844304148,599616050423920967,147
1710844304156,599616050431600494,149
1710844304163,599616050439280021,149
1710844304171,599616050446959548,134
1710844304179,599616050454639075,107
1710844304185,599616050462318602,90
1710844304193,599616050469998129,93
1710844304201,599616050477677656,85
1710844304209,599616050485357183,58
1710844304217,599616050493036710,36
1710844304225,599616050500716237,34
1710844304232,599616050508395764,36
1710844304240,599616050516075291,26
1710844304248,599616050523754818,22
1710844304255,599616050531434345,29
1710844304263,599616050539113872,34
1710844304271,599616050546793399,31
1710844304278,599616050554472926,24
1710844304286,599616050562152453,24
1710844304294,599616050569831980,39
1710844304302,599616050577511507,51
1710844304309,599616050585191034,49
1710844304317,599616050592870561,39
1710844304325,599616050600550088,39
1710844304332,599616050608229615,41
1710844304340,599616050615909142,31
1710844304348,599616050623588669,14
1710844304355,599616050631268196,4
