phoneTimestamp,sensorTimestamp,ecg
1712156861446,599616102992639798,15174
1712156861453,599616103000304902,15327
1712156861461,599616103007970006,15325
1712156861468,599616103015635110,15301
1712156861476,599616103023300214,15292
1712156861484,599616103030965318,15274
1712156861491,599616103038630422,15306
1712156861499,599616103046295526,15390
1712156861507,599616103053960630,15392
1712156861513,599616103061625734,15271
1712156861521,599616103069290838,15169
1712156861529,599616103076955942,15153
1712156861537,599616103084621046,15174
1712156861545,599616103092286150,15248
1712156861553,599616103099951254,15283
1712156861560,599616103107616358,15069
1712156861568,599616103115281462,14837
1712156861576,599616103122946566,14832
1712156861583,599616103130611670,14825
1712156861591,599616103138276774,14739
1712156861599,599616103145941878,14790
1712156861606,599616103153606982,14797
1712156861614,599616103161272086,14567
1712156861622,599616103168937190,14446
1712156861629,599616103176602294,14460
1712156861637,599616103184267398,14416
1712156861645,599616103191932502,14521
1712156861652,599616103199597606,14505
1712156861660,599616103207262710,14028
1712156861668,599616103214927814,13745
1712156861675,599616103222592918,13801
1712156861683,599616103230258022,13696
1712156861691,599616103237923126,13580
1712156861697,599616103245588230,13615
1712156861705,599616103253253334,13675
1712156861713,599616103260918438,13891
1712156861721,599616103268583542,14000
1712156861729,599616103276248646,13496
1712156861737,599616103283913750,12980
1712156861744,599616103291578854,13011
1712156861752,599616103299243958,12943
1712156861760,599616103306909062,12671
1712156861767,599616103314574166,12613
1712156861775,599616103322239270,12511
1712156861783,599616103329904374,12327
1712156861790,599616103337569478,12327
1712156861798,599616103345234582,12237
1712156861806,599616103352899686,11902
1712156861813,599616103360564790,11698
1712156861821,599616103368229894,11675
1712156861829,599616103375894998,11607
1712156861836,599616103383560102,11510
1712156861844,599616103391225206,11421
1712156861852,599616103398890310,11287
1712156861859,599616103406555414,11119
1712156861867,599616103414220518,11019
1712156861875,599616103421885622,10992
1712156861881,599616103429550726,10915
1712156861889,599616103437215830,10787
1712156861897,599616103444880934,10689
1712156861905,599616103452546038,10573
1712156861913,599616103460211142,10457
1712156861921,599616103467876246,10439
1712156861928,599616103475541350,10392
1712156861936,599616103483206454,10192
1712156861944,599616103490871558,10027
1712156861951,599616103498536662,9920
1712156861959,599616103506201766,9693
1712156861967,599616103513866870,9477
1712156861974,599616103521531974,9333
1712156861982,599616103529197078,9158
1712156861990,599616103536862182,9047
1712156861997,599616103544527286,8949
1712156862005,599616103552222510,8784
1712156862013,599616103559887196,8701
1712156862020,599616103567551882,8647
1712156862028,599616103575216568,8494
1712156862036,599616103582881254,8422
1712156862043,599616103590545940,8403
1712156862051,599616103598210626,8224
1712156862059,599616103605875312,8062
1712156862065,599616103613539998,8004
1712156862073,599616103621204684,7885
1712156862081,599616103628869370,7813
1712156862089,599616103636534056,7820
1712156862097,599616103644198742,7664
1712156862105,599616103651863428,7458
1712156862112,599616103659528114,7388
1712156862120,599616103667192800,7295
1712156862128,599616103674857486,7195
1712156862135,599616103682522172,7186
1712156862143,599616103690186858,7158
1712156862151,599616103697851544,7063
1712156862158,599616103705516230,6870
1712156862166,599616103713180916,6637
1712156862174,599616103720845602,6570
1712156862181,599616103728510288,6582
1712156862189,599616103736174974,6503
1712156862197,599616103743839660,6398
1712156862204,599616103751504346,6326
1712156862212,599616103759169032,6247
1712156862220,599616103766833718,6182
1712156862227,599616103774498404,6157
1712156862235,599616103782163090,6112
1712156862243,599616103789827776,5999
1712156862249,599616103797492462,5871
1712156862257,599616103805157148,5785
1712156862265,599616103812821834,5734
1712156862273,599616103820486520,5703
1712156862281,599616103828151206,5706
1712156862289,599616103835815892,5678
1712156862296,599616103843480578,5511
1712156862304,599616103851145264,5315
1712156862312,599616103858809950,5262
1712156862319,599616103866474636,5243
1712156862327,599616103874139322,5195
1712156862335,599616103881804008,5157
1712156862342,599616103889468694,5053
1712156862350,599616103897133380,4923
1712156862358,599616103904798066,4879
1712156862365,599616103912462752,4830
1712156862373,599616103920127438,4848
1712156862381,599616103927792124,5160
1712156862388,599616103935456810,5464
1712156862396,599616103943121496,5190
1712156862404,599616103950786182,4623
1712156862411,599616103958450868,4493
1712156862419,599616103966115554,4567
1712156862427,599616103973780240,4407
1712156862433,599616103981444926,4244
1712156862441,599616103989109612,4186
1712156862449,599616103996774298,4131
1712156862457,599616104004438984,4091
1712156862465,599616104012103670,4070
1712156862473,599616104019768356,4052
1712156862480,599616104027433042,3979
1712156862488,599616104035097728,3842
1712156862496,599616104042762414,3773
1712156862503,599616104050427100,3805
1712156862511,599616104058091786,3815
1712156862519,599616104065756472,3773
1712156862526,599616104073421158,3733
1712156862534,599616104081085844,3682
1712156862542,599616104088750530,3582
1712156862549,599616104096415216,3501
1712156862557,599616104104079902,3480
1712156862565,599616104111714512,3468
1712156862572,599616104119379616,3452
1712156862580,599616104127044720,3392
1712156862588,599616104134709824,3264
1712156862595,599616104142374928,3183
1712156862603,599616104150040032,3148
1712156862611,599616104157705136,3052
1712156862617,599616104165370240,2966
1712156862625,599616104173035344,2867
1712156862633,599616104180700448,2667
1712156862641,599616104188365552,2513
1712156862649,599616104196030656,2502
1712156862657,599616104203695760,2446
1712156862664,599616104211360864,2253
1712156862672,599616104219025968,2100
1712156862680,599616104226691072,2084
1712156862687,599616104234356176,2084
1712156862695,599616104242021280,2067
1712156862703,599616104249686384,2100
1712156862710,599616104257351488,2128
1712156862718,599616104265016592,2091
1712156862726,599616104272681696,2035
1712156862733,599616104280346800,2026
1712156862741,599616104288011904,2053
1712156862749,599616104295677008,2067
1712156862756,599616104303342112,2056
1712156862764,599616104311007216,2056
1712156862772,599616104318672320,2081
1712156862779,599616104326337424,2072
1712156862787,599616104334002528,2005
1712156862795,599616104341667632,1953
1712156862801,599616104349332736,1960
1712156862809,599616104356997840,1960
1712156862817,599616104364662944,1940
1712156862825,599616104372328048,1923
1712156862833,599616104379993152,1926
1712156862841,599616104387658256,1933
1712156862848,599616104395323360,1905
1712156862856,599616104402988464,1884
1712156862864,599616104410653568,1909
1712156862871,599616104418318672,1914
1712156862879,599616104425983776,1884
1712156862887,599616104433648880,1893
1712156862894,599616104441313984,1877
1712156862902,599616104448979088,1805
1712156862910,599616104456644192,1814
1712156862917,599616104464309296,1861
1712156862925,599616104471974400,1849
1712156862932,599616104479639504,1844
1712156862940,599616104487304608,1844
1712156862948,599616104494969712,1809
1712156862955,599616104502634816,1805
1712156862963,599616104510299920,1812
1712156862971,599616104517965024,1770
1712156862977,599616104525630128,1740
1712156862985,599616104533295232,1751
1712156862993,599616104540960336,1747
1712156863001,599616104548625440,1721
1712156863009,599616104556290544,1698
1712156863017,599616104563955648,1747
1712156863024,599616104571620752,1988
1712156863032,599616104579285856,2274
1712156863040,599616104586950960,2121
1712156863047,599616104594616064,1631
1712156863055,599616104602281168,1489
1712156863063,599616104609946272,1593
1712156863070,599616104617611376,1498
1712156863078,599616104625276480,1368
1712156863086,599616104632941584,1338
1712156863093,599616104640606688,1305
1712156863101,599616104648271792,1287
1712156863109,599616104655936896,1303
1712156863116,599616104663602000,1289
1712156863124,599616104671237032,1240
1712156863132,599616104678902554,1219
1712156863139,599616104686568076,1226
1712156863147,599616104694233598,1243
1712156863155,599616104701899120,1261
1712156863161,599616104709564642,1219
1712156863169,599616104717230164,1103
1712156863177,599616104724895686,1038
1712156863185,599616104732561208,1075
1712156863193,599616104740226730,1110
1712156863201,599616104747892252,1133
1712156863208,599616104755557774,1131
1712156863216,599616104763223296,975
1712156863224,599616104770888818,785
1712156863231,599616104778554340,773
1712156863239,599616104786219862,838
1712156863247,599616104793885384,824
1712156863254,599616104801550906,759
1712156863262,599616104809216428,662
1712156863270,599616104816881950,522
1712156863277,599616104824547472,411
1712156863285,599616104832212994,367
1712156863293,599616104839878516,348
1712156863300,599616104847544038,313
1712156863308,599616104855209560,236
1712156863316,599616104862875082,174
1712156863323,599616104870540604,195
1712156863331,599616104878206126,250
1712156863339,599616104885871648,267
1712156863345,599616104893537170,278
1712156863353,599616104901202692,281
1712156863361,599616104908868214,269
1712156863369,599616104916533736,288
1712156863377,599616104924199258,311
1712156863385,599616104931864780,325
1712156863392,599616104939530302,348
1712156863400,599616104947195824,355
1712156863408,599616104954861346,320
1712156863415,599616104962526868,311
1712156863423,599616104970192390,362
1712156863431,599616104977857912,401
1712156863438,599616104985523434,397
1712156863446,599616104993188956,399
1712156863454,599616105000854478,404
1712156863461,599616105008520000,388
1712156863469,599616105016185522,399
1712156863477,599616105023851044,429
1712156863484,599616105031516566,422
1712156863492,599616105039182088,408
1712156863500,599616105046847610,413
1712156863507,599616105054513132,399
1712156863515,599616105062178654,367
1712156863523,599616105069844176,332
1712156863529,599616105077509698,313
1712156863537,599616105085175220,313
1712156863545,599616105092840742,309
1712156863553,599616105100506264,290
1712156863561,599616105108171786,295
1712156863569,599616105115837308,318
1712156863576,599616105123502830,325
1712156863584,599616105131168352,332
1712156863592,599616105138833874,357
1712156863599,599616105146499396,322
1712156863607,599616105154164918,213
1712156863615,599616105161830440,169
1712156863622,599616105169495962,218
1712156863630,599616105177161484,239
1712156863638,599616105184827006,248
1712156863645,599616105192492528,267
1712156863653,599616105200158050,241
1712156863661,599616105207823572,204
1712156863668,599616105215489094,283
1712156863676,599616105223154616,583
1712156863684,599616105230850262,985
1712156863691,599616105238515366,929
1712156863699,599616105246180470,332
1712156863707,599616105253845574,34
1712156863713,599616105261510678,190
1712156863721,599616105269175782,188
1712156863729,599616105276840886,106
1712156863737,599616105284505990,171
1712156863745,599616105292171094,127
1712156863753,599616105299836198,-34
1712156863760,599616105307501302,-99
1712156863768,599616105315166406,-111
1712156863776,599616105322831510,-118
1712156863783,599616105330496614,-69
1712156863791,599616105338161718,-44
1712156863799,599616105345826822,-113
1712156863806,599616105353491926,-162
1712156863814,599616105361157030,-127
1712156863822,599616105368822134,-78
1712156863829,599616105376487238,-16
1712156863837,599616105384152342,58
1712156863845,599616105391817446,81
1712156863852,599616105399482550,60
1712156863860,599616105407147654,67
1712156863868,599616105414812758,132
1712156863875,599616105422477862,202
1712156863883,599616105430142966,241
1712156863891,599616105437808070,271
1712156863897,599616105445473174,264
1712156863905,599616105453138278,216
1712156863913,599616105460803382,188
1712156863921,599616105468468486,171
1712156863929,599616105476133590,95
1712156863937,599616105483798694,-11
1712156863944,599616105491463798,-127
1712156863952,599616105499128902,-232
1712156863960,599616105506794006,-234
1712156863967,599616105514459110,-171
1712156863975,599616105522124214,-148
1712156863983,599616105529789318,-146
1712156863990,599616105537454422,-127
1712156863998,599616105545119526,-130
1712156864006,599616105552784630,-141
1712156864013,599616105560449734,-153
1712156864021,599616105568114838,-160
1712156864029,599616105575779942,-127
1712156864036,599616105583445046,-88
1712156864044,599616105591110150,-99
1712156864052,599616105598775254,-106
1712156864059,599616105606440358,-67
1712156864067,599616105614105462,-6
1712156864075,599616105621770566,44
1712156864081,599616105629435670,62
1712156864089,599616105637100774,39
1712156864097,599616105644765878,39
1712156864105,599616105652430982,85
1712156864113,599616105660096086,116
1712156864121,599616105667761190,132
1712156864128,599616105675426294,148
1712156864136,599616105683091398,102
1712156864144,599616105690756502,11
1712156864151,599616105698421606,13
1712156864159,599616105706086710,88
1712156864167,599616105713751814,125
1712156864174,599616105721416918,97
1712156864182,599616105729082022,13
1712156864190,599616105736747126,-20
1712156864197,599616105744412230,9
1712156864205,599616105752077334,32
1712156864213,599616105759742438,76
1712156864220,599616105767407542,141
1712156864228,599616105775072646,141
1712156864236,599616105782737750,111
1712156864243,599616105790372784,155
1712156864251,599616105798038306,225
1712156864259,599616105805703828,202
1712156864265,599616105813369350,139
1712156864273,599616105821034872,120
1712156864281,599616105828700394,76
1712156864289,599616105836365916,-18
1712156864297,599616105844031438,-37
1712156864305,599616105851696960,39
1712156864312,599616105859362482,78
1712156864320,599616105867028004,74
1712156864328,599616105874693526,39
1712156864335,599616105882359048,-55
1712156864343,599616105890024570,67
1712156864351,599616105897690092,578
1712156864358,599616105905355614,882
1712156864366,599616105913021136,497
1712156864374,599616105920686658,25
1712156864381,599616105928352180,18
1712156864389,599616105936017702,46
1712156864397,599616105943683224,-44
1712156864404,599616105951348746,-27
1712156864412,599616105959014268,0
1712156864420,599616105966679790,-18
1712156864427,599616105974345312,6
1712156864435,599616105982010834,39
1712156864443,599616105989676356,62
1712156864449,599616105997341878,106
1712156864457,599616106005007400,106
1712156864465,599616106012672922,58
1712156864473,599616106020338444,27
1712156864481,599616106028003966,-20
1712156864489,599616106035669488,-76
1712156864496,599616106043335010,-44
1712156864504,599616106051000532,-25
1712156864512,599616106058666054,-83
1712156864519,599616106066331576,-69
1712156864527,599616106073997098,-2
1712156864535,599616106081662620,4
1712156864542,599616106089328142,-6
1712156864550,599616106096993664,-25
1712156864558,599616106104659186,-41
1712156864565,599616106112324708,-34
1712156864573,599616106119990230,-62
1712156864581,599616106127655752,-106
1712156864588,599616106135321274,-104
1712156864596,599616106142986796,-111
1712156864604,599616106150652318,-155
1712156864611,599616106158317840,-178
1712156864619,599616106165983362,-185
1712156864627,599616106173648884,-216
1712156864633,599616106181314406,-246
1712156864641,599616106188979928,-257
1712156864649,599616106196645450,-257
1712156864657,599616106204310972,-236
1712156864665,599616106211976494,-206
1712156864673,599616106219642016,-178
1712156864680,599616106227307538,-218
1712156864688,599616106234973060,-318
1712156864695,599616106242638582,-299
1712156864703,599616106250304104,-192
1712156864711,599616106257969626,-153
1712156864718,599616106265635148,-176
1712156864726,599616106273300670,-227
1712156864734,599616106280966192,-253
1712156864741,599616106288631714,-204
1712156864749,599616106296297236,-169
1712156864757,599616106303962758,-202
1712156864764,599616106311628280,-192
1712156864772,599616106319293802,-167
1712156864780,599616106326959324,-181
1712156864787,599616106334624846,-153
1712156864795,599616106342290368,-88
1712156864803,599616106349955918,-44
1712156864809,599616106357621440,-4
1712156864817,599616106365286962,0
1712156864825,599616106372952484,-53
1712156864833,599616106380618006,-51
1712156864841,599616106388283528,20
1712156864849,599616106395949050,62
1712156864856,599616106403614572,95
1712156864864,599616106411280094,85
1712156864872,599616106418945616,-53
1712156864879,599616106426611138,-160
1712156864887,599616106434276660,-90
1712156864895,599616106441942182,-6
1712156864902,599616106449607704,30
1712156864910,599616106457273226,85
1712156864918,599616106464938748,102
1712156864925,599616106472604270,69
1712156864933,599616106480269792,90
1712156864941,599616106487935314,148
1712156864948,599616106495600836,195
1712156864956,599616106503266358,225
1712156864964,599616106510931880,211
1712156864971,599616106518597402,167
1712156864979,599616106526262924,116
1712156864987,599616106533928446,97
1712156864993,599616106541593968,267
1712156865001,599616106549259490,664
1712156865009,599616106556925012,850
1712156865017,599616106564590534,383
1712156865025,599616106572256056,-174
1712156865033,599616106579921578,-132
1712156865040,599616106587587100,46
1712156865048,599616106595252622,-23
1712156865056,599616106602918144,-44
1712156865063,599616106610583666,16
1712156865071,599616106618249188,13
1712156865079,599616106625914710,37
1712156865086,599616106633580232,120
1712156865094,599616106641245754,164
1712156865102,599616106648911276,171
1712156865109,599616106656576798,195
1712156865117,599616106664242320,204
1712156865125,599616106671907842,220
1712156865132,599616106679573364,271
1712156865140,599616106687238886,281
1712156865148,599616106694904408,227
1712156865155,599616106702569930,195
1712156865163,599616106710235452,178
1712156865171,599616106717900974,146
1712156865177,599616106725566496,137
1712156865185,599616106733232018,97
1712156865193,599616106740897540,16
1712156865201,599616106748563062,-2
1712156865209,599616106756228584,-6
1712156865217,599616106763894106,-58
1712156865224,599616106771559628,-30
1712156865232,599616106779225150,48
1712156865240,599616106786890672,23
1712156865247,599616106794556194,-65
1712156865255,599616106802221716,-104
1712156865263,599616106809887238,-127
1712156865270,599616106817552760,-146
1712156865278,599616106825218282,-130
1712156865286,599616106832883804,-120
1712156865293,599616106840549326,-104
1712156865301,599616106848214848,-53
1712156865309,599616106855880370,-25
1712156865316,599616106863545892,-18
1712156865324,599616106871211414,16
1712156865332,599616106878876936,60
1712156865339,599616106886542458,78
1712156865347,599616106894207980,102
1712156865355,599616106901873502,90
1712156865361,599616106909569148,23
1712156865369,599616106917234252,4
1712156865377,599616106924899356,37
1712156865385,599616106932564460,69
1712156865393,599616106940229564,123
1712156865401,599616106947894668,164
1712156865408,599616106955559772,162
1712156865416,599616106963224876,162
1712156865424,599616106970889980,178
1712156865431,599616106978555084,195
1712156865439,599616106986220188,220
1712156865447,599616106993885292,248
1712156865454,599616107001550396,206
1712156865462,599616107009215500,127
1712156865470,599616107016880604,120
1712156865477,599616107024545708,164
1712156865485,599616107032210812,174
1712156865493,599616107039875916,132
1712156865500,599616107047541020,81
1712156865508,599616107055206124,74
1712156865516,599616107062871228,97
1712156865523,599616107070536332,125
1712156865531,599616107078201436,162
1712156865539,599616107085866540,190
1712156865545,599616107093531644,185
1712156865553,599616107101196748,125
1712156865561,599616107108861852,67
1712156865569,599616107116526956,113
1712156865577,599616107124192060,197
1712156865585,599616107131857164,234
1712156865592,599616107139522268,267
1712156865600,599616107147187372,278
1712156865608,599616107154852476,241
1712156865615,599616107162517580,232
1712156865623,599616107170182684,278
1712156865631,599616107177847788,329
1712156865638,599616107185512892,369
1712156865646,599616107193177996,353
1712156865654,599616107200843100,267
1712156865661,599616107208508204,341
1712156865669,599616107216173308,782
1712156865677,599616107223838412,1252
1712156865684,599616107231503516,1089
1712156865692,599616107239168620,457
1712156865700,599616107246833724,195
1712156865707,599616107254498828,295
1712156865715,599616107262163932,230
1712156865723,599616107269829036,106
1712156865729,599616107277494140,125
1712156865737,599616107285159244,99
1712156865745,599616107292824348,-23
1712156865753,599616107300489452,-62
1712156865761,599616107308154556,0
1712156865769,599616107315819660,55
1712156865776,599616107323484764,83
1712156865784,599616107331149868,116
1712156865792,599616107338814972,116
1712156865799,599616107346480076,69
1712156865807,599616107354145180,81
1712156865815,599616107361810284,174
1712156865822,599616107369475388,239
1712156865830,599616107377140492,269
1712156865838,599616107384805596,297
1712156865845,599616107392470700,306
1712156865853,599616107400135804,327
1712156865861,599616107407800908,383
1712156865868,599616107415466012,436
1712156865876,599616107423131116,446
1712156865884,599616107430796220,408
1712156865891,599616107438461324,304
1712156865899,599616107446126428,183
1712156865907,599616107453791532,146
1712156865913,599616107461456636,174
1712156865921,599616107469121764,167
1712156865929,599616107476786868,109
1712156865937,599616107484451972,72
1712156865945,599616107492117076,62
1712156865953,599616107499782180,44
1712156865960,599616107507447284,34
1712156865968,599616107515112388,60
1712156865976,599616107522777492,58
1712156865983,599616107530442596,-20
1712156865991,599616107538107700,-141
1712156865999,599616107545772804,-178
1712156866006,599616107553437908,-106
1712156866014,599616107561103012,-48
1712156866022,599616107568768116,-53
1712156866029,599616107576433220,-30
1712156866037,599616107584098324,20
1712156866045,599616107591763428,27
1712156866052,599616107599428532,41
1712156866060,599616107607093636,90
1712156866068,599616107614758740,97
1712156866075,599616107622423844,88
1712156866083,599616107630088948,102
1712156866091,599616107637754052,65
1712156866097,599616107645419156,25
1712156866105,599616107653084260,74
1712156866113,599616107660749364,92
1712156866121,599616107668414468,81
1712156866129,599616107676079572,139
1712156866137,599616107683744676,176
1712156866144,599616107691409780,162
1712156866152,599616107699074884,185
1712156866160,599616107706739988,206
1712156866167,599616107714405092,209
1712156866175,599616107722070196,253
1712156866183,599616107729735300,288
1712156866190,599616107737400404,271
1712156866198,599616107745065508,216
1712156866206,599616107752730612,130
1712156866213,599616107760395716,85
1712156866221,599616107768060820,111
1712156866229,599616107775725924,99
1712156866236,599616107783391028,60
1712156866244,599616107791056132,74
1712156866252,599616107798721236,88
1712156866259,599616107806386340,74
1712156866267,599616107814051444,102
1712156866275,599616107821716548,134
1712156866281,599616107829381652,90
1712156866289,599616107837046756,25
1712156866297,599616107844711860,44
1712156866305,599616107852376964,85
1712156866313,599616107860042068,83
1712156866321,599616107867707172,76
1712156866328,599616107875372276,106
1712156866336,599616107883037380,313
1712156866344,599616107890702484,706
1712156866351,599616107898367588,796
1712156866359,599616107906032692,343
1712156866367,599616107913697796,6
1712156866374,599616107921362900,127
1712156866382,599616107929028004,141
1712156866390,599616107936693108,-90
1712156866397,599616107944358212,-120
1712156866405,599616107952023316,9
1712156866413,599616107959688420,39
1712156866420,599616107967353524,20
1712156866428,599616107975018628,-23
1712156866436,599616107982683732,-118
1712156866443,599616107990348836,-130
1712156866451,599616107998013940,-67
1712156866459,599616108005679044,-30
1712156866465,599616108013344148,-20
1712156866473,599616108021009252,-48
1712156866481,599616108028644284,-125
1712156866489,599616108036309806,-127
1712156866497,599616108043975328,-46
1712156866505,599616108051640850,9
1712156866512,599616108059306372,46
1712156866520,599616108066971894,72
1712156866527,599616108074637416,18
1712156866535,599616108082302938,-55
1712156866543,599616108089968460,-58
1712156866550,599616108097633982,-48
1712156866558,599616108105299504,-53
1712156866566,599616108112965026,-51
1712156866573,599616108120630548,-123
1712156866581,599616108128296070,-241
1712156866589,599616108135961592,-269
1712156866596,599616108143627114,-236
1712156866604,599616108151292636,-264
1712156866612,599616108158958158,-315
1712156866619,599616108166623680,-367
1712156866627,599616108174289202,-453
1712156866635,599616108181954724,-478
1712156866641,599616108189620246,-420
1712156866649,599616108197285768,-394
1712156866657,599616108204951290,-385
1712156866665,599616108212616812,-371
1712156866673,599616108220282334,-371
1712156866681,599616108227947856,-325
1712156866688,599616108235613378,-248
1712156866696,599616108243278900,-239
1712156866704,599616108250944422,-306
1712156866711,599616108258609944,-374
1712156866719,599616108266275466,-381
1712156866727,599616108273940988,-348
1712156866734,599616108281606510,-269
1712156866742,599616108289272032,-176
1712156866750,599616108296937554,-248
1712156866757,599616108304603076,-357
1712156866765,599616108312268598,-271
1712156866773,599616108319934120,-164
1712156866780,599616108327599642,-176
1712156866788,599616108335265164,-157
1712156866796,599616108342930686,-90
1712156866803,599616108350596208,-83
1712156866811,599616108358261730,-106
1712156866819,599616108365927252,-106
1712156866825,599616108373592774,-130
1712156866833,599616108381258296,-120
1712156866841,599616108388923818,-69
1712156866849,599616108396589340,-46
1712156866857,599616108404254862,-30
1712156866865,599616108411920384,-9
1712156866872,599616108419585906,-2
1712156866880,599616108427251428,25
1712156866888,599616108434916950,62
1712156866895,599616108442582472,58
1712156866903,599616108450247994,72
1712156866911,599616108457913516,123
1712156866918,599616108465579038,125
1712156866926,599616108473244560,113
1712156866934,599616108480910082,134
1712156866941,599616108488575604,137
1712156866949,599616108496241126,125
1712156866957,599616108503906648,134
1712156866964,599616108511572170,102
1712156866972,599616108519237692,20
1712156866980,599616108526903214,53
1712156866987,599616108534568736,367
1712156866995,599616108542234258,764
1712156867003,599616108549899780,713
1712156867009,599616108557565302,195
1712156867017,599616108565230824,-104
1712156867025,599616108572896346,-60
1712156867033,599616108580561868,-104
1712156867041,599616108588257514,-178
1712156867049,599616108595922618,-116
1712156867056,599616108603587722,-55
1712156867064,599616108611252826,-67
1712156867072,599616108618917930,-72
1712156867079,599616108626583034,-55
1712156867087,599616108634248138,-39
1712156867095,599616108641913242,-20
1712156867102,599616108649578346,11
1712156867110,599616108657243450,11
1712156867118,599616108664908554,-62
1712156867125,599616108672573658,-130
1712156867133,599616108680238762,-139
1712156867141,599616108687903866,-106
1712156867148,599616108695568970,-65
1712156867156,599616108703234074,-62
1712156867164,599616108710899178,-123
1712156867171,599616108718564282,-174
1712156867179,599616108726229386,-171
1712156867187,599616108733894490,-167
1712156867193,599616108741559594,-183
1712156867201,599616108749224698,-236
1712156867209,599616108756889802,-357
1712156867217,599616108764554906,-455
1712156867225,599616108772220010,-432
1712156867233,599616108779885114,-367
1712156867240,599616108787550218,-353
1712156867248,599616108795215322,-346
1712156867256,599616108802880426,-371
1712156867263,599616108810545530,-446
1712156867271,599616108818210634,-455
1712156867279,599616108825875738,-388
1712156867286,599616108833540842,-329
1712156867294,599616108841205946,-290
1712156867302,599616108848871050,-269
1712156867309,599616108856536154,-295
1712156867317,599616108864201258,-304
1712156867325,599616108871866362,-253
1712156867332,599616108879531466,-188
1712156867340,599616108887196570,-157
1712156867348,599616108894861674,-164
1712156867355,599616108902526778,-236
1712156867363,599616108910191882,-299
1712156867371,599616108917856986,-253
1712156867377,599616108925522090,-185
1712156867385,599616108933187194,-160
1712156867393,599616108940852298,-137
1712156867401,599616108948517402,-127
1712156867409,599616108956182506,-125
1712156867417,599616108963847610,-120
1712156867424,599616108971512714,-109
1712156867432,599616108979177818,-60
1712156867440,599616108986842922,-2
1712156867447,599616108994508026,18
1712156867455,599616109002173130,11
1712156867463,599616109009838234,-11
1712156867470,599616109017503338,-9
1712156867478,599616109025168442,51
1712156867486,599616109032833546,72
1712156867493,599616109040498650,-23
1712156867501,599616109048163754,-123
1712156867509,599616109055828858,-141
1712156867516,599616109063493962,-104
1712156867524,599616109071159066,-55
1712156867532,599616109078824170,-25
1712156867539,599616109086489274,-9
1712156867547,599616109094154378,2
1712156867555,599616109101819482,18
1712156867561,599616109109484586,62
1712156867569,599616109117149690,106
1712156867577,599616109124814794,130
1712156867585,599616109132479898,144
1712156867593,599616109140145002,146
1712156867601,599616109147780034,134
1712156867608,599616109155445556,160
1712156867616,599616109163111078,204
1712156867624,599616109170776600,209
1712156867631,599616109178442122,167
1712156867639,599616109186107644,111
1712156867647,599616109193773166,99
1712156867654,599616109201438688,336
1712156867662,599616109209104210,778
1712156867670,599616109216769732,762
1712156867677,599616109224435254,183
1712156867685,599616109232100776,-106
1712156867693,599616109239766298,-27
1712156867700,599616109247431820,-176
1712156867708,599616109255097342,-388
1712156867716,599616109262762864,-355
1712156867723,599616109270428386,-299
1712156867731,599616109278093908,-315
1712156867739,599616109285759430,-283
1712156867745,599616109293424952,-236
1712156867753,599616109301090474,-227
1712156867761,599616109308755996,-192
1712156867769,599616109316421518,-148
1712156867777,599616109324087040,-111
1712156867785,599616109331752562,-62
1712156867792,599616109339418084,-37
1712156867800,599616109347083606,-37
1712156867808,599616109354749128,-9
1712156867815,599616109362414650,37
1712156867823,599616109370080172,51
1712156867831,599616109377745694,55
1712156867838,599616109385411216,97
1712156867846,599616109393076738,106
1712156867854,599616109400742260,30
1712156867861,599616109408407782,-34
1712156867869,599616109416073304,-46
1712156867877,599616109423738826,-44
1712156867884,599616109431404348,-44
1712156867892,599616109439069870,-92
1712156867900,599616109446735392,-185
1712156867907,599616109454400914,-223
1712156867915,599616109462066436,-218
1712156867923,599616109469731958,-211
1712156867929,599616109477397480,-216
1712156867937,599616109485063002,-278
1712156867945,599616109492728524,-353
1712156867953,599616109500394046,-376
1712156867961,599616109508059568,-392
1712156867969,599616109515725090,-392
1712156867976,599616109523390612,-353
1712156867984,599616109531056134,-313
1712156867992,599616109538721656,-299
1712156867999,599616109546387178,-325
1712156868007,599616109554052700,-350
1712156868015,599616109561718222,-309
1712156868022,599616109569383744,-246
1712156868030,599616109577049266,-234
1712156868038,599616109584714788,-285
1712156868045,599616109592380310,-355
1712156868053,599616109600045832,-355
1712156868061,599616109607711354,-281
1712156868068,599616109615376876,-204
1712156868076,599616109623042398,-153
1712156868084,599616109630707920,-155
1712156868091,599616109638373442,-206
1712156868099,599616109646038964,-174
1712156868107,599616109653704486,-51
1712156868113,599616109661370008,-2
1712156868121,599616109669035530,-30
1712156868129,599616109676701052,-48
1712156868137,599616109684366574,-53
1712156868145,599616109692032096,-41
1712156868153,599616109699697618,0
1712156868160,599616109707393266,60
1712156868168,599616109715058370,106
1712156868176,599616109722723474,102
1712156868183,599616109730388578,0
1712156868191,599616109738053682,-113
1712156868199,599616109745718786,-127
1712156868206,599616109753383890,-169
1712156868214,599616109761048994,-288
1712156868222,599616109768714098,-353
1712156868229,599616109776379202,-383
1712156868237,599616109784044306,-455
1712156868245,599616109791709410,-464
1712156868252,599616109799374514,-367
1712156868260,599616109807039618,-290
1712156868268,599616109814704722,-292
1712156868275,599616109822369826,-318
1712156868283,599616109830034930,-327
1712156868291,599616109837700034,-302
1712156868297,599616109845365138,-97
1712156868305,599616109853030242,329
1712156868313,599616109860695346,541
1712156868321,599616109868360450,183
1712156868329,599616109876025554,-211
1712156868337,599616109883690658,-202
1712156868344,599616109891355762,-171
1712156868352,599616109899020866,-232
1712156868360,599616109906685970,-188
1712156868367,599616109914351074,-151
1712156868375,599616109922016178,-183
1712156868383,599616109929681282,-190
1712156868390,599616109937346386,-185
1712156868398,599616109945011490,-197
1712156868406,599616109952676594,-188
1712156868413,599616109960341698,-151
1712156868421,599616109968006802,-125
1712156868429,599616109975671906,-148
1712156868436,599616109983337010,-204
1712156868444,599616109991002114,-230
1712156868452,599616109998667218,-241
1712156868459,599616110006332322,-255
1712156868467,599616110013997426,-239
1712156868475,599616110021662530,-220
1712156868481,599616110029327634,-225
1712156868489,599616110036992738,-197
1712156868497,599616110044657842,-155
1712156868505,599616110052322946,-157
1712156868513,599616110059988050,-155
1712156868521,599616110067653154,-211
1712156868528,599616110075318258,-332
1712156868536,599616110082983362,-318
1712156868544,599616110090648466,-220
1712156868551,599616110098313570,-220
1712156868559,599616110105978674,-274
1712156868567,599616110113643778,-302
1712156868574,599616110121308882,-334
1712156868582,599616110128973986,-394
1712156868589,599616110136639090,-422
1712156868597,599616110144304194,-385
1712156868605,599616110151969298,-355
1712156868612,599616110159634402,-315
1712156868620,599616110167299506,-236
1712156868628,599616110174964610,-230
1712156868635,599616110182629714,-288
1712156868643,599616110190294818,-260
1712156868651,599616110197959922,-192
1712156868657,599616110205625026,-164
1712156868665,599616110213290130,-137
1712156868673,599616110220955234,-92
1712156868681,599616110228620338,-60
1712156868689,599616110236285442,-72
1712156868697,599616110243950546,-88
1712156868704,599616110251615650,-85
1712156868712,599616110259280754,-134
1712156868720,599616110266930834,-253
1712156868727,599616110274596147,-318
1712156868735,599616110282261460,-274
1712156868743,599616110289926773,-204
1712156868750,599616110297592086,-137
1712156868758,599616110305257399,-113
1712156868766,599616110312922712,-174
1712156868773,599616110320588025,-253
1712156868781,599616110328253338,-260
1712156868789,599616110335918651,-183
1712156868796,599616110343583964,-95
1712156868804,599616110351249277,-69
1712156868812,599616110358914590,-137
1712156868819,599616110366579903,-234
1712156868827,599616110374245216,-271
1712156868835,599616110381910529,-218
1712156868841,599616110389575842,-106
1712156868849,599616110397241155,9
1712156868857,599616110404906468,53
1712156868865,599616110412571781,13
1712156868873,599616110420237094,-4
1712156868881,599616110427902407,25
1712156868888,599616110435567720,44
1712156868896,599616110443233033,62
1712156868904,599616110450898346,123
1712156868911,599616110458563659,162
1712156868919,599616110466228972,95
1712156868927,599616110473894285,32
1712156868934,599616110481559598,34
1712156868942,599616110489224911,-16
1712156868950,599616110496890224,2
1712156868957,599616110504555537,350
1712156868965,599616110512220850,771
1712156868973,599616110519886163,636
1712156868980,599616110527551476,83
1712156868988,599616110535216789,-95
1712156868996,599616110542882102,41
1712156869003,599616110550547415,-34
1712156869011,599616110558212728,-176
1712156869019,599616110565878041,-141
1712156869025,599616110573543354,-72
1712156869033,599616110581208667,-92
1712156869041,599616110588873980,-83
1712156869049,599616110596539293,-11
1712156869057,599616110604204606,-9
1712156869065,599616110611869919,-27
1712156869072,599616110619535232,9
1712156869080,599616110627200545,58
1712156869088,599616110634865858,92
1712156869095,599616110642531171,81
1712156869103,599616110650196484,39
1712156869111,599616110657861797,-23
1712156869118,599616110665527110,-109
1712156869126,599616110673192423,-85
1712156869134,599616110680857736,48
1712156869141,599616110688523049,141
1712156869149,599616110696188362,144
1712156869157,599616110703853675,72
1712156869164,599616110711518988,16
1712156869172,599616110719184301,11
1712156869180,599616110726849614,-13
1712156869187,599616110734514927,-81
1712156869195,599616110742180240,-137
1712156869203,599616110749845553,-155
1712156869209,599616110757510866,-197
1712156869217,599616110765176179,-292
1712156869225,599616110772841492,-374
1712156869233,599616110780506805,-388
1712156869241,599616110788172118,-392
1712156869249,599616110795837431,-408
1712156869256,599616110803502744,-420
1712156869264,599616110811168057,-439
1712156869272,599616110818833370,-401
1712156869279,599616110826498708,-343
1712156869287,599616110834164021,-313
1712156869295,599616110841829334,-283
1712156869302,599616110849494647,-302
1712156869310,599616110857159960,-339
1712156869318,599616110864825273,-283
1712156869325,599616110872490586,-227
1712156869333,599616110880155899,-264
1712156869341,599616110887821212,-281
1712156869348,599616110895486525,-246
1712156869356,599616110903151838,-274
1712156869364,599616110910817151,-309
1712156869371,599616110918482464,-234
1712156869379,599616110926147777,-157
1712156869387,599616110933813090,-162
1712156869393,599616110941478403,-157
1712156869401,599616110949143716,-139
1712156869409,599616110956809029,-132
1712156869417,599616110964474342,-76
1712156869425,599616110972139655,-32
1712156869433,599616110979804968,-76
1712156869440,599616110987470281,-132
1712156869448,599616110995135594,-176
1712156869456,599616111002800907,-225
1712156869463,599616111010466220,-223
1712156869471,599616111018131533,-183
1712156869479,599616111025796846,-160
1712156869486,599616111033462159,-123
1712156869494,599616111041127472,-69
1712156869502,599616111048792785,-44
1712156869509,599616111056458098,-41
1712156869517,599616111064123411,-37
1712156869525,599616111071788724,-23
1712156869532,599616111079454037,9
1712156869540,599616111087119350,83
1712156869548,599616111094784663,125
1712156869555,599616111102449976,41
1712156869563,599616111110115289,-9
1712156869571,599616111117780602,58
1712156869577,599616111125445915,155
1712156869585,599616111133111228,199
1712156869593,599616111140776541,164
1712156869601,599616111148441854,285
1712156869609,599616111156107167,673
1712156869617,599616111163772480,940
1712156869624,599616111171437793,680
1712156869632,599616111179103106,204
1712156869640,599616111186768419,113
1712156869647,599616111194433732,144
1712156869655,599616111202099045,13
1712156869663,599616111209764358,13
1712156869670,599616111217429671,39
1712156869678,599616111225094984,-78
1712156869686,599616111232760297,-106
1712156869693,599616111240425610,-16
1712156869701,599616111248090923,-67
1712156869709,599616111255756236,-197
1712156869716,599616111263421549,-183
1712156869724,599616111271086862,-132
1712156869732,599616111278752175,-144
1712156869739,599616111286417488,-164
1712156869747,599616111294082801,-171
1712156869755,599616111301748114,-132
1712156869761,599616111309413427,-76
1712156869769,599616111317078740,-32
1712156869777,599616111324744053,51
1712156869785,599616111332409366,65
1712156869793,599616111340074679,-32
1712156869801,599616111347739992,-20
1712156869808,599616111355405305,85
1712156869816,599616111363070618,118
1712156869824,599616111370735931,157
1712156869831,599616111378401244,209
1712156869839,599616111386081632,74
1712156869847,599616111393746736,-116
1712156869854,599616111401411840,-88
1712156869862,599616111409076944,-95
1712156869870,599616111416742048,-304
1712156869877,599616111424407152,-334
1712156869885,599616111432072256,-255
1712156869893,599616111439737360,-429
1712156869900,599616111447402464,-594
1712156869908,599616111455067568,-520
1712156869916,599616111462732672,-457
1712156869923,599616111470397776,-480
1712156869931,599616111478062880,-513
1712156869939,599616111485727984,-590
1712156869945,599616111493393088,-608
1712156869953,599616111501058192,-464
1712156869961,599616111508723296,-376
1712156869969,599616111516388400,-436
1712156869977,599616111524053504,-411
1712156869985,599616111531718608,-362
1712156869992,599616111539383712,-443
1712156870000,599616111547048816,-471
1712156870008,599616111554713920,-357
1712156870015,599616111562379024,-306
1712156870023,599616111570044128,-422
1712156870031,599616111577709232,-487
1712156870038,599616111585374336,-367
1712156870046,599616111593039440,-264
1712156870054,599616111600704544,-257
1712156870061,599616111608369648,-236
1712156870069,599616111616034752,-216
1712156870077,599616111623699856,-176
1712156870084,599616111631364960,-127
1712156870092,599616111639030064,-134
1712156870100,599616111646695168,-137
1712156870107,599616111654360272,-120
1712156870115,599616111662025376,-144
1712156870123,599616111669690480,-120
1712156870129,599616111677355584,-39
1712156870137,599616111685020688,-20
1712156870145,599616111692685792,-20
1712156870153,599616111700350896,37
1712156870161,599616111708016000,41
1712156870169,599616111715681104,-76
1712156870176,599616111723346208,-178
1712156870184,599616111731011312,-232
1712156870192,599616111738676416,-292
1712156870199,599616111746341520,-290
1712156870207,599616111754006624,-246
1712156870215,599616111761671728,-195
1712156870222,599616111769336832,-32
1712156870230,599616111777001936,216
1712156870238,599616111784667040,255
1712156870245,599616111792332144,-76
1712156870253,599616111799997248,-325
1712156870261,599616111807662352,-202
1712156870268,599616111815327456,-120
1712156870276,599616111822992560,-153
1712156870284,599616111830657664,-120
1712156870291,599616111838322768,-153
1712156870299,599616111845987872,-190
1712156870307,599616111853652976,-97
1712156870313,599616111861318080,-32
1712156870321,599616111868983184,-53
1712156870329,599616111876648288,-58
1712156870337,599616111884313392,-83
1712156870345,599616111891978496,-151
1712156870353,599616111899643600,-139
1712156870360,599616111907308704,-11
1712156870368,599616111914973808,67
1712156870375,599616111922638912,-4
1712156870383,599616111930304016,-132
1712156870391,599616111937969120,-153
1712156870398,599616111945604152,-27
1712156870406,599616111953269674,81
1712156870414,599616111960935196,48
1712156870421,599616111968600718,-88
1712156870429,599616111976266240,-192
1712156870437,599616111983931762,-157
1712156870444,599616111991597284,-34
1712156870452,599616111999262806,58
1712156870460,599616112006928328,51
1712156870467,599616112014593850,-18
1712156870475,599616112022259372,-157
1712156870483,599616112029924894,-336
1712156870489,599616112037590416,-213
1712156870497,599616112045255938,13
1712156870505,599616112052921460,-197
1712156870513,599616112060586982,-448
1712156870521,599616112068252504,-448
1712156870529,599616112075918026,-499
1712156870536,599616112083583548,-480
1712156870544,599616112091249070,-378
1712156870552,599616112098914592,-469
1712156870559,599616112106580114,-490
1712156870567,599616112114245636,-271
1712156870575,599616112121911158,-195
1712156870582,599616112129576680,-274
1712156870590,599616112137242202,-220
1712156870598,599616112144907724,-85
1712156870605,599616112152573246,-69
1712156870613,599616112160238768,-139
1712156870621,599616112167904290,-174
1712156870628,599616112175569812,-153
1712156870636,599616112183235334,-74
1712156870644,599616112190900856,4
1712156870651,599616112198566378,9
1712156870659,599616112206231900,9
1712156870667,599616112213897422,-6
1712156870673,599616112221562944,-78
1712156870681,599616112229228466,-58
1712156870689,599616112236893988,18
1712156870697,599616112244559510,11
1712156870705,599616112252225032,4
1712156870713,599616112259890554,20
1712156870720,599616112267556076,-65
1712156870728,599616112275221598,-202
1712156870736,599616112282887120,-232
1712156870743,599616112290552642,-192
1712156870751,599616112298218164,-157
1712156870759,599616112305883686,-111
1712156870766,599616112313549208,-53
1712156870774,599616112321214730,-55
1712156870782,599616112328880252,-106
1712156870789,599616112336545774,-78
1712156870797,599616112344211296,-27
1712156870805,599616112351876818,-9
1712156870812,599616112359542340,69
1712156870820,599616112367207862,139
1712156870828,599616112374873384,109
1712156870835,599616112382538906,127
1712156870843,599616112390204428,309
1712156870851,599616112397869950,662
1712156870857,599616112405535472,920
1712156870865,599616112413200994,618
1712156870873,599616112420866516,132
1712156870881,599616112428532038,146
1712156870889,599616112436197560,320
1712156870897,599616112443863082,225
1712156870904,599616112451528604,74
1712156870912,599616112459194126,9
1712156870920,599616112466859648,-27
1712156870927,599616112474525170,-23
1712156870935,599616112482190692,27
1712156870943,599616112489856214,48
1712156870950,599616112497521736,65
1712156870958,599616112505217382,134
1712156870966,599616112512882486,202
1712156870973,599616112520547590,171
1712156870981,599616112528212694,118
1712156870989,599616112535877798,102
1712156870996,599616112543542902,48
1712156871004,599616112551208006,51
1712156871012,599616112558873110,69
1712156871019,599616112566538214,-67
1712156871027,599616112574203318,-157
1712156871035,599616112581868422,-58
1712156871041,599616112589533526,30
1712156871049,599616112597198630,102
1712156871057,599616112604863734,153
1712156871065,599616112612528838,55
1712156871073,599616112620193942,-39
1712156871081,599616112627859046,-65
1712156871088,599616112635524150,-99
1712156871096,599616112643189254,-34
1712156871104,599616112650854358,25
1712156871111,599616112658519462,-125
1712156871119,599616112666184566,-283
1712156871127,599616112673849670,-257
1712156871134,599616112681514774,-132
1712156871142,599616112689179878,-30
1712156871150,599616112696844982,-60
1712156871157,599616112704510086,-199
1712156871165,599616112712175190,-264
1712156871173,599616112719840294,-246
1712156871180,599616112727505398,-234
1712156871188,599616112735170502,-162
1712156871196,599616112742835606,-130
1712156871203,599616112750500710,-253
1712156871211,599616112758165814,-306
1712156871219,599616112765830918,-225
1712156871225,599616112773496022,-199
1712156871233,599616112781161126,-257
1712156871241,599616112788826230,-320
1712156871249,599616112796491334,-353
1712156871257,599616112804156438,-413
1712156871265,599616112811821542,-450
1712156871272,599616112819486646,-371
1712156871280,599616112827151750,-292
1712156871288,599616112834816854,-271
1712156871295,599616112842481958,-206
1712156871303,599616112850147062,-151
1712156871311,599616112857812166,-197
1712156871318,599616112865477270,-257
1712156871326,599616112873142374,-218
1712156871334,599616112880807478,-116
1712156871341,599616112888472582,-44
1712156871349,599616112896137686,-25
1712156871357,599616112903802790,6
1712156871364,599616112911467894,72
1712156871372,599616112919132998,78
1712156871380,599616112926798102,53
1712156871387,599616112934463206,111
1712156871395,599616112942128310,185
1712156871403,599616112949793414,134
1712156871409,599616112957458518,27
1712156871417,599616112965123622,44
1712156871425,599616112972788726,148
1712156871433,599616112980453830,195
1712156871441,599616112988118934,169
1712156871449,599616112995784038,113
1712156871456,599616113003449142,48
1712156871464,599616113011114246,148
1712156871472,599616113018779350,573
1712156871479,599616113026444454,985
1712156871487,599616113034109558,764
1712156871495,599616113041774662,167
1712156871502,599616113049439766,20
1712156871510,599616113057104870,139
1712156871518,599616113064770000,90
1712156871525,599616113072435104,99
1712156871533,599616113080100208,174
1712156871541,599616113087765312,118
1712156871548,599616113095430416,13
1712156871556,599616113103095520,-23
1712156871564,599616113110760624,41
1712156871571,599616113118425728,130
1712156871579,599616113126090832,132
1712156871587,599616113133755936,88
1712156871593,599616113141421040,39
1712156871601,599616113149086144,-20
1712156871609,599616113156751248,-30
1712156871617,599616113164416352,30
1712156871625,599616113172081456,74
1712156871633,599616113179746560,53
1712156871640,599616113187411664,-4
1712156871648,599616113195076768,-58
1712156871656,599616113202741872,-69
1712156871663,599616113210406976,-4
1712156871671,599616113218072080,69
1712156871679,599616113225737184,76
1712156871686,599616113233402288,58
1712156871694,599616113241067392,20
1712156871702,599616113248732496,-13
1712156871709,599616113256397600,76
1712156871717,599616113264062704,188
1712156871725,599616113271727808,164
1712156871732,599616113279392912,118
1712156871740,599616113287058016,118
1712156871748,599616113294723120,32
1712156871755,599616113302388224,-125
1712156871763,599616113310053328,-183
1712156871771,599616113317718432,-153
1712156871777,599616113325383536,-116
1712156871785,599616113333048640,-46
1712156871793,599616113340713744,-53
1712156871801,599616113348378848,-157
1712156871809,599616113356043952,-197
1712156871817,599616113363709056,-199
1712156871824,599616113371374160,-248
1712156871832,599616113379039264,-202
1712156871840,599616113386704368,-69
1712156871847,599616113394369472,-109
1712156871855,599616113402034576,-327
1712156871863,599616113409699680,-408
1712156871870,599616113417364784,-271
1712156871878,599616113425029888,-141
1712156871886,599616113432694992,-113
1712156871893,599616113440360096,-141
1712156871901,599616113448025200,-204
1712156871909,599616113455690304,-188
1712156871916,599616113463355408,-58
1712156871924,599616113471020512,13
1712156871932,599616113478685616,-4
1712156871939,599616113486350720,-18
1712156871947,599616113494015824,-39
1712156871955,599616113501680928,-55
1712156871961,599616113509346032,-9
1712156871969,599616113517011136,44
1712156871977,599616113524676240,81
1712156871985,599616113532341344,81
1712156871993,599616113540006448,-6
1712156872001,599616113547671552,-95
1712156872008,599616113555336656,-116
1712156872016,599616113563001760,-83
1712156872024,599616113570666864,-20
1712156872031,599616113578331968,9
1712156872039,599616113585997072,2
1712156872047,599616113593662176,2
1712156872054,599616113601327280,20
1712156872062,599616113608992384,51
1712156872070,599616113616657488,88
1712156872077,599616113624322616,216
1712156872085,599616113631987720,511
1712156872093,599616113639652824,759
1712156872100,599616113647317928,564
1712156872108,599616113654983032,139
1712156872116,599616113662648136,97
1712156872123,599616113670313240,204
1712156872131,599616113677978344,48
1712156872139,599616113685643448,-74
1712156872145,599616113693308552,-20
1712156872153,599616113700973656,16
1712156872161,599616113708638760,18
1712156872169,599616113716303864,41
1712156872177,599616113723968968,-20
1712156872184,599616113731634072,-216
1712156872192,599616113739299176,-295
1712156872200,599616113746964280,-164
1712156872207,599616113754629384,-81
1712156872215,599616113762294488,-69
1712156872223,599616113769959592,-16
1712156872230,599616113777624696,11
1712156872238,599616113785289800,-2
1712156872246,599616113792954904,0
1712156872253,599616113800620008,-20
1712156872261,599616113808285112,-44
1712156872269,599616113815950216,-13
1712156872276,599616113823615320,-20
1712156872284,599616113831280424,-58
1712156872292,599616113838945528,-46
1712156872299,599616113846610632,-55
1712156872307,599616113854275736,-39
1712156872315,599616113861940840,13
1712156872321,599616113869605944,-46
1712156872329,599616113877271048,-162
1712156872337,599616113884936152,-185
1712156872345,599616113892601256,-171
1712156872353,599616113900266360,-174
1712156872361,599616113907931464,-160
1712156872368,599616113915596568,-141
1712156872376,599616113923261672,-157
1712156872384,599616113930926776,-188
1712156872391,599616113938591880,-206
1712156872399,599616113946256984,-183
1712156872407,599616113953922088,-132
1712156872414,599616113961587192,-109
1712156872422,599616113969252296,-104
1712156872430,599616113976917400,-106
1712156872437,599616113984582504,-116
1712156872445,599616113992247608,-83
1712156872453,599616113999912712,-41
1712156872460,599616114007577816,-53
1712156872468,599616114015242920,-76
1712156872476,599616114022908024,-102
1712156872483,599616114030573128,-174
1712156872491,599616114038238232,-209
1712156872499,599616114045903336,-178
1712156872505,599616114053568440,-151
1712156872513,599616114061233544,-139
1712156872521,599616114068898648,-195
1712156872529,599616114076563752,-299
1712156872537,599616114084228856,-311
1712156872545,599616114091893960,-285
1712156872552,599616114099559064,-288
1712156872560,599616114107224168,-246
1712156872568,599616114114889272,-190
1712156872575,599616114122554376,-181
1712156872583,599616114130219480,-139
1712156872591,599616114137884584,-65
1712156872598,599616114145549688,-58
1712156872606,599616114153214792,-55
1712156872614,599616114160879896,-2
1712156872621,599616114168545000,11
1712156872629,599616114176210104,-46
1712156872637,599616114183875232,-118
1712156872644,599616114191540336,-155
1712156872652,599616114199205440,-139
1712156872660,599616114206870544,-99
1712156872667,599616114214535648,-130
1712156872675,599616114222200752,-199
1712156872683,599616114229865856,-27
1712156872689,599616114237530960,448
1712156872697,599616114245196064,699
1712156872705,599616114252861168,327
1712156872713,599616114260526272,-132
1712156872721,599616114268191376,-188
1712156872729,599616114275856480,-181
1712156872736,599616114283521584,-248
1712156872744,599616114291186688,-181
1712156872752,599616114298851792,-90
1712156872759,599616114306516896,-157
1712156872767,599616114314182000,-281
1712156872775,599616114321847104,-269
1712156872782,599616114329512208,-153
1712156872790,599616114337177312,-78
1712156872798,599616114344842416,-76
1712156872805,599616114352507520,-106
1712156872813,599616114360172624,-102
1712156872821,599616114367837728,-62
1712156872828,599616114375502832,-55
1712156872836,599616114383167936,-58
1712156872844,599616114390833040,-6
1712156872851,599616114398498144,55
1712156872859,599616114406163248,76
1712156872867,599616114413828352,34
1712156872873,599616114421493456,-39
1712156872881,599616114429158560,-78
1712156872889,599616114436823664,-65
1712156872897,599616114444488768,0
1712156872905,599616114452153872,102
1712156872913,599616114459818976,151
1712156872920,599616114467484080,92
1712156872928,599616114475149184,44
1712156872936,599616114482814288,51
1712156872943,599616114490479392,6
1712156872951,599616114498144496,-46
1712156872959,599616114505809600,-48
1712156872966,599616114513474704,-72
1712156872974,599616114521139808,-88
1712156872982,599616114528804912,-60
1712156872989,599616114536470016,-32
1712156872997,599616114544135120,11
1712156873005,599616114551800224,6
1712156873012,599616114559465328,-113
1712156873020,599616114567130432,-183
1712156873028,599616114574795536,-109
1712156873035,599616114582460640,-32
1712156873043,599616114590125744,4
1712156873051,599616114597790848,-6
1712156873057,599616114605455952,-72
1712156873065,599616114613121056,-60
1712156873073,599616114620786160,30
1712156873081,599616114628451264,51
1712156873089,599616114636116368,51
1712156873097,599616114643781472,92
1712156873104,599616114651446576,78
1712156873112,599616114659111680,27
1712156873120,599616114666776784,2
1712156873127,599616114674441888,-65
1712156873135,599616114682106992,-120
1712156873143,599616114689772096,-88
1712156873150,599616114697437200,-90
1712156873158,599616114705102304,-151
1712156873166,599616114712767408,-148
1712156873173,599616114720432512,-111
1712156873181,599616114728097616,-90
1712156873189,599616114735762720,-83
1712156873196,599616114743427848,-92
1712156873204,599616114751092952,-125
1712156873212,599616114758758056,-169
1712156873219,599616114766423160,-162
1712156873227,599616114774088264,-106
1712156873235,599616114781753368,-95
1712156873241,599616114789418472,-116
1712156873249,599616114797083576,-134
1712156873257,599616114804748680,-199
1712156873265,599616114812413784,-292
1712156873273,599616114820078888,-325
1712156873281,599616114827743992,-299
1712156873288,599616114835409096,-295
1712156873296,599616114843074200,-218
1712156873304,599616114850739304,164
1712156873311,599616114858404408,620
1712156873319,599616114866069512,497
1712156873327,599616114873734616,-48
1712156873334,599616114881399720,-225
1712156873342,599616114889064824,-127
1712156873350,599616114896729928,-171
1712156873357,599616114904395032,-197
1712156873365,599616114912060136,-141
1712156873373,599616114919725240,-137
1712156873380,599616114927390344,-162
1712156873388,599616114935055448,-141
1712156873396,599616114942720552,-78
1712156873403,599616114950385656,-85
1712156873411,599616114958050760,-181
1712156873419,599616114965715864,-197
1712156873425,599616114973380968,-120
1712156873433,599616114981046072,-46
1712156873441,599616114988711176,11
1712156873449,599616114996376280,60
1712156873457,599616115004041384,85
1712156873465,599616115011706488,102
1712156873472,599616115019371592,130
1712156873480,599616115027036696,178
1712156873488,599616115034701800,213
1712156873495,599616115042366904,178
1712156873503,599616115050032008,148
1712156873511,599616115057697112,239
1712156873518,599616115065362216,343
1712156873526,599616115073027320,350
1712156873534,599616115080692424,311
1712156873541,599616115088357528,283
1712156873549,599616115096022632,234
1712156873557,599616115103687736,132
1712156873564,599616115111352840,39
1712156873572,599616115119017944,0
1712156873580,599616115126683048,2
1712156873587,599616115134348152,32
1712156873595,599616115142013256,23
1712156873603,599616115149678360,-34
1712156873609,599616115157343464,-27
1712156873617,599616115165008568,16
1712156873625,599616115172673672,-58
1712156873633,599616115180338776,-132
1712156873641,599616115188003880,-39
1712156873649,599616115195668984,53
1712156873656,599616115203334088,30
1712156873664,599616115210999192,46
1712156873672,599616115218664296,123
1712156873679,599616115226329400,157
1712156873687,599616115233994504,164
1712156873695,599616115241659608,153
1712156873702,599616115249324712,125
1712156873710,599616115256989816,141
1712156873718,599616115264654920,157
1712156873725,599616115272320024,97
1712156873733,599616115279985128,25
1712156873741,599616115287650232,-20
1712156873748,599616115295315336,-106
1712156873756,599616115302950368,-146
1712156873763,599616115310615890,-81
1712156873771,599616115318281412,-58
1712156873779,599616115325946934,-148
1712156873785,599616115333612456,-250
1712156873793,599616115341277978,-271
1712156873801,599616115348943500,-220
1712156873809,599616115356609022,-188
1712156873817,599616115364274544,-171
1712156873825,599616115371940066,-99
1712156873832,599616115379605588,-53
1712156873840,599616115387271110,-125
1712156873848,599616115394936632,-192
1712156873855,599616115402602154,-202
1712156873863,599616115410267676,-206
1712156873871,599616115417933198,-188
1712156873878,599616115425598720,-164
1712156873886,599616115433264242,-167
1712156873894,599616115440929764,-146
1712156873901,599616115448595286,-120
1712156873909,599616115456260808,-118
1712156873917,599616115463926330,60
1712156873924,599616115471591852,490
1712156873932,599616115479257374,687
1712156873940,599616115486922896,269
1712156873947,599616115494588418,-185
1712156873955,599616115502253940,-106
1712156873963,599616115509919462,20
1712156873969,599616115517584984,-78
1712156873977,599616115525250506,-102
1712156873985,599616115532916028,-83
1712156873993,599616115540581550,-118
1712156874001,599616115548247072,-78
1712156874009,599616115555912594,9
1712156874016,599616115563578116,48
1712156874024,599616115571243638,76
1712156874032,599616115578909160,99
1712156874039,599616115586574682,113
1712156874047,599616115594240204,151
1712156874055,599616115601905726,202
1712156874062,599616115609571248,232
1712156874070,599616115617236770,255
1712156874078,599616115624902292,250
1712156874085,599616115632567814,204
1712156874093,599616115640233336,213
1712156874101,599616115647898858,306
1712156874108,599616115655564380,329
1712156874116,599616115663229902,241
1712156874124,599616115670895424,199
1712156874131,599616115678560946,239
1712156874139,599616115686226468,260
1712156874147,599616115693891990,302
1712156874153,599616115701557512,378
1712156874161,599616115709223034,392
1712156874169,599616115716888556,339
1712156874177,599616115724554078,269
1712156874185,599616115732219600,167
1712156874193,599616115739885122,51
1712156874200,599616115747550644,13
1712156874208,599616115755216166,76
1712156874216,599616115762881688,120
1712156874223,599616115770547210,60
1712156874231,599616115778212732,-6
1712156874239,599616115785878254,39
1712156874246,599616115793543776,90
1712156874254,599616115801209298,37
1712156874262,599616115808874820,11
1712156874269,599616115816540342,62
1712156874277,599616115824205864,67
1712156874285,599616115831871386,-18
1712156874292,599616115839536908,-111
1712156874300,599616115847202430,-130
1712156874308,599616115854867952,-111
1712156874315,599616115862563596,-95
1712156874323,599616115870228700,-85
1712156874331,599616115877893804,-130
1712156874337,599616115885558908,-204
1712156874345,599616115893224012,-241
1712156874353,599616115900889116,-285
1712156874361,599616115908554220,-360
1712156874369,599616115916219324,-434
1712156874377,599616115923884428,-532
1712156874384,599616115931549532,-597
1712156874392,599616115939214636,-571
1712156874400,599616115946879740,-515
1712156874407,599616115954544844,-460
1712156874415,599616115962209948,-411
1712156874423,599616115969875052,-397
1712156874430,599616115977540156,-404
1712156874438,599616115985205260,-394
1712156874446,599616115992870364,-360
1712156874453,599616116000535468,-339
1712156874461,599616116008200572,-278
1712156874469,599616116015865676,-213
1712156874476,599616116023530780,-325
1712156874484,599616116031195884,-460
1712156874492,599616116038860988,-378
1712156874499,599616116046526092,-299
1712156874507,599616116054191196,-346
1712156874515,599616116061856300,-304
1712156874521,599616116069521404,-65
1712156874529,599616116077186508,339
1712156874537,599616116084851612,604
1712156874545,599616116092516716,329
1712156874553,599616116100181820,-58
1712156874561,599616116107846924,0
1712156874568,599616116115512028,69
1712156874576,599616116123177132,-69
1712156874584,599616116130842236,-60
1712156874591,599616116138507340,34
1712156874599,599616116146172444,-4
1712156874607,599616116153837548,-92
1712156874614,599616116161502652,-153
1712156874622,599616116169167756,-176
1712156874630,599616116176832860,-102
1712156874637,599616116184497964,0
1712156874645,599616116192163068,18
1712156874653,599616116199828172,-4
1712156874660,599616116207493276,-2
1712156874668,599616116215158380,6
1712156874676,599616116222823484,30
1712156874683,599616116230488588,113
1712156874691,599616116238153692,204
1712156874699,599616116245818796,243
1712156874705,599616116253483900,234
1712156874713,599616116261149004,181
1712156874721,599616116268814108,146
1712156874729,599616116276479212,209
1712156874737,599616116284144316,306
1712156874745,599616116291809420,360
1712156874752,599616116299474524,425
1712156874760,599616116307139628,464
1712156874768,599616116314804732,413
1712156874775,599616116322469836,343
1712156874783,599616116330134940,297
1712156874791,599616116337800044,197
1712156874798,599616116345465148,62
1712156874806,599616116353130252,-37
1712156874814,599616116360795356,-153
1712156874821,599616116368460460,-246
1712156874829,599616116376125564,-197
1712156874837,599616116383790668,-132
1712156874844,599616116391455772,-162
1712156874852,599616116399120876,-202
1712156874860,599616116406785980,-225
1712156874867,599616116414451084,-262
1712156874875,599616116422116216,-246
1712156874883,599616116429781320,-125
1712156874889,599616116437446424,-55
1712156874897,599616116445111528,-127
1712156874905,599616116452776632,-164
1712156874913,599616116460441736,-162
1712156874921,599616116468106840,-202
1712156874929,599616116475771944,-176
1712156874936,599616116483437048,-95
1712156874944,599616116491102152,-83
1712156874952,599616116498767256,-92
1712156874959,599616116506432360,-51
1712156874967,599616116514097464,-37
1712156874975,599616116521762568,-88
1712156874982,599616116529427672,-125
1712156874990,599616116537092776,-153
1712156874998,599616116544757880,-197
1712156875005,599616116552422984,-246
1712156875013,599616116560088088,-313
1712156875021,599616116567753192,-346
1712156875028,599616116575418296,-336
1712156875036,599616116583083400,-348
1712156875044,599616116590748504,-290
1712156875051,599616116598413608,-195
1712156875059,599616116606078712,-185
1712156875067,599616116613743816,-197
1712156875073,599616116621408920,-176
1712156875081,599616116629074024,-195
1712156875089,599616116636739128,-255
1712156875097,599616116644404232,-311
1712156875105,599616116652069336,-341
1712156875113,599616116659734440,-311
1712156875120,599616116667399544,-255
1712156875128,599616116675064648,-253
1712156875136,599616116682729752,-192
1712156875143,599616116690394856,134
1712156875151,599616116698059960,534
1712156875159,599616116705725064,443
1712156875166,599616116713390168,-106
1712156875174,599616116721055272,-350
1712156875182,599616116728720376,-155
1712156875189,599616116736385480,-41
1712156875197,599616116744050584,-44
1712156875205,599616116751715688,-6
1712156875212,599616116759380792,-9
1712156875220,599616116767045896,-32
1712156875228,599616116774711000,9
1712156875235,599616116782376104,67
1712156875243,599616116790041208,67
1712156875251,599616116797706312,60
1712156875257,599616116805371416,134
1712156875265,599616116813036520,241
1712156875273,599616116820701624,271
1712156875281,599616116828366728,239
1712156875289,599616116836031832,183
1712156875297,599616116843696936,99
1712156875304,599616116851362040,27
1712156875312,599616116859027144,11
1712156875320,599616116866692248,34
1712156875327,599616116874357352,78
1712156875335,599616116882022456,164
1712156875343,599616116889687560,216
1712156875350,599616116897352664,120
1712156875358,599616116905017768,4
1712156875366,599616116912682872,25
1712156875373,599616116920347976,90
1712156875381,599616116928013080,116
1712156875389,599616116935678184,153
1712156875396,599616116943343288,153
1712156875404,599616116951008392,74
1712156875412,599616116958673496,23
1712156875419,599616116966338600,6
1712156875427,599616116974003704,11
1712156875435,599616116981668832,65
1712156875441,599616116989333936,48
1712156875449,599616116996999040,-62
1712156875457,599616117004664144,-76
1712156875465,599616117012329248,4
1712156875473,599616117019994352,30
1712156875481,599616117027659456,-6
1712156875488,599616117035324560,-51
1712156875496,599616117042989664,-125
1712156875504,599616117050654768,-197
1712156875511,599616117058319872,-176
1712156875519,599616117065984976,-120
1712156875527,599616117073650080,-90
1712156875534,599616117081315184,-53
1712156875542,599616117088980288,-46
1712156875550,599616117096645392,-106
1712156875557,599616117104310496,-171
1712156875565,599616117111975600,-181
1712156875573,599616117119640704,-148
1712156875580,599616117127305808,-127
1712156875588,599616117134970912,-178
1712156875595,599616117142636016,-250
1712156875603,599616117150301120,-302
1712156875611,599616117157966224,-336
1712156875617,599616117165631328,-313
1712156875625,599616117173296432,-271
1712156875633,599616117180961536,-269
1712156875641,599616117188626640,-269
1712156875649,599616117196291744,-239
1712156875657,599616117203956848,-192
1712156875664,599616117211621952,-144
1712156875672,599616117219287056,-104
1712156875680,599616117226952160,-102
1712156875687,599616117234617264,-151
1712156875695,599616117242282368,-223
1712156875703,599616117249947472,-253
1712156875710,599616117257612576,-213
1712156875718,599616117265277680,-162
1712156875726,599616117272942784,-130
1712156875733,599616117280607888,-111
1712156875741,599616117288272992,-62
1712156875749,599616117295938096,-16
1712156875756,599616117303603200,-20
1712156875764,599616117311268304,169
1712156875772,599616117318933408,690
1712156875779,599616117326598512,1017
1712156875787,599616117334263616,669
1712156875795,599616117341928720,153
1712156875801,599616117349593824,37
1712156875809,599616117357258928,27
1712156875817,599616117364924032,-39
1712156875825,599616117372589136,37
1712156875833,599616117380254240,95
1712156875841,599616117387919344,25
1712156875848,599616117395584448,41
1712156875856,599616117403249552,106
1712156875864,599616117410914656,95
1712156875871,599616117418579760,104
1712156875879,599616117426244864,153
1712156875887,599616117433909968,106
1712156875894,599616117441575072,41
1712156875902,599616117449240176,83
1712156875910,599616117456905280,116
1712156875917,599616117464570384,85
1712156875925,599616117472235488,120
1712156875933,599616117479900592,204
1712156875940,599616117487565696,246
1712156875948,599616117495230800,197
1712156875956,599616117502895904,125
1712156875963,599616117510561008,174
1712156875971,599616117518226112,253
1712156875979,599616117525891216,246
1712156875985,599616117533556320,239
1712156875993,599616117541221448,260
1712156876001,599616117548886552,246
1712156876009,599616117556551656,206
1712156876017,599616117564216760,176
1712156876025,599616117571881864,137
1712156876032,599616117579546968,60
1712156876040,599616117587212072,-30
1712156876048,599616117594877176,-95
1712156876055,599616117602542280,-125
1712156876063,599616117610207384,-118
1712156876071,599616117617872488,-62
1712156876078,599616117625537592,-27
1712156876086,599616117633202696,-69
1712156876094,599616117640867800,-95
1712156876101,599616117648532904,-51
1712156876109,599616117656198008,34
1712156876117,599616117663863112,85
1712156876124,599616117671528216,27
1712156876132,599616117679193320,-144
1712156876140,599616117686858424,-267
1712156876147,599616117694523528,-206
1712156876155,599616117702188632,-88
1712156876163,599616117709853736,6
1712156876169,599616117717518840,55
1712156876177,599616117725183944,-51
1712156876185,599616117732849048,-216
1712156876193,599616117740514152,-211
1712156876201,599616117748179256,-139
1712156876209,599616117755844360,-197
1712156876216,599616117763509464,-271
1712156876224,599616117771174568,-278
1712156876232,599616117778839672,-334
1712156876239,599616117786504776,-376
1712156876247,599616117794169880,-322
1712156876255,599616117801834984,-248
1712156876262,599616117809500088,-192
1712156876270,599616117817165192,-181
1712156876278,599616117824830296,-204
1712156876285,599616117832495400,-185
1712156876293,599616117840160504,-160
1712156876301,599616117847825608,-209
1712156876308,599616117855490712,-248
1712156876316,599616117863155816,-190
1712156876324,599616117870820920,-169
1712156876331,599616117878486024,-227
1712156876339,599616117886151128,-216
1712156876347,599616117893816232,-139
1712156876353,599616117901481336,-123
1712156876361,599616117909146440,-162
1712156876369,599616117916811544,-167
1712156876377,599616117924476648,53
1712156876385,599616117932141752,546
1712156876393,599616117939806856,792
1712156876400,599616117947471960,406
1712156876408,599616117955137064,-4
1712156876416,599616117962802168,18
1712156876423,599616117970467272,-11
1712156876431,599616117978132376,-204
1712156876439,599616117985797480,-169
1712156876446,599616117993462584,-58
1712156876454,599616118001127688,-65
1712156876462,599616118008792792,-11
1712156876469,599616118016457896,78
1712156876477,599616118024123000,65
1712156876485,599616118031788104,69
1712156876492,599616118039453208,130
1712156876500,599616118047118312,118
1712156876508,599616118054783416,111
1712156876515,599616118062448520,169
1712156876523,599616118070113624,174
1712156876531,599616118077778728,134
1712156876537,599616118085443832,195
1712156876545,599616118093108936,322
1712156876553,599616118100774064,311
1712156876561,599616118108439168,227
1712156876569,599616118116104272,239
1712156876577,599616118123769376,260
1712156876584,599616118131434480,278
1712156876592,599616118139099584,281
1712156876600,599616118146764688,255
1712156876607,599616118154429792,292
1712156876615,599616118162094896,283
1712156876623,599616118169760000,174
1712156876630,599616118177425104,146
1712156876638,599616118185090208,106
1712156876646,599616118192755312,-39
1712156876653,599616118200420416,-69
1712156876661,599616118208085520,-16
1712156876669,599616118215750624,-97
1712156876676,599616118223415728,-171
1712156876684,599616118231080832,-130
1712156876692,599616118238745936,-125
1712156876699,599616118246411040,-153
1712156876707,599616118254076144,-157
1712156876715,599616118261741248,-190
1712156876721,599616118269406352,-192
1712156876729,599616118277071456,-137
1712156876737,599616118284736560,-102
1712156876745,599616118292401664,-102
1712156876753,599616118300066768,-92
1712156876761,599616118307731872,-99
1712156876768,599616118315396976,-157
1712156876776,599616118323062080,-185
1712156876784,599616118330727184,-160
1712156876791,599616118338392288,-130
1712156876799,599616118346057392,-148
1712156876807,599616118353722496,-248
1712156876814,599616118361387600,-343
1712156876822,599616118369052704,-399
1712156876830,599616118376717808,-446
1712156876837,599616118384382912,-388
1712156876845,599616118392048016,-239
1712156876853,599616118399713120,-134
1712156876860,599616118407378224,-109
1712156876868,599616118415043328,-144
1712156876876,599616118422708432,-164
1712156876883,599616118430373536,-95
1712156876891,599616118438038640,-16
1712156876899,599616118445703744,11
1712156876905,599616118453368848,41
1712156876913,599616118461033952,88
1712156876921,599616118468699056,104
1712156876929,599616118476364160,46
1712156876937,599616118484029264,-20
1712156876945,599616118491694368,11
1712156876952,599616118499359472,78
1712156876960,599616118507024576,41
1712156876968,599616118514689680,-41
1712156876975,599616118522354784,2
1712156876983,599616118530019888,118
1712156876991,599616118537684992,148
1712156876998,599616118545350096,137
1712156877006,599616118553015200,132
1712156877014,599616118560680304,157
1712156877021,599616118568345408,434
1712156877029,599616118576010512,903
1712156877037,599616118583675616,940
1712156877044,599616118591340720,432
1712156877052,599616118599005824,151
1712156877060,599616118606670928,248
1712156877067,599616118614336032,174
1712156877075,599616118622001136,34
1712156877083,599616118629666240,127
1712156877089,599616118637331344,202
1712156877097,599616118644996448,95
1712156877105,599616118652661552,-30
1712156877113,599616118660326680,-78
1712156877121,599616118667991784,-48
1712156877129,599616118675656888,9
1712156877136,599616118683321992,41
1712156877144,599616118690987096,37
1712156877152,599616118698652200,11
1712156877159,599616118706317304,16
1712156877167,599616118713982408,34
1712156877175,599616118721647512,0
1712156877182,599616118729312616,4
1712156877190,599616118736977720,111
1712156877198,599616118744642824,153
1712156877205,599616118752307928,109
1712156877213,599616118759973032,125
1712156877220,599616118767638136,190
1712156877228,599616118775303240,230
1712156877236,599616118782968344,257
1712156877243,599616118790633448,276
1712156877251,599616118798298552,241
1712156877259,599616118805963656,148
1712156877265,599616118813628760,83
1712156877273,599616118821293864,109
1712156877281,599616118828958968,148
1712156877289,599616118836624072,123
1712156877297,599616118844289176,39
1712156877305,599616118851954280,-104
1712156877312,599616118859619384,-243
1712156877320,599616118867284488,-302
1712156877328,599616118874949592,-334
1712156877335,599616118882614696,-346
1712156877343,599616118890279800,-311
1712156877351,599616118897944904,-346
1712156877358,599616118905610008,-404
1712156877366,599616118913275112,-343
1712156877374,599616118920940216,-264
1712156877381,599616118928605320,-246
1712156877389,599616118936270424,-199
1712156877397,599616118943935528,-130
1712156877404,599616118951600632,-113
1712156877412,599616118959265736,-139
1712156877420,599616118966930840,-160
1712156877427,599616118974595944,-192
1712156877435,599616118982261048,-239
1712156877443,599616118989926152,-257
1712156877449,599616118997591256,-234
1712156877457,599616119005256360,-218
1712156877465,599616119012921464,-250
1712156877473,599616119020586568,-269
1712156877481,599616119028251672,-223
1712156877489,599616119035916776,-216
1712156877496,599616119043581880,-299
1712156877504,599616119051246984,-329
1712156877512,599616119058912088,-234
1712156877519,599616119066577192,-155
1712156877527,599616119074242296,-141
1712156877535,599616119081907400,-164
1712156877542,599616119089572504,-216
1712156877550,599616119097237608,-220
1712156877558,599616119104902712,-197
1712156877565,599616119112567816,-230
1712156877573,599616119120232920,-236
1712156877581,599616119127898024,-171
1712156877588,599616119135563128,-134
1712156877596,599616119143228232,-146
1712156877604,599616119150893336,-125
1712156877611,599616119158558440,-65
1712156877619,599616119166223544,-46
1712156877627,599616119173888648,-74
1712156877633,599616119181553752,-151
1712156877641,599616119189218856,-246
1712156877649,599616119196883960,-90
1712156877657,599616119204549064,367
1712156877665,599616119212214168,576
1712156877673,599616119219879296,216
1712156877680,599616119227544400,-104
1712156877688,599616119235209504,-13
1712156877696,599616119242874608,-32
1712156877703,599616119250539712,-202
1712156877711,599616119258204816,-127
1712156877719,599616119265869920,6
1712156877726,599616119273535024,11
1712156877734,599616119281200128,-6
1712156877742,599616119288865232,-62
1712156877749,599616119296530336,-148
1712156877757,599616119304195440,-144
1712156877765,599616119311860544,-88
1712156877772,599616119319525648,-55
1712156877780,599616119327190752,-11
1712156877788,599616119334855856,41
1712156877795,599616119342520960,62
1712156877803,599616119350186064,27
1712156877811,599616119357851168,-85
1712156877817,599616119365516272,-206
1712156877825,599616119373181376,-162
1712156877833,599616119380846480,-85
1712156877841,599616119388511584,-197
1712156877849,599616119396176688,-269
1712156877857,599616119403841792,-167
1712156877864,599616119411506896,-120
1712156877872,599616119419172000,-132
1712156877880,599616119426837104,-81
1712156877887,599616119434502208,-55
1712156877895,599616119442167312,-72
1712156877903,599616119449832416,-39
1712156877910,599616119457497520,-20
1712156877918,599616119465162624,-51
1712156877926,599616119472827728,-72
1712156877933,599616119480492832,-130
1712156877941,599616119488157936,-230
1712156877949,599616119495823040,-195
1712156877956,599616119503488144,-60
1712156877964,599616119511153248,23
1712156877972,599616119518818352,51
1712156877979,599616119526483456,-23
1712156877987,599616119534148560,-127
1712156877995,599616119541813664,-102
1712156878001,599616119549478768,-9
1712156878009,599616119557143872,46
1712156878017,599616119564808976,51
1712156878025,599616119572474080,-2
1712156878033,599616119580139184,-65
1712156878041,599616119587804288,-127
1712156878048,599616119595469392,-250
1712156878056,599616119603134496,-339
1712156878064,599616119610799600,-283
1712156878071,599616119618464704,-225
1712156878079,599616119626129808,-253
1712156878087,599616119633794912,-255
1712156878094,599616119641460016,-192
1712156878102,599616119649125120,-130
1712156878110,599616119656790224,-99
1712156878117,599616119664455328,-85
1712156878125,599616119672120432,-83
1712156878133,599616119679785536,-69
1712156878140,599616119687450640,-37
1712156878148,599616119695115744,-23
1712156878156,599616119702780848,-25
1712156878163,599616119710445952,-41
1712156878171,599616119718111056,-69
1712156878179,599616119725776160,-125
1712156878185,599616119733441264,-190
1712156878193,599616119741106368,-151
1712156878201,599616119748771472,-48
1712156878209,599616119756436576,-39
1712156878217,599616119764101680,-65
1712156878225,599616119771766784,0
1712156878232,599616119779431914,69
1712156878240,599616119787097018,39
1712156878248,599616119794762122,-20
1712156878255,599616119802427226,-23
1712156878263,599616119810092330,4
1712156878271,599616119817757434,13
1712156878278,599616119825422538,-11
1712156878286,599616119833087642,-34
1712156878294,599616119840752746,-46
1712156878301,599616119848417850,-123
1712156878309,599616119856082954,-160
1712156878317,599616119863748058,125
1712156878324,599616119871413162,550
1712156878332,599616119879078266,490
1712156878340,599616119886743370,-23
1712156878347,599616119894408474,-253
1712156878355,599616119902073578,-155
1712156878363,599616119909738682,-146
1712156878369,599616119917403786,-197
1712156878377,599616119925068890,-209
1712156878385,599616119932733994,-206
1712156878393,599616119940399098,-171
1712156878401,599616119948064202,-125
1712156878409,599616119955729306,-83
1712156878416,599616119963394410,-41
1712156878424,599616119971059514,-20
1712156878432,599616119978724618,-13
1712156878439,599616119986389722,9
1712156878447,599616119994054826,48
1712156878455,599616120001719930,99
1712156878462,599616120009385034,155
1712156878470,599616120017050138,178
1712156878478,599616120024715242,155
1712156878485,599616120032380346,109
1712156878493,599616120040045450,97
1712156878501,599616120047710554,125
1712156878508,599616120055375658,155
1712156878516,599616120063040762,171
1712156878524,599616120070705866,160
1712156878531,599616120078370970,144
1712156878539,599616120086036074,153
1712156878547,599616120093701178,144
1712156878553,599616120101366282,125
1712156878561,599616120109031386,132
1712156878569,599616120116696490,65
1712156878577,599616120124361594,-62
1712156878585,599616120132026698,-83
1712156878593,599616120139691802,-18
1712156878600,599616120147356906,4
1712156878608,599616120155022010,-4
1712156878616,599616120162687114,-16
1712156878623,599616120170352218,-39
1712156878631,599616120178017322,-48
1712156878639,599616120185682426,-41
1712156878646,599616120193347530,-65
1712156878654,599616120201012634,-92
1712156878662,599616120208677738,-95
1712156878669,599616120216342842,-116
1712156878677,599616120224007946,-113
1712156878685,599616120231673050,-81
1712156878692,599616120239338154,-78
1712156878700,599616120247003258,-51
1712156878708,599616120254668362,-20
1712156878715,599616120262333466,-160
1712156878723,599616120269998570,-322
1712156878731,599616120277663674,-283
1712156878737,599616120285328778,-190
1712156878745,599616120292993882,-130
1712156878753,599616120300658986,-72
1712156878761,599616120308324090,-106
1712156878769,599616120315989194,-199
1712156878777,599616120323654298,-188
1712156878784,599616120331319402,-116
1712156878792,599616120338954434,-167
1712156878799,599616120346619956,-281
1712156878807,599616120354285478,-304
1712156878815,599616120361951000,-341
1712156878822,599616120369616522,-378
1712156878830,599616120377282044,-274
1712156878838,599616120384947566,-153
1712156878845,599616120392613088,-109
1712156878853,599616120400278610,-113
1712156878861,599616120407944132,-164
1712156878868,599616120415609654,-195
1712156878876,599616120423275176,-162
1712156878884,599616120430940698,-181
1712156878891,599616120438606220,-234
1712156878899,599616120446271742,-220
1712156878907,599616120453937264,-248
1712156878913,599616120461602786,-334
1712156878921,599616120469268308,-304
1712156878929,599616120476933830,-213
1712156878937,599616120484599352,-220
1712156878945,599616120492264874,-188
1712156878953,599616120499930396,157
1712156878960,599616120507595918,648
1712156878968,599616120515261440,694
1712156878976,599616120522926962,236
1712156878983,599616120530592484,-25
1712156878991,599616120538258006,74
1712156878999,599616120545923528,76
1712156879006,599616120553589050,0
1712156879014,599616120561254572,18
1712156879022,599616120568920094,44
1712156879029,599616120576585616,39
1712156879037,599616120584251138,30
1712156879045,599616120591916660,13
1712156879052,599616120599582182,34
1712156879060,599616120607247704,46
1712156879068,599616120614913226,0
1712156879075,599616120622578748,4
1712156879083,599616120630244270,78
1712156879091,599616120637909792,132
1712156879097,599616120645575314,155
1712156879105,599616120653240836,92
1712156879113,599616120660906358,-13
1712156879121,599616120668571880,2
1712156879129,599616120676237402,9
1712156879137,599616120683902924,-62
1712156879144,599616120691568446,-9
1712156879152,599616120699233968,85
1712156879160,599616120706899490,72
1712156879167,599616120714565012,90
1712156879175,599616120722230534,202
1712156879183,599616120729896056,264
1712156879190,599616120737561578,250
1712156879198,599616120745227100,227
1712156879206,599616120752892622,199
1712156879213,599616120760558144,174
1712156879221,599616120768223666,167
1712156879229,599616120775889188,153
1712156879236,599616120783554710,106
1712156879244,599616120791220232,65
1712156879252,599616120798885754,53
1712156879259,599616120806551276,-6
1712156879267,599616120814216798,-132
1712156879275,599616120821882320,-211
1712156879281,599616120829547842,-227
1712156879289,599616120837213364,-267
1712156879297,599616120844878886,-278
1712156879305,599616120852544408,-250
1712156879313,599616120860209930,-306
1712156879321,599616120867875452,-457
1712156879328,599616120875540974,-508
1712156879336,599616120883206496,-397
1712156879344,599616120890872018,-332
1712156879351,599616120898597760,-369
1712156879359,599616120906262446,-360
1712156879367,599616120913927132,-264
1712156879374,599616120921591818,-174
1712156879382,599616120929256504,-139
1712156879390,599616120936921190,-118
1712156879397,599616120944585876,-118
1712156879405,599616120952250562,-137
1712156879413,599616120959915248,-125
1712156879420,599616120967579934,-92
1712156879428,599616120975244620,-69
1712156879436,599616120982909306,-41
1712156879443,599616120990573992,-78
1712156879451,599616120998238678,-213
1712156879459,599616121005903364,-257
1712156879465,599616121013568050,-167
1712156879473,599616121021232736,-106
1712156879481,599616121028897422,-81
1712156879489,599616121036562108,-51
1712156879497,599616121044226794,-92
1712156879505,599616121051891480,-155
1712156879512,599616121059556166,-97
1712156879520,599616121067220852,-4
1712156879528,599616121074885538,-16
1712156879535,599616121082550224,-58
1712156879543,599616121090214910,-62
1712156879551,599616121097879596,-60
1712156879558,599616121105544282,-34
1712156879566,599616121113208968,13
1712156879574,599616121120873654,41
1712156879581,599616121128538340,88
1712156879589,599616121136203026,106
1712156879597,599616121143867712,48
1712156879604,599616121151532398,18
1712156879612,599616121159197084,125
1712156879620,599616121166861770,476
1712156879627,599616121174526456,954
1712156879635,599616121182191142,952
1712156879643,599616121189855828,304
1712156879649,599616121197520514,-102
1712156879657,599616121205185200,62
1712156879665,599616121212849886,137
1712156879673,599616121220514572,46
1712156879681,599616121228179258,83
1712156879689,599616121235843944,120
1712156879696,599616121243508630,97
1712156879704,599616121251173316,132
1712156879712,599616121258838002,176
1712156879719,599616121266502688,141
1712156879727,599616121274167374,90
1712156879735,599616121281832060,92
1712156879742,599616121289496746,106
1712156879750,599616121297161432,111
1712156879758,599616121304826118,127
1712156879765,599616121312490804,113
1712156879773,599616121320155490,65
1712156879781,599616121327820176,13
1712156879788,599616121335484862,-51
1712156879796,599616121343149548,-90
1712156879804,599616121350814234,-39
1712156879811,599616121358478920,13
1712156879819,599616121366143606,-62
1712156879827,599616121373808292,-174
1712156879833,599616121381472978,-118
1712156879841,599616121389137664,-4
1712156879849,599616121396802350,34
1712156879857,599616121404467036,72
1712156879865,599616121412131722,92
1712156879873,599616121419796408,69
1712156879880,599616121427461094,20
1712156879888,599616121435125780,-51
1712156879896,599616121442790466,-123
1712156879903,599616121450455152,-181
1712156879911,599616121458089762,-239
1712156879919,599616121465754866,-246
1712156879926,599616121473419970,-225
1712156879934,599616121481085074,-230
1712156879942,599616121488750178,-232
1712156879949,599616121496415282,-227
1712156879957,599616121504080386,-243
1712156879965,599616121511745490,-230
1712156879972,599616121519410594,-176
1712156879980,599616121527075698,-216
1712156879988,599616121534740802,-371
1712156879995,599616121542405906,-432
1712156880003,599616121550071010,-348
1712156880011,599616121557736114,-290
1712156880017,599616121565401218,-292
1712156880025,599616121573066322,-348
1712156880033,599616121580731426,-390
1712156880041,599616121588396530,-309
1712156880049,599616121596061634,-199
1712156880057,599616121603726738,-174
1712156880064,599616121611391842,-148
1712156880072,599616121619056946,-113
1712156880080,599616121626722050,-134
1712156880087,599616121634387154,-146
1712156880095,599616121642052258,-102
1712156880103,599616121649717362,-60
1712156880110,599616121657382466,-25
1712156880118,599616121665047570,32
1712156880126,599616121672712674,48
1712156880133,599616121680377778,-18
1712156880141,599616121688042882,-51
1712156880149,599616121695707986,13
1712156880156,599616121703373090,76
1712156880164,599616121711038194,102
1712156880172,599616121718703298,102
1712156880179,599616121726368402,37
1712156880187,599616121734033506,-23
1712156880195,599616121741698610,30
1712156880201,599616121749363714,102
1712156880209,599616121757028818,127
1712156880217,599616121764693922,148
1712156880225,599616121772359026,139
1712156880233,599616121780024130,97
1712156880241,599616121787689234,92
1712156880248,599616121795354338,132
1712156880256,599616121803019442,197
1712156880264,599616121810684546,241
1712156880271,599616121818349650,164
1712156880279,599616121826014754,9
1712156880287,599616121833679858,16
1712156880294,599616121841344962,371
1712156880302,599616121849010066,871
1712156880310,599616121856675170,964
1712156880317,599616121864340274,453
1712156880325,599616121872005378,-4
1712156880333,599616121879670482,0
1712156880340,599616121887335586,67
1712156880348,599616121895000690,27
1712156880356,599616121902665794,44
1712156880363,599616121910330898,34
1712156880371,599616121917996002,-81
1712156880379,599616121925661106,-167
1712156880385,599616121933326210,-134
1712156880393,599616121940991314,-78
1712156880401,599616121948656418,-34
1712156880409,599616121956321522,0
1712156880417,599616121963986626,-9
1712156880425,599616121971651730,-25
1712156880432,599616121979316834,13
1712156880440,599616121986981938,39
1712156880448,599616121994647042,25
1712156880455,599616122002312146,53
1712156880463,599616122009977250,109
1712156880470,599616122017612282,116
1712156880478,599616122025277804,111
1712156880486,599616122032943326,127
1712156880493,599616122040608848,146
1712156880501,599616122048274370,153
1712156880509,599616122055939892,125
1712156880516,599616122063605414,6
1712156880524,599616122071270936,-164
1712156880532,599616122078936458,-213
1712156880539,599616122086601980,-164
1712156880547,599616122094267502,-211
1712156880555,599616122101933024,-295
1712156880561,599616122109598546,-311
1712156880569,599616122117264068,-339
1712156880577,599616122124929590,-371
1712156880585,599616122132595112,-348
1712156880593,599616122140260634,-318
1712156880601,599616122147926156,-322
1712156880608,599616122155591678,-313
1712156880616,599616122163257200,-295
1712156880624,599616122170922722,-276
1712156880631,599616122178588244,-241
1712156880639,599616122186253766,-206
1712156880647,599616122193919288,-185
1712156880654,599616122201584810,-167
1712156880662,599616122209250332,-199
1712156880670,599616122216915854,-271
1712156880677,599616122224581376,-260
1712156880685,599616122232246898,-195
1712156880693,599616122239912420,-174
1712156880700,599616122247577942,-146
1712156880708,599616122255243464,-109
1712156880716,599616122262908986,-113
1712156880723,599616122270574508,-99
1712156880731,599616122278240030,-41
1712156880739,599616122285905552,-18
1712156880745,599616122293571074,-9
1712156880753,599616122301236596,18
1712156880761,599616122308902118,2
1712156880769,599616122316567640,-23
1712156880777,599616122324233162,9
1712156880785,599616122331898684,37
1712156880792,599616122339564206,23
1712156880800,599616122347229728,51
1712156880808,599616122354895250,97
1712156880815,599616122362560772,81
1712156880823,599616122370226294,30
1712156880831,599616122377891816,-18
1712156880838,599616122385557338,-58
1712156880846,599616122393222860,-51
1712156880854,599616122400888382,-81
1712156880861,599616122408553904,-209
1712156880869,599616122416219426,-225
1712156880877,599616122423884948,-111
1712156880884,599616122431550470,-67
1712156880892,599616122439215992,-9
1712156880900,599616122446881514,104
1712156880907,599616122454547036,92
1712156880915,599616122462212558,6
1712156880923,599616122469878080,9
1712156880929,599616122477543602,53
1712156880937,599616122485209124,88
1712156880945,599616122492874646,134
1712156880953,599616122500540168,144
1712156880961,599616122508205690,76
1712156880969,599616122515871212,88
1712156880976,599616122523536734,415
1712156880984,599616122531202256,889
1712156880992,599616122538867778,892
1712156880999,599616122546533300,348
1712156881007,599616122554198822,-13
1712156881015,599616122561864344,-4
1712156881022,599616122569529866,-32
1712156881030,599616122577225512,-92
1712156881038,599616122584890616,-46
1712156881045,599616122592555720,-4
1712156881053,599616122600220824,-62
1712156881061,599616122607885928,-160
1712156881068,599616122615551032,-169
1712156881076,599616122623216136,-106
1712156881084,599616122630881240,-55
1712156881091,599616122638546344,-16
1712156881099,599616122646211448,-18
1712156881107,599616122653876552,-111
1712156881113,599616122661541656,-164
1712156881121,599616122669206760,-72
1712156881129,599616122676871864,41
1712156881137,599616122684536968,81
1712156881145,599616122692202072,72
1712156881153,599616122699867176,13
1712156881160,599616122707532280,-46
1712156881168,599616122715197384,-46
1712156881176,599616122722862488,-41
1712156881183,599616122730527592,-51
1712156881191,599616122738192696,-65
1712156881199,599616122745857800,-162
1712156881206,599616122753522904,-255
1712156881214,599616122761188008,-206
1712156881222,599616122768853112,-132
1712156881229,599616122776518216,-109
1712156881237,599616122784183320,-95
1712156881245,599616122791848424,-162
1712156881252,599616122799513528,-304
1712156881260,599616122807178632,-362
1712156881268,599616122814843736,-313
1712156881275,599616122822508840,-269
1712156881283,599616122830173944,-250
1712156881291,599616122837839048,-239
1712156881297,599616122845504152,-253
1712156881305,599616122853169256,-257
1712156881313,599616122860834360,-202
1712156881321,599616122868499464,-139
1712156881329,599616122876164568,-146
1712156881337,599616122883829672,-216
1712156881344,599616122891494776,-264
1712156881352,599616122899159880,-253
1712156881360,599616122906824984,-232
1712156881367,599616122914490088,-199
1712156881375,599616122922155192,-174
1712156881383,599616122929820296,-153
1712156881390,599616122937485400,-113
1712156881398,599616122945150504,-141
1712156881406,599616122952815608,-241
1712156881413,599616122960480712,-223
1712156881421,599616122968145816,-118
1712156881429,599616122975810920,-83
1712156881436,599616122983476024,-95
1712156881444,599616122991141128,-92
1712156881452,599616122998806232,-39
1712156881459,599616123006471336,74
1712156881467,599616123014136440,132
1712156881475,599616123021801544,92
1712156881481,599616123029466648,104
1712156881489,599616123037131752,151
1712156881497,599616123044796856,99
1712156881505,599616123052461960,39
1712156881513,599616123060127064,92
1712156881521,599616123067792168,125
1712156881528,599616123075457272,97
1712156881536,599616123083122376,134
1712156881544,599616123090787480,181
1712156881551,599616123098452584,169
1712156881559,599616123106117688,169
1712156881567,599616123113782792,185
1712156881574,599616123121447896,183
1712156881582,599616123129113000,146
1712156881590,599616123136778130,60
1712156881597,599616123144443234,-27
1712156881605,599616123152108338,-23
1712156881613,599616123159773442,37
1712156881620,599616123167438546,81
1712156881628,599616123175103650,88
1712156881636,599616123182768754,30
1712156881643,599616123190433858,-37
1712156881651,599616123198098962,85
1712156881659,599616123205764066,411
1712156881665,599616123213429170,564
1712156881673,599616123221094274,264
1712156881681,599616123228759378,-95
1712156881689,599616123236424482,-109
1712156881697,599616123244089586,-60
1712156881705,599616123251754690,-109
1712156881712,599616123259419794,-90
1712156881720,599616123267084898,-46
1712156881728,599616123274750002,-48
1712156881735,599616123282415106,-46
1712156881743,599616123290080210,-39
1712156881751,599616123297745314,-72
1712156881758,599616123305410418,-85
1712156881766,599616123313075522,-46
1712156881774,599616123320740626,-13
1712156881781,599616123328405730,-23
1712156881789,599616123336070834,-85
1712156881797,599616123343735938,-116
1712156881804,599616123351401042,-60
1712156881812,599616123359066146,-34
1712156881820,599616123366731250,-92
1712156881827,599616123374396354,-111
1712156881835,599616123382061458,-127
1712156881843,599616123389726562,-232
1712156881849,599616123397391666,-264
1712156881857,599616123405056770,-169
1712156881865,599616123412721874,-130
1712156881873,599616123420386978,-125
1712156881881,599616123428052082,-97
1712156881889,599616123435717186,-106
1712156881896,599616123443382290,-134
1712156881904,599616123451047394,-125
1712156881912,599616123458712498,-88
1712156881919,599616123466377602,-74
1712156881927,599616123474042706,-127
1712156881935,599616123481707810,-232
1712156881942,599616123489372914,-285
1712156881950,599616123497038018,-239
1712156881958,599616123504703122,-206
1712156881965,599616123512368226,-204
1712156881973,599616123520033330,-169
1712156881981,599616123527698434,-183
1712156881988,599616123535363538,-313
1712156881996,599616123543028642,-411
1712156882004,599616123550693746,-304
1712156882011,599616123558358850,-104
1712156882019,599616123566023954,-51
1712156882027,599616123573689058,-81
1712156882033,599616123581354162,-74
1712156882041,599616123589019266,-109
1712156882049,599616123596684370,-148
1712156882057,599616123604349474,-85
1712156882065,599616123612014578,-27
1712156882073,599616123619679682,-65
1712156882080,599616123627344786,-106
1712156882088,599616123635009890,-55
1712156882096,599616123642674994,34
1712156882103,599616123650340098,58
1712156882111,599616123658005202,53
1712156882119,599616123665670306,67
1712156882126,599616123673335410,30
1712156882134,599616123681000514,-37
1712156882142,599616123688665618,-25
1712156882149,599616123696330746,32
1712156882157,599616123703995850,16
1712156882165,599616123711660954,0
1712156882172,599616123719326058,65
1712156882180,599616123726991162,99
1712156882188,599616123734656266,83
1712156882195,599616123742321370,123
1712156882203,599616123749986474,176
1712156882211,599616123757651578,153
1712156882217,599616123765316682,106
1712156882225,599616123772981786,83
1712156882233,599616123780646890,48
1712156882241,599616123788311994,-18
1712156882249,599616123795977098,-72
1712156882257,599616123803642202,-92
1712156882264,599616123811307306,-130
1712156882272,599616123818972410,-181
1712156882279,599616123826637514,-204
1712156882287,599616123834302618,-223
1712156882295,599616123841967722,-250
1712156882302,599616123849632826,-78
1712156882310,599616123857297930,397
1712156882318,599616123864963034,664
1712156882325,599616123872628138,274
1712156882333,599616123880293242,-213
1712156882341,599616123887958346,-292
1712156882348,599616123895623450,-311
1712156882356,599616123903288554,-360
1712156882364,599616123910953658,-276
1712156882371,599616123918618762,-236
1712156882379,599616123926283866,-269
1712156882387,599616123933948970,-223
1712156882393,599616123941614074,-153
1712156882401,599616123949279178,-118
1712156882409,599616123956944282,-74
1712156882417,599616123964609386,-34
1712156882425,599616123972274490,-18
1712156882433,599616123979939594,-4
1712156882440,599616123987604698,-39
1712156882448,599616123995269802,-106
1712156882456,599616124002934906,-74
1712156882463,599616124010600010,34
1712156882471,599616124018265114,-11
1712156882479,599616124025930218,-223
1712156882486,599616124033595322,-362
1712156882494,599616124041260426,-353
1712156882502,599616124048925530,-271
1712156882509,599616124056590634,-202
1712156882517,599616124064255738,-181
1712156882525,599616124071920842,-160
1712156882532,599616124079585946,-92
1712156882540,599616124087251050,-18
1712156882548,599616124094916154,-4
1712156882555,599616124102581258,-41
1712156882563,599616124110246362,-69
1712156882571,599616124117911466,-139
1712156882577,599616124125576570,-227
1712156882585,599616124133241674,-223
1712156882593,599616124140906778,-162
1712156882601,599616124148571882,-116
1712156882609,599616124156236986,-69
1712156882617,599616124163902090,-58
1712156882624,599616124171567194,-90
1712156882632,599616124179232298,-81
1712156882640,599616124186897402,-20
1712156882647,599616124194562506,20
1712156882655,599616124202227610,34
1712156882663,599616124209892714,6
1712156882670,599616124217557818,-41
1712156882678,599616124225222922,-25
1712156882686,599616124232888026,13
1712156882693,599616124240553130,23
1712156882701,599616124248218234,69
1712156882709,599616124255893442,92
1712156882716,599616124263558406,51
1712156882724,599616124271223370,30
1712156882732,599616124278888334,23
1712156882739,599616124286553298,4
1712156882747,599616124294218262,34
1712156882755,599616124301883226,53
1712156882761,599616124309548190,-41
1712156882769,599616124317213154,-144
1712156882777,599616124324878118,-111
1712156882785,599616124332543082,-41
1712156882793,599616124340208046,0
1712156882801,599616124347873010,32
1712156882808,599616124355537974,-23
1712156882816,599616124363202938,-123
1712156882824,599616124370867902,-118
1712156882831,599616124378532866,-60
1712156882839,599616124386197830,-113
1712156882847,599616124393862794,-202
1712156882854,599616124401527758,-176
1712156882862,599616124409192722,-130
1712156882870,599616124416857686,-116
1712156882877,599616124424522650,-20
1712156882885,599616124432187614,95
1712156882893,599616124439852578,72
1712156882900,599616124447517542,-20
1712156882908,599616124455182506,-23
1712156882916,599616124462847470,34
1712156882923,599616124470512434,34
1712156882931,599616124478177398,23
1712156882939,599616124485842362,74
1712156882945,599616124493507326,90
1712156882953,599616124501172290,23
1712156882961,599616124508837254,95
1712156882969,599616124516502218,476
1712156882977,599616124524167182,771
1712156882985,599616124531832146,485
1712156882992,599616124539497110,-16
1712156883000,599616124547162074,-120
1712156883008,599616124554827038,-92
1712156883015,599616124562492002,-164
1712156883023,599616124570156966,-88
1712156883031,599616124577821930,20
1712156883038,599616124585486894,2
1712156883046,599616124593151858,32
1712156883054,599616124600816822,88
1712156883061,599616124608481786,72
1712156883069,599616124616146750,72
1712156883077,599616124623811714,92
1712156883084,599616124631476678,62
1712156883092,599616124639141642,39
1712156883100,599616124646806606,85
1712156883107,599616124654471570,204
1712156883115,599616124662136534,304
1712156883123,599616124669801498,257
1712156883129,599616124677466462,169
1712156883137,599616124685131426,144
1712156883145,599616124692796390,104
1712156883153,599616124700461354,16
1712156883161,599616124708126318,-55
1712156883169,599616124715791282,-48
1712156883176,599616124723456246,23
1712156883184,599616124731121210,76
1712156883192,599616124738786174,92
1712156883199,599616124746451138,58
1712156883207,599616124754116102,-41
1712156883215,599616124761781066,-109
1712156883222,599616124769446030,-104
1712156883230,599616124777110994,-153
1712156883238,599616124784775958,-241
1712156883245,599616124792440922,-262
1712156883253,599616124800105886,-262
1712156883261,599616124807770850,-295
1712156883268,599616124815440852,-311
1712156883276,599616124823105747,-290
1712156883284,599616124830770642,-264
1712156883291,599616124838435537,-241
1712156883299,599616124846100432,-202
1712156883307,599616124853765327,-195
1712156883313,599616124861430222,-199
1712156883321,599616124869095117,-141
1712156883329,599616124876760012,-130
1712156883337,599616124884424907,-250
1712156883345,599616124892089802,-422
1712156883353,599616124899754697,-536
1712156883360,599616124907419592,-508
1712156883368,599616124915084487,-394
1712156883376,599616124922749382,-318
1712156883383,599616124930414277,-283
1712156883391,599616124938079172,-271
1712156883399,599616124945744067,-278
1712156883406,599616124953408962,-255
1712156883414,599616124961073857,-160
1712156883422,599616124968738752,-113
1712156883429,599616124976403647,-164
1712156883437,599616124984068542,-157
1712156883445,599616124991733437,-72
1712156883452,599616124999398332,-32
1712156883460,599616125007063227,-25
1712156883468,599616125014728122,-30
1712156883475,599616125022393017,-67
1712156883483,599616125030057912,-85
1712156883491,599616125037722807,-76
1712156883497,599616125045387702,-85
1712156883505,599616125053052597,-83
1712156883513,599616125060717492,-60
1712156883521,599616125068382387,-37
1712156883529,599616125076047282,-11
1712156883537,599616125083712177,-55
1712156883544,599616125091377072,-188
1712156883552,599616125099041967,-234
1712156883560,599616125106706862,-137
1712156883567,599616125114371757,-55
1712156883575,599616125122036652,9
1712156883583,599616125129701547,67
1712156883590,599616125137366442,11
1712156883598,599616125145031337,-4
1712156883606,599616125152696232,320
1712156883613,599616125160361127,752
1712156883621,599616125168026022,673
1712156883629,599616125175690917,230
1712156883636,599616125183355812,83
1712156883644,599616125191020707,118
1712156883652,599616125198685602,-32
1712156883659,599616125206350497,-130
1712156883667,599616125214015392,-58
1712156883675,599616125221680287,-30
1712156883681,599616125229345182,-92
1712156883689,599616125237010077,-125
1712156883697,599616125244674972,-65
1712156883705,599616125252339867,39
1712156883713,599616125260004762,67
1712156883721,599616125267669657,9
1712156883728,599616125275334552,-23
1712156883736,599616125282999447,-30
1712156883744,599616125290664342,-55
1712156883751,599616125298329237,-72
1712156883759,599616125305994132,-65
1712156883767,599616125313659027,-25
1712156883774,599616125321323922,11
1712156883782,599616125328988817,-6
1712156883790,599616125336653712,-16
1712156883797,599616125344318607,9
1712156883805,599616125351983502,23
1712156883813,599616125359648397,9
1712156883820,599616125367313292,-18
1712156883828,599616125374938108,-2
1712156883835,599616125382603560,25
1712156883843,599616125390269012,-109
1712156883851,599616125397934464,-297
1712156883857,599616125405599916,-304
1712156883865,599616125413265368,-262
1712156883873,599616125420930820,-339
1712156883881,599616125428596272,-480
1712156883889,599616125436261724,-599
1712156883897,599616125443927176,-566
1712156883904,599616125451592628,-476
1712156883912,599616125459258080,-462
1712156883920,599616125466923532,-439
1712156883927,599616125474588984,-388
1712156883935,599616125482254436,-369
1712156883943,599616125489919888,-318
1712156883950,599616125497585340,-243
1712156883958,599616125505250792,-262
1712156883966,599616125512916244,-320
1712156883973,599616125520581696,-290
1712156883981,599616125528247148,-236
1712156883989,599616125535912600,-206
1712156883996,599616125543578052,-146
1712156884004,599616125551243504,-116
1712156884012,599616125558908956,-141
1712156884019,599616125566574408,-109
1712156884027,599616125574239860,-65
1712156884035,599616125581905312,-81
1712156884041,599616125589570764,-74
1712156884049,599616125597236216,-51
1712156884057,599616125604901668,-37
1712156884065,599616125612567120,20
1712156884073,599616125620232572,48
1712156884081,599616125627898024,-9
1712156884088,599616125635563476,-39
1712156884096,599616125643228928,2
1712156884104,599616125650894380,60
1712156884111,599616125658559832,90
1712156884119,599616125666225284,62
1712156884127,599616125673890736,32
1712156884134,599616125681556188,76
1712156884142,599616125689221640,153
1712156884150,599616125696887092,206
1712156884157,599616125704552544,243
1712156884165,599616125712217996,257
1712156884173,599616125719883448,246
1712156884180,599616125727548900,211
1712156884188,599616125735214352,162
1712156884196,599616125742879804,160
1712156884203,599616125750545256,246
1712156884211,599616125758210708,309
1712156884219,599616125765876160,257
1712156884225,599616125773541612,134
1712156884233,599616125781207064,6
1712156884241,599616125788872516,-67
1712156884249,599616125796537968,20
1712156884257,599616125804203420,411
1712156884265,599616125811868872,875
1712156884272,599616125819534324,810
1712156884280,599616125827199776,253
1712156884288,599616125834865228,6
1712156884295,599616125842530680,181
1712156884303,599616125850196132,250
1712156884311,599616125857861584,178
1712156884318,599616125865527036,74
1712156884326,599616125873192488,-30
1712156884334,599616125880857940,-6
1712156884341,599616125888523392,58
1712156884349,599616125896188844,-34
1712156884357,599616125903854296,-132
1712156884364,599616125911519748,-53
1712156884372,599616125919185200,13
1712156884380,599616125926850652,-37
1712156884387,599616125934571304,-55
1712156884395,599616125942235990,-23
1712156884403,599616125949900676,-6
1712156884409,599616125957565362,4
1712156884417,599616125965230048,-67
1712156884425,599616125972894734,-209
1712156884433,599616125980559420,-169
1712156884441,599616125988224106,-20
1712156884449,599616125995888792,-41
1712156884456,599616126003553478,-130
1712156884464,599616126011218164,-118
1712156884472,599616126018882850,-90
1712156884479,599616126026547536,-116
1712156884487,599616126034212222,-127
1712156884495,599616126041876908,-118
1712156884502,599616126049541594,-195
1712156884510,599616126057206280,-274
1712156884518,599616126064870966,-246
1712156884525,599616126072535652,-262
1712156884533,599616126080200338,-297
1712156884541,599616126087865024,-243
1712156884548,599616126095529710,-218
1712156884556,599616126103194396,-260
1712156884564,599616126110859082,-278
1712156884571,599616126118523768,-255
1712156884579,599616126126188454,-239
1712156884587,599616126133853140,-246
1712156884593,599616126141517826,-250
1712156884601,599616126149182512,-218
1712156884609,599616126156847198,-204
1712156884617,599616126164511884,-250
1712156884625,599616126172176570,-262
1712156884633,599616126179841256,-204
1712156884640,599616126187505942,-185
1712156884648,599616126195170628,-174
1712156884656,599616126202835314,-78
1712156884663,599616126210500000,11
1712156884671,599616126218164686,-60
1712156884679,599616126225829372,-257
1712156884686,599616126233494058,-239
1712156884694,599616126241158744,65
1712156884702,599616126248823430,169
1712156884709,599616126256488116,0
1712156884717,599616126264152802,-25
1712156884725,599616126271817488,85
1712156884732,599616126279482174,76
1712156884740,599616126287146860,67
1712156884748,599616126294811546,153
1712156884755,599616126302476232,46
1712156884763,599616126310140918,-241
1712156884771,599616126317805604,-304
1712156884777,599616126325470290,-144
1712156884785,599616126333134976,-78
1712156884793,599616126340799662,-83
1712156884801,599616126348464348,6
1712156884809,599616126356129034,113
1712156884817,599616126363793720,130
1712156884824,599616126371458406,118
1712156884832,599616126379123092,130
1712156884840,599616126386787778,157
1712156884847,599616126394452464,171
1712156884855,599616126402117150,95
1712156884863,599616126409781836,0
1712156884870,599616126417446522,11
1712156884878,599616126425111208,51
1712156884886,599616126432775894,41
1712156884893,599616126440440580,18
1712156884901,599616126448105266,120
1712156884909,599616126455769952,471
1712156884916,599616126463434638,785
1712156884924,599616126471099324,566
1712156884932,599616126478764010,88
1712156884939,599616126486428696,-13
1712156884947,599616126494063310,23
1712156884955,599616126501728414,-151
1712156884961,599616126509393518,-264
1712156884969,599616126517058622,-269
1712156884977,599616126524723726,-304
1712156884985,599616126532388830,-264
1712156884993,599616126540053934,-134
1712156885001,599616126547719038,-88
1712156885008,599616126555384142,-160
1712156885016,599616126563049246,-213
1712156885024,599616126570714350,-192
1712156885031,599616126578379454,-169
1712156885039,599616126586044558,-162
1712156885047,599616126593709662,-127
1712156885054,599616126601374766,-99
1712156885062,599616126609039870,-95
1712156885070,599616126616704974,-58
1712156885077,599616126624370078,13
1712156885085,599616126632035182,65
1712156885093,599616126639700286,88
1712156885100,599616126647365390,97
1712156885108,599616126655030494,72
1712156885116,599616126662695598,44
1712156885123,599616126670360702,60
1712156885131,599616126678025806,127
1712156885139,599616126685690910,199
1712156885145,599616126693356014,178
1712156885153,599616126701021118,44
1712156885161,599616126708686222,-62
1712156885169,599616126716351326,-72
1712156885177,599616126724016430,-104
1712156885185,599616126731681534,-157
1712156885192,599616126739346638,-218
1712156885200,599616126747011742,-304
1712156885208,599616126754676846,-313
1712156885215,599616126762341950,-260
1712156885223,599616126770007054,-274
1712156885231,599616126777672158,-271
1712156885238,599616126785337262,-167
1712156885246,599616126793002366,-88
1712156885254,599616126800667470,-74
1712156885261,599616126808332574,-46
1712156885269,599616126815997678,-9
1712156885277,599616126823662782,13
1712156885284,599616126831327886,32
1712156885292,599616126838992990,-11
1712156885300,599616126846658094,-125
1712156885307,599616126854323198,-134
1712156885315,599616126861988302,-18
1712156885323,599616126869653406,51
1712156885329,599616126877318510,81
1712156885337,599616126884983614,127
1712156885345,599616126892648718,102
1712156885353,599616126900313822,-46
1712156885361,599616126907978926,-171
1712156885369,599616126915644030,-118
1712156885376,599616126923309134,-39
1712156885384,599616126930974238,-97
1712156885391,599616126938639342,-97
1712156885399,599616126946304446,39
1712156885407,599616126953969550,102
1712156885414,599616126961634654,74
1712156885422,599616126969299758,78
1712156885430,599616126976964862,69
1712156885437,599616126984629966,-18
1712156885445,599616126992295070,-99
1712156885453,599616126999960174,-85
1712156885460,599616127007625278,9
1712156885468,599616127015290382,69
1712156885476,599616127022955486,9
1712156885483,599616127030620590,-53
1712156885491,599616127038285694,-53
1712156885499,599616127045950798,-99
1712156885505,599616127053615926,-123
1712156885513,599616127061281030,-60
1712156885521,599616127068946134,-23
1712156885529,599616127076611238,-20
1712156885537,599616127084276342,-23
1712156885545,599616127091941446,-55
1712156885552,599616127099606550,81
1712156885560,599616127107271654,546
1712156885568,599616127114936758,885
1712156885575,599616127122601862,597
1712156885583,599616127130266966,90
1712156885591,599616127137932070,-25
1712156885598,599616127145597174,30
1712156885606,599616127153262278,-6
1712156885614,599616127160927382,-16
1712156885621,599616127168592486,-2
1712156885629,599616127176257590,-2
1712156885637,599616127183922694,-9
1712156885644,599616127191587798,-53
1712156885652,599616127199252902,-102
1712156885660,599616127206918006,-92
1712156885667,599616127214583110,-46
1712156885675,599616127222248214,0
1712156885683,599616127229913318,9
1712156885689,599616127237578422,-32
1712156885697,599616127245243526,-44
1712156885705,599616127252908630,2
1712156885713,599616127260573734,44
1712156885721,599616127268238838,85
1712156885729,599616127275903942,88
1712156885736,599616127283569046,11
1712156885744,599616127291234150,-39
1712156885752,599616127298899254,-18
1712156885759,599616127306564358,27
1712156885767,599616127314229462,99
1712156885775,599616127321894566,169
1712156885782,599616127329559670,157
1712156885790,599616127337224774,123
1712156885798,599616127344889878,141
1712156885805,599616127352554982,139
1712156885813,599616127360220086,88
1712156885821,599616127367885190,39
1712156885828,599616127375550294,-60
1712156885836,599616127383215398,-216
1712156885844,599616127390880502,-276
1712156885851,599616127398545606,-253
1712156885859,599616127406210710,-311
1712156885867,599616127413875814,-397
1712156885873,599616127421540918,-388
1712156885881,599616127429206022,-376
1712156885889,599616127436871126,-401
1712156885897,599616127444536230,-362
1712156885905,599616127452201334,-278
1712156885913,599616127459866438,-204
1712156885920,599616127467531542,-125
1712156885928,599616127475196646,-111
1712156885936,599616127482861750,-174
1712156885943,599616127490526854,-146
1712156885951,599616127498191958,-27
1712156885959,599616127505857062,-13
1712156885966,599616127513522166,-58
1712156885974,599616127521187270,-18
1712156885982,599616127528852374,-6
1712156885989,599616127536517478,-62
1712156885997,599616127544182582,-41
1712156886005,599616127551847686,23
1712156886012,599616127559512790,58
1712156886020,599616127567177894,83
1712156886028,599616127574842998,41
1712156886035,599616127582508102,-51
1712156886043,599616127590173206,-53
1712156886051,599616127597838310,30
1712156886057,599616127605503414,90
1712156886065,599616127613168542,99
1712156886073,599616127620833646,69
1712156886081,599616127628498750,37
1712156886089,599616127636163854,65
1712156886097,599616127643828958,139
1712156886104,599616127651494062,195
1712156886112,599616127659159166,213
1712156886120,599616127666824270,169
1712156886127,599616127674489374,83
1712156886135,599616127682154478,74
1712156886143,599616127689819582,141
1712156886150,599616127697484686,169
