phoneTimestamp,sensorTimestamp,ecg
1712073626324,599616161082726360,14435
1712073626331,599616161090390697,14508
1712073626339,599616161098055034,14623
1712073626345,599616161105719371,14589
1712073626353,599616161113383708,14421
1712073626361,599616161121048045,14400
1712073626369,599616161128712382,14458
1712073626377,599616161136376719,14462
1712073626385,599616161144041056,14538
1712073626392,599616161151705393,14520
1712073626400,599616161159369730,14281
1712073626408,599616161167034067,14147
1712073626415,599616161174698404,14173
1712073626423,599616161182362741,14152
1712073626431,599616161190027078,14143
1712073626438,599616161197691415,14131
1712073626446,599616161205355752,14012
1712073626454,599616161213020089,13987
1712073626461,599616161220684426,14021
1712073626469,599616161228348763,13851
1712073626477,599616161236013100,13678
1712073626484,599616161243677437,13589
1712073626492,599616161251341774,13416
1712073626500,599616161259006111,13407
1712073626507,599616161266670448,13474
1712073626515,599616161274334785,12991
1712073626523,599616161281999122,12189
1712073626529,599616161289663459,11793
1712073626537,599616161297327796,12035
1712073626545,599616161304992133,12786
1712073626553,599616161312656470,13152
1712073626561,599616161320320807,12734
1712073626569,599616161327985144,12478
1712073626576,599616161335649481,12483
1712073626584,599616161343313818,12180
1712073626592,599616161350978155,11922
1712073626599,599616161358642492,11922
1712073626607,599616161366306829,11839
1712073626615,599616161373971166,11777
1712073626622,599616161381635503,11768
1712073626630,599616161389299840,11499
1712073626638,599616161396964177,11191
1712073626645,599616161404628514,11124
1712073626653,599616161412292851,11051
1712073626661,599616161419957188,10927
1712073626668,599616161427621525,10846
1712073626676,599616161435285862,10669
1712073626684,599616161442950199,10439
1712073626691,599616161450614536,10331
1712073626699,599616161458278873,10299
1712073626707,599616161465943210,10237
1712073626713,599616161473607547,10044
1712073626721,599616161481271884,9784
1712073626729,599616161488936221,9621
1712073626737,599616161496600558,9566
1712073626745,599616161504264895,9545
1712073626753,599616161511929232,9474
1712073626760,599616161519593569,9359
1712073626768,599616161527257906,9251
1712073626776,599616161534922243,9078
1712073626783,599616161542586580,8899
1712073626791,599616161550250917,8830
1712073626799,599616161557915254,8795
1712073626806,599616161565579591,8703
1712073626814,599616161573243928,8572
1712073626822,599616161580908265,8441
1712073626829,599616161588572602,8315
1712073626837,599616161596236939,8221
1712073626845,599616161603901276,8166
1712073626852,599616161611565613,8078
1712073626860,599616161619229950,7954
1712073626868,599616161626894287,7846
1712073626875,599616161634558624,7726
1712073626883,599616161642227994,7616
1712073626891,599616161649892262,7561
1712073626897,599616161657556530,7476
1712073626905,599616161665220798,7352
1712073626913,599616161672885066,7276
1712073626921,599616161680549334,7188
1712073626929,599616161688213602,7060
1712073626937,599616161695877870,7000
1712073626944,599616161703542138,6970
1712073626952,599616161711206406,6873
1712073626960,599616161718870674,6738
1712073626967,599616161726534942,6552
1712073626975,599616161734199210,6340
1712073626983,599616161741863478,6264
1712073626990,599616161749527746,6230
1712073626998,599616161757192014,6110
1712073627006,599616161764856282,6073
1712073627013,599616161772520550,6027
1712073627021,599616161780184818,5786
1712073627029,599616161787849086,5639
1712073627036,599616161795513354,5664
1712073627044,599616161803177622,5607
1712073627052,599616161810841890,5531
1712073627059,599616161818506158,5524
1712073627067,599616161826170426,5446
1712073627075,599616161833834694,5331
1712073627081,599616161841498962,5285
1712073627089,599616161849163230,5232
1712073627097,599616161856827498,5170
1712073627105,599616161864491766,5165
1712073627113,599616161872156034,5149
1712073627121,599616161879820302,4993
1712073627128,599616161887484570,4604
1712073627136,599616161895148838,4069
1712073627144,599616161902813106,3765
1712073627151,599616161910477374,4184
1712073627159,599616161918141642,5080
1712073627167,599616161925805910,5326
1712073627174,599616161933470178,4834
1712073627182,599616161941134446,4588
1712073627190,599616161948798714,4637
1712073627197,599616161956462982,4508
1712073627205,599616161964127250,4312
1712073627213,599616161971791518,4214
1712073627220,599616161979455786,4131
1712073627228,599616161987120054,4043
1712073627236,599616161994784322,3956
1712073627243,599616162002448590,3862
1712073627251,599616162010112858,3802
1712073627259,599616162017777126,3751
1712073627265,599616162025441394,3648
1712073627273,599616162033105662,3540
1712073627281,599616162040769930,3482
1712073627289,599616162048434198,3448
1712073627297,599616162056098466,3407
1712073627305,599616162063762734,3363
1712073627312,599616162071427002,3285
1712073627320,599616162079091270,3195
1712073627328,599616162086755538,3161
1712073627335,599616162094419806,3147
1712073627343,599616162102084074,3135
1712073627351,599616162109748342,3133
1712073627358,599616162117412610,3048
1712073627366,599616162125076878,2926
1712073627374,599616162132741146,2905
1712073627381,599616162140405414,2899
1712073627389,599616162148069682,2839
1712073627397,599616162155733950,2827
1712073627404,599616162163398218,2802
1712073627412,599616162171062486,2715
1712073627420,599616162178726754,2680
1712073627427,599616162186391022,2694
1712073627435,599616162194055290,2678
1712073627441,599616162201719574,2639
1712073627449,599616162209383842,2533
1712073627457,599616162217048110,2404
1712073627465,599616162224712378,2384
1712073627473,599616162232376646,2413
1712073627481,599616162240040914,2390
1712073627488,599616162247705182,2370
1712073627496,599616162255369450,2331
1712073627504,599616162263033718,2197
1712073627511,599616162270697986,2043
1712073627519,599616162278362254,1947
1712073627527,599616162286026522,1912
1712073627534,599616162293690790,1921
1712073627542,599616162301355058,1919
1712073627550,599616162309019326,1875
1712073627557,599616162316683594,1850
1712073627565,599616162324347862,1869
1712073627573,599616162332012130,1894
1712073627580,599616162339676398,1894
1712073627588,599616162347340666,1880
1712073627596,599616162355004934,1871
1712073627603,599616162362669202,1859
1712073627611,599616162370333470,1850
1712073627619,599616162377997738,1859
1712073627625,599616162385662006,1866
1712073627633,599616162393326274,1848
1712073627641,599616162400990542,1804
1712073627649,599616162408654810,1763
1712073627657,599616162416319078,1756
1712073627665,599616162423983346,1781
1712073627672,599616162431647614,1795
1712073627680,599616162439311882,1774
1712073627688,599616162446976150,1721
1712073627695,599616162454640418,1648
1712073627703,599616162462304686,1586
1712073627711,599616162469968954,1577
1712073627718,599616162477633222,1593
1712073627726,599616162485297490,1581
1712073627734,599616162492961758,1588
1712073627741,599616162500626026,1618
1712073627749,599616162508290294,1510
1712073627757,599616162515954562,1163
1712073627764,599616162523618830,740
1712073627772,599616162531283098,537
1712073627780,599616162538947366,988
1712073627787,599616162546611634,1882
1712073627795,599616162554275902,2112
1712073627803,599616162561940170,1664
1712073627809,599616162569604438,1524
1712073627817,599616162577268706,1602
1712073627825,599616162584932974,1471
1712073627833,599616162592597242,1370
1712073627841,599616162600261510,1361
1712073627849,599616162607925778,1285
1712073627856,599616162615590046,1232
1712073627864,599616162623254314,1220
1712073627872,599616162630918582,1186
1712073627879,599616162638582850,1170
1712073627887,599616162646247118,1160
1712073627895,599616162653911386,1115
1712073627902,599616162661575654,1075
1712073627910,599616162669239922,1052
1712073627918,599616162676904190,1029
1712073627925,599616162684568458,1025
1712073627933,599616162692232726,1011
1712073627941,599616162699896994,937
1712073627948,599616162707561262,866
1712073627956,599616162715225530,834
1712073627964,599616162722889798,777
1712073627971,599616162730554066,733
1712073627979,599616162738218334,714
1712073627987,599616162745882602,666
1712073627993,599616162753546870,636
1712073628001,599616162761241250,650
1712073628009,599616162768905100,659
1712073628017,599616162776568950,623
1712073628025,599616162784232800,574
1712073628033,599616162791896650,579
1712073628040,599616162799560500,590
1712073628048,599616162807224350,560
1712073628056,599616162814888200,558
1712073628063,599616162822552050,606
1712073628071,599616162830215900,643
1712073628079,599616162837879750,655
1712073628086,599616162845543600,646
1712073628094,599616162853207450,625
1712073628102,599616162860871300,625
1712073628109,599616162868535150,652
1712073628117,599616162876199000,689
1712073628125,599616162883862850,714
1712073628132,599616162891526700,708
1712073628140,599616162899190550,666
1712073628148,599616162906854400,646
1712073628155,599616162914518250,682
1712073628163,599616162922182100,721
1712073628171,599616162929845950,740
1712073628177,599616162937509800,740
1712073628185,599616162945173650,680
1712073628193,599616162952837500,613
1712073628201,599616162960501350,636
1712073628209,599616162968165200,689
1712073628217,599616162975829050,701
1712073628224,599616162983492900,712
1712073628232,599616162991156750,703
1712073628240,599616162998820600,666
1712073628247,599616163006484450,666
1712073628255,599616163014148300,696
1712073628263,599616163021812150,705
1712073628270,599616163029476000,685
1712073628278,599616163037139850,636
1712073628286,599616163044803700,609
1712073628293,599616163052467550,639
1712073628301,599616163060131400,685
1712073628309,599616163067795250,698
1712073628316,599616163075459100,701
1712073628324,599616163083122950,662
1712073628332,599616163090786800,542
1712073628339,599616163098450650,462
1712073628347,599616163106114500,505
1712073628355,599616163113778350,554
1712073628361,599616163121442200,572
1712073628369,599616163129106050,586
1712073628377,599616163136769900,432
1712073628385,599616163144433750,34
1712073628393,599616163152097600,-367
1712073628401,599616163159761450,-390
1712073628408,599616163167425300,275
1712073628416,599616163175089150,1110
1712073628424,599616163182753000,1126
1712073628431,599616163190416850,650
1712073628439,599616163198080700,514
1712073628447,599616163205744550,547
1712073628454,599616163213408400,441
1712073628462,599616163221072250,379
1712073628470,599616163228736100,397
1712073628477,599616163236399950,367
1712073628485,599616163244063800,337
1712073628493,599616163251727650,365
1712073628500,599616163259391500,370
1712073628508,599616163267055350,335
1712073628515,599616163274719200,303
1712073628523,599616163282383050,229
1712073628531,599616163290046900,142
1712073628537,599616163297710750,149
1712073628545,599616163305374600,170
1712073628553,599616163313038450,105
1712073628561,599616163320672216,36
1712073628569,599616163328336484,9
1712073628577,599616163336000752,-45
1712073628584,599616163343665020,-103
1712073628592,599616163351329288,-103
1712073628600,599616163358993556,-94
1712073628607,599616163366657824,-82
1712073628615,599616163374322092,-36
1712073628623,599616163381986360,-2
1712073628630,599616163389650628,18
1712073628638,599616163397314896,71
1712073628646,599616163404979164,119
1712073628653,599616163412643432,151
1712073628661,599616163420307700,204
1712073628669,599616163427971968,255
1712073628676,599616163435636236,234
1712073628684,599616163443300504,174
1712073628692,599616163450964772,163
1712073628699,599616163458629040,195
1712073628707,599616163466293308,232
1712073628715,599616163473957576,211
1712073628721,599616163481621844,119
1712073628729,599616163489286112,64
1712073628737,599616163496950380,89
1712073628745,599616163504614648,117
1712073628753,599616163512278916,142
1712073628761,599616163519943184,177
1712073628768,599616163527607452,179
1712073628776,599616163535271720,163
1712073628784,599616163542935988,177
1712073628791,599616163550600256,204
1712073628799,599616163558264524,236
1712073628807,599616163565928792,271
1712073628814,599616163573593060,278
1712073628822,599616163581257328,266
1712073628830,599616163588921596,264
1712073628837,599616163596585864,289
1712073628845,599616163604250132,328
1712073628853,599616163611914400,363
1712073628860,599616163619578668,377
1712073628868,599616163627242936,354
1712073628876,599616163634907204,314
1712073628883,599616163642571472,312
1712073628891,599616163650235740,335
1712073628899,599616163657900008,358
1712073628905,599616163665564276,395
1712073628913,599616163673228544,423
1712073628921,599616163680892812,383
1712073628929,599616163688557080,310
1712073628937,599616163696221348,308
1712073628945,599616163703885616,349
1712073628952,599616163711549884,367
1712073628960,599616163719214152,354
1712073628968,599616163726878420,326
1712073628975,599616163734542688,333
1712073628983,599616163742206956,395
1712073628991,599616163749871224,393
1712073628998,599616163757535492,160
1712073629006,599616163765199760,-280
1712073629014,599616163772864028,-673
1712073629021,599616163780528296,-537
1712073629029,599616163788192564,296
1712073629037,599616163795856832,882
1712073629044,599616163803521100,567
1712073629052,599616163811185368,195
1712073629060,599616163818849636,218
1712073629067,599616163826513904,167
1712073629075,599616163834178172,59
1712073629083,599616163841842440,108
1712073629089,599616163849506708,156
1712073629097,599616163857170976,126
1712073629105,599616163864835244,94
1712073629113,599616163872499512,64
1712073629121,599616163880163796,62
1712073629129,599616163887828064,91
1712073629136,599616163895492332,112
1712073629144,599616163903156600,112
1712073629152,599616163910820868,66
1712073629159,599616163918485136,-48
1712073629167,599616163926149404,-177
1712073629175,599616163933813672,-257
1712073629182,599616163941477940,-287
1712073629190,599616163949142208,-326
1712073629198,599616163956806476,-386
1712073629205,599616163964470744,-406
1712073629213,599616163972135012,-393
1712073629221,599616163979799280,-360
1712073629228,599616163987463548,-303
1712073629236,599616163995127816,-252
1712073629244,599616164002792084,-220
1712073629251,599616164010456352,-181
1712073629259,599616164018120620,-135
1712073629267,599616164025784888,-91
1712073629273,599616164033449156,-39
1712073629281,599616164041113424,-2
1712073629289,599616164048777692,13
1712073629297,599616164056441960,27
1712073629305,599616164064106228,34
1712073629313,599616164071770496,34
1712073629320,599616164079434764,68
1712073629328,599616164087099032,108
1712073629336,599616164094763300,112
1712073629343,599616164102427568,112
1712073629351,599616164110091836,128
1712073629359,599616164117756104,135
1712073629366,599616164125420372,147
1712073629374,599616164133084640,172
1712073629382,599616164140748908,181
1712073629389,599616164148413176,186
1712073629397,599616164156077444,197
1712073629405,599616164163741712,200
1712073629412,599616164171405980,174
1712073629420,599616164179070248,121
1712073629428,599616164186734516,87
1712073629435,599616164194398784,103
1712073629443,599616164202063052,133
1712073629451,599616164209727320,133
1712073629457,599616164217391588,135
1712073629465,599616164225055856,158
1712073629473,599616164232720124,170
1712073629481,599616164240384392,174
1712073629489,599616164248048660,216
1712073629496,599616164255712928,243
1712073629504,599616164263377196,223
1712073629512,599616164271041464,209
1712073629519,599616164278705732,197
1712073629527,599616164286370000,137
1712073629535,599616164294034268,57
1712073629542,599616164301698536,39
1712073629550,599616164309362804,68
1712073629558,599616164317027072,73
1712073629565,599616164324691340,66
1712073629573,599616164332355608,94
1712073629581,599616164340019876,140
1712073629588,599616164347684144,167
1712073629596,599616164355348412,167
1712073629604,599616164363012680,160
1712073629611,599616164370676948,179
1712073629619,599616164378341216,229
1712073629627,599616164386005484,190
1712073629633,599616164393669752,-105
1712073629641,599616164401334020,-563
1712073629649,599616164408998288,-806
1712073629657,599616164416662556,-402
1712073629665,599616164424326824,429
1712073629673,599616164431991092,673
1712073629680,599616164439655378,278
1712073629688,599616164447319646,135
1712073629696,599616164454983914,193
1712073629703,599616164462648182,50
1712073629711,599616164470312450,-11
1712073629719,599616164477976718,78
1712073629726,599616164485640986,94
1712073629734,599616164493305254,68
1712073629742,599616164500969522,68
1712073629749,599616164508633790,39
1712073629757,599616164516298058,25
1712073629765,599616164523962326,55
1712073629772,599616164531626594,73
1712073629780,599616164539290862,59
1712073629788,599616164546955130,-4
1712073629795,599616164554619398,-101
1712073629803,599616164562283666,-167
1712073629811,599616164569947934,-211
1712073629817,599616164577612202,-241
1712073629825,599616164585276470,-232
1712073629833,599616164592940738,-248
1712073629841,599616164600605006,-351
1712073629849,599616164608269274,-423
1712073629857,599616164615933542,-367
1712073629864,599616164623597810,-291
1712073629872,599616164631262078,-255
1712073629880,599616164638926346,-204
1712073629887,599616164646590614,-174
1712073629895,599616164654254882,-167
1712073629903,599616164661919150,-135
1712073629910,599616164669583418,-124
1712073629918,599616164677247686,-128
1712073629926,599616164684911954,-94
1712073629933,599616164692576222,-78
1712073629941,599616164700240490,-96
1712073629949,599616164707904758,-80
1712073629956,599616164715569026,-32
1712073629964,599616164723233294,2
1712073629972,599616164730897562,29
1712073629979,599616164738561830,41
1712073629987,599616164746226098,25
1712073629995,599616164753890366,20
1712073630001,599616164761554634,57
1712073630009,599616164769218902,101
1712073630017,599616164776883170,121
1712073630025,599616164784547438,110
1712073630033,599616164792211706,43
1712073630041,599616164799875974,-36
1712073630048,599616164807540242,-29
1712073630056,599616164815204510,29
1712073630064,599616164822868778,50
1712073630071,599616164830533046,50
1712073630079,599616164838197314,62
1712073630087,599616164845861582,73
1712073630094,599616164853525850,91
1712073630102,599616164861190118,128
1712073630110,599616164868854386,163
1712073630117,599616164876518654,172
1712073630125,599616164884182922,177
1712073630133,599616164891847190,179
1712073630140,599616164899511458,172
1712073630148,599616164907175726,170
1712073630156,599616164914839994,121
1712073630163,599616164922504262,41
1712073630171,599616164930168530,45
1712073630179,599616164937832798,101
1712073630185,599616164945497066,114
1712073630193,599616164953161334,126
1712073630201,599616164960825602,151
1712073630209,599616164968489870,154
1712073630217,599616164976154138,160
1712073630225,599616164983818406,190
1712073630232,599616164991482674,197
1712073630240,599616164999146958,190
1712073630248,599616165006811226,223
1712073630255,599616165014475494,264
1712073630263,599616165022139762,211
1712073630271,599616165029804030,-91
1712073630278,599616165037468298,-616
1712073630286,599616165045132566,-960
1712073630294,599616165052796834,-618
1712073630301,599616165060461102,280
1712073630309,599616165068125370,717
1712073630317,599616165075789638,381
1712073630324,599616165083453906,131
1712073630332,599616165091118174,121
1712073630340,599616165098782442,2
1712073630347,599616165106446710,-68
1712073630355,599616165114110978,-6
1712073630363,599616165121775246,18
1712073630369,599616165129439514,4
1712073630377,599616165137103782,0
1712073630385,599616165144768050,-22
1712073630393,599616165152432318,-71
1712073630401,599616165160096586,-163
1712073630409,599616165167760854,-239
1712073630416,599616165175425122,-266
1712073630424,599616165183089390,-321
1712073630432,599616165190753658,-390
1712073630439,599616165198417926,-402
1712073630447,599616165206082194,-383
1712073630455,599616165213746462,-367
1712073630462,599616165221410730,-354
1712073630470,599616165229074998,-347
1712073630478,599616165236739266,-356
1712073630485,599616165244403534,-360
1712073630493,599616165252067802,-331
1712073630501,599616165259732070,-273
1712073630508,599616165267396338,-209
1712073630516,599616165275060606,-149
1712073630523,599616165282724874,-121
1712073630531,599616165290389142,-108
1712073630539,599616165298053410,-98
1712073630545,599616165305717678,-135
1712073630553,599616165313381946,-160
1712073630561,599616165321046214,-105
1712073630569,599616165328710482,-78
1712073630577,599616165336374750,-110
1712073630585,599616165344039018,-96
1712073630592,599616165351703286,-39
1712073630600,599616165359367554,0
1712073630608,599616165367031822,36
1712073630615,599616165374696090,57
1712073630623,599616165382360358,32
1712073630631,599616165390024626,29
1712073630638,599616165397688894,66
1712073630646,599616165405353162,50
1712073630654,599616165413017430,0
1712073630661,599616165420681698,2
1712073630669,599616165428345966,2
1712073630677,599616165436010234,-18
1712073630684,599616165443674502,16
1712073630692,599616165451338770,75
1712073630700,599616165459003038,108
1712073630707,599616165466667306,119
1712073630715,599616165474331574,110
1712073630723,599616165481995842,96
1712073630729,599616165489660110,126
1712073630737,599616165497324378,174
1712073630745,599616165504988646,202
1712073630753,599616165512652914,220
1712073630761,599616165520317182,220
1712073630769,599616165527981450,197
1712073630776,599616165535645718,200
1712073630784,599616165543309986,229
1712073630792,599616165550974254,248
1712073630799,599616165558668634,248
1712073630807,599616165566332484,229
1712073630815,599616165573996334,209
1712073630822,599616165581660184,223
1712073630830,599616165589324034,264
1712073630838,599616165596987884,298
1712073630845,599616165604651734,301
1712073630853,599616165612315584,278
1712073630861,599616165619979434,223
1712073630868,599616165627643284,131
1712073630876,599616165635307134,82
1712073630884,599616165642970984,75
1712073630891,599616165650634834,4
1712073630899,599616165658298684,-71
1712073630907,599616165665962534,-85
1712073630913,599616165673626384,-266
1712073630921,599616165681290234,-694
1712073630929,599616165688954084,-1059
1712073630937,599616165696617934,-935
1712073630945,599616165704281784,-126
1712073630953,599616165711945634,604
1712073630960,599616165719609484,439
1712073630968,599616165727273334,62
1712073630976,599616165734937184,124
1712073630983,599616165742601034,154
1712073630991,599616165750264884,20
1712073630999,599616165757928734,36
1712073631006,599616165765592584,68
1712073631014,599616165773256434,-32
1712073631022,599616165780920284,-89
1712073631029,599616165788584134,-101
1712073631037,599616165796247984,-172
1712073631045,599616165803911834,-239
1712073631052,599616165811575684,-314
1712073631060,599616165819239534,-420
1712073631068,599616165826903384,-434
1712073631075,599616165834567234,-395
1712073631083,599616165842231084,-409
1712073631091,599616165849894934,-423
1712073631097,599616165857558784,-386
1712073631105,599616165865222634,-363
1712073631113,599616165872886484,-370
1712073631121,599616165880550334,-358
1712073631129,599616165888214184,-342
1712073631137,599616165895878034,-356
1712073631144,599616165903541884,-374
1712073631152,599616165911205734,-349
1712073631160,599616165918869584,-298
1712073631167,599616165926533434,-252
1712073631175,599616165934197284,-206
1712073631183,599616165941861134,-144
1712073631190,599616165949524984,-62
1712073631198,599616165957188834,4
1712073631206,599616165964852684,18
1712073631213,599616165972516534,16
1712073631221,599616165980180384,29
1712073631229,599616165987844234,62
1712073631236,599616165995508084,105
1712073631244,599616166003171934,140
1712073631252,599616166010835784,142
1712073631259,599616166018499634,128
1712073631267,599616166026163484,117
1712073631275,599616166033827334,124
1712073631281,599616166041491184,144
1712073631289,599616166049155034,172
1712073631297,599616166056818884,190
1712073631305,599616166064482734,183
1712073631313,599616166072146584,163
1712073631321,599616166079810434,167
1712073631328,599616166087474284,193
1712073631336,599616166095138134,229
1712073631344,599616166102801984,255
1712073631351,599616166110465834,232
1712073631359,599616166118129696,183
1712073631367,599616166125793546,183
1712073631374,599616166133457396,218
1712073631382,599616166141121246,220
1712073631390,599616166148785096,174
1712073631397,599616166156448946,121
1712073631405,599616166164112796,87
1712073631413,599616166171776646,75
1712073631420,599616166179440496,101
1712073631428,599616166187104346,135
1712073631436,599616166194768196,158
1712073631443,599616166202432046,137
1712073631451,599616166210095896,48
1712073631459,599616166217759746,-20
1712073631465,599616166225423596,34
1712073631473,599616166233087446,108
1712073631481,599616166240751296,121
1712073631489,599616166248415146,121
1712073631497,599616166256078996,98
1712073631505,599616166263742846,57
1712073631512,599616166271406696,41
1712073631520,599616166279070546,34
1712073631528,599616166286734396,41
1712073631535,599616166294398246,87
1712073631543,599616166302062096,62
1712073631550,599616166309725946,-248
1712073631558,599616166317389796,-793
1712073631566,599616166325053646,-1223
1712073631573,599616166332717496,-1121
1712073631581,599616166340381346,-229
1712073631589,599616166348045196,639
1712073631596,599616166355709046,489
1712073631604,599616166363372896,64
1712073631612,599616166371036746,126
1712073631619,599616166378700596,156
1712073631627,599616166386364446,-27
1712073631635,599616166394028296,-144
1712073631641,599616166401692146,-206
1712073631649,599616166409355996,-264
1712073631657,599616166417019846,-298
1712073631665,599616166424683696,-326
1712073631673,599616166432347546,-335
1712073631681,599616166440011396,-342
1712073631688,599616166447675246,-372
1712073631696,599616166455339096,-390
1712073631704,599616166463002946,-367
1712073631711,599616166470666796,-335
1712073631719,599616166478330646,-342
1712073631727,599616166485994496,-360
1712073631734,599616166493658346,-358
1712073631742,599616166501322196,-349
1712073631750,599616166508986046,-337
1712073631757,599616166516649896,-303
1712073631765,599616166524313746,-266
1712073631773,599616166531977596,-255
1712073631780,599616166539641446,-223
1712073631788,599616166547305296,-167
1712073631796,599616166554969146,-133
1712073631803,599616166562632996,-85
1712073631811,599616166570296846,-16
1712073631819,599616166577960696,32
1712073631825,599616166585624546,68
1712073631833,599616166593288396,110
1712073631841,599616166600952246,131
1712073631849,599616166608616096,154
1712073631857,599616166616279946,181
1712073631865,599616166623943796,179
1712073631872,599616166631607646,165
1712073631880,599616166639271496,137
1712073631888,599616166646935346,80
1712073631895,599616166654599196,71
1712073631903,599616166662263046,105
1712073631911,599616166669926896,101
1712073631918,599616166677560662,96
1712073631926,599616166685224930,140
1712073631934,599616166692889198,156
1712073631941,599616166700553466,131
1712073631949,599616166708217734,131
1712073631957,599616166715882002,140
1712073631964,599616166723546270,147
1712073631972,599616166731210538,174
1712073631980,599616166738874806,172
1712073631987,599616166746539074,96
1712073631995,599616166754203342,27
1712073632003,599616166761867610,39
1712073632009,599616166769531878,75
1712073632017,599616166777196146,114
1712073632025,599616166784860414,151
1712073632033,599616166792524682,149
1712073632041,599616166800188950,126
1712073632049,599616166807853218,110
1712073632056,599616166815517486,50
1712073632064,599616166823181754,-45
1712073632072,599616166830846022,-57
1712073632079,599616166838510290,6
1712073632087,599616166846174558,6
1712073632095,599616166853838826,-25
1712073632102,599616166861503094,9
1712073632110,599616166869167362,66
1712073632118,599616166876831630,75
1712073632125,599616166884495898,34
1712073632133,599616166892160166,-48
1712073632141,599616166899824434,-98
1712073632148,599616166907488702,-57
1712073632156,599616166915152970,-66
1712073632164,599616166922817238,-393
1712073632171,599616166930481506,-963
1712073632179,599616166938145774,-1365
1712073632187,599616166945810042,-1009
1712073632193,599616166953474310,158
1712073632201,599616166961138578,825
1712073632209,599616166968802846,406
1712073632217,599616166976467114,126
1712073632225,599616166984131382,273
1712073632233,599616166991795650,170
1712073632240,599616166999459918,11
1712073632248,599616167007124186,91
1712073632256,599616167014788454,131
1712073632263,599616167022452722,41
1712073632271,599616167030116990,-32
1712073632279,599616167037781258,-94
1712073632286,599616167045445526,-177
1712073632294,599616167053109794,-204
1712073632302,599616167060774062,-181
1712073632309,599616167068438330,-179
1712073632317,599616167076102598,-197
1712073632325,599616167083766866,-229
1712073632332,599616167091431134,-266
1712073632340,599616167099095402,-262
1712073632348,599616167106759670,-234
1712073632355,599616167114423938,-220
1712073632363,599616167122088206,-223
1712073632371,599616167129752474,-282
1712073632377,599616167137416742,-356
1712073632385,599616167145081010,-328
1712073632393,599616167152745278,-241
1712073632401,599616167160409546,-179
1712073632409,599616167168073814,-126
1712073632417,599616167175738082,-78
1712073632424,599616167183402350,-59
1712073632432,599616167191066618,-27
1712073632440,599616167198730886,34
1712073632447,599616167206395154,94
1712073632455,599616167214059422,124
1712073632462,599616167221723690,126
1712073632470,599616167229387958,117
1712073632478,599616167237057282,121
1712073632485,599616167244721480,147
1712073632493,599616167252385678,183
1712073632501,599616167260049876,200
1712073632508,599616167267714074,188
1712073632516,599616167275378272,158
1712073632524,599616167283042470,87
1712073632531,599616167290706668,34
1712073632539,599616167298370866,62
1712073632547,599616167306035064,96
1712073632553,599616167313699262,71
1712073632561,599616167321363460,0
1712073632569,599616167329027658,-94
1712073632577,599616167336691856,-121
1712073632585,599616167344356054,-68
1712073632593,599616167352020252,-36
1712073632600,599616167359684450,-29
1712073632608,599616167367348648,-4
1712073632616,599616167375012846,-2
1712073632623,599616167382677044,-29
1712073632631,599616167390341242,-16
1712073632639,599616167398005440,25
1712073632646,599616167405669638,29
1712073632654,599616167413333836,25
1712073632662,599616167420998034,36
1712073632669,599616167428662232,39
1712073632677,599616167436326430,64
1712073632685,599616167443990628,114
1712073632692,599616167451654826,128
1712073632700,599616167459319024,128
1712073632708,599616167466983222,163
1712073632715,599616167474647420,179
1712073632723,599616167482311618,167
1712073632731,599616167489975816,179
1712073632737,599616167497640014,193
1712073632745,599616167505304212,213
1712073632753,599616167512968410,259
1712073632761,599616167520632608,172
1712073632769,599616167528296806,-248
1712073632777,599616167535961004,-852
1712073632784,599616167543625202,-1213
1712073632792,599616167551289400,-783
1712073632800,599616167558953598,374
1712073632807,599616167566617796,944
1712073632815,599616167574281994,473
1712073632823,599616167581946192,172
1712073632830,599616167589610390,287
1712073632838,599616167597274588,209
1712073632846,599616167604938786,110
1712073632853,599616167612602984,188
1712073632861,599616167620267182,174
1712073632869,599616167627931380,52
1712073632876,599616167635595578,0
1712073632884,599616167643259776,-27
1712073632892,599616167650923974,-73
1712073632899,599616167658588172,-112
1712073632907,599616167666252370,-172
1712073632915,599616167673916568,-241
1712073632921,599616167681580766,-275
1712073632929,599616167689244964,-280
1712073632937,599616167696909162,-273
1712073632945,599616167704573360,-259
1712073632953,599616167712237558,-252
1712073632961,599616167719901756,-278
1712073632968,599616167727565954,-308
1712073632976,599616167735230152,-291
1712073632984,599616167742894350,-239
1712073632991,599616167750558548,-193
1712073632999,599616167758222746,-147
1712073633007,599616167765886944,-114
1712073633014,599616167773551142,-110
1712073633022,599616167781215340,-73
1712073633030,599616167788879538,6
1712073633037,599616167796563866,75
1712073633045,599616167804227785,121
1712073633053,599616167811891704,151
1712073633060,599616167819555623,101
1712073633068,599616167827219542,-2
1712073633076,599616167834883461,-25
1712073633083,599616167842547380,36
1712073633091,599616167850211299,73
1712073633099,599616167857875218,78
1712073633105,599616167865539137,52
1712073633113,599616167873203056,-4
1712073633121,599616167880866975,-16
1712073633129,599616167888530894,34
1712073633137,599616167896194813,68
1712073633145,599616167903858732,73
1712073633152,599616167911522651,62
1712073633160,599616167919186570,41
1712073633168,599616167926850489,50
1712073633175,599616167934514408,89
1712073633183,599616167942178327,126
1712073633191,599616167949842246,144
1712073633198,599616167957506165,119
1712073633206,599616167965170084,34
1712073633214,599616167972834003,-18
1712073633221,599616167980497922,29
1712073633229,599616167988161841,85
1712073633237,599616167995825760,96
1712073633244,599616168003489679,98
1712073633252,599616168011153598,89
1712073633260,599616168018817517,75
1712073633267,599616168026481436,82
1712073633275,599616168034145355,89
1712073633283,599616168041809274,89
1712073633289,599616168049473193,108
1712073633297,599616168057137112,128
1712073633305,599616168064801031,126
1712073633313,599616168072464950,121
1712073633321,599616168080128869,151
1712073633329,599616168087792788,179
1712073633336,599616168095456707,177
1712073633344,599616168103120626,179
1712073633352,599616168110784545,181
1712073633359,599616168118448464,149
1712073633367,599616168126112383,163
1712073633375,599616168133776302,188
1712073633382,599616168141440221,-80
1712073633390,599616168149104140,-701
1712073633398,599616168156768059,-1239
1712073633405,599616168164431978,-1082
1712073633413,599616168172095897,-32
1712073633421,599616168179759816,802
1712073633428,599616168187423735,510
1712073633436,599616168195087654,87
1712073633444,599616168202751573,186
1712073633451,599616168210415492,165
1712073633459,599616168218079411,6
1712073633467,599616168225743330,48
1712073633473,599616168233407249,87
1712073633481,599616168241071168,32
1712073633489,599616168248735087,41
1712073633497,599616168256399006,59
1712073633505,599616168264062925,25
1712073633513,599616168271726844,-6
1712073633520,599616168279390763,-52
1712073633528,599616168287054682,-105
1712073633535,599616168294718601,-158
1712073633543,599616168302382520,-232
1712073633551,599616168310046439,-278
1712073633558,599616168317710358,-285
1712073633566,599616168325374277,-328
1712073633574,599616168333038196,-434
1712073633581,599616168340702115,-505
1712073633589,599616168348366034,-471
1712073633597,599616168356004886,-441
1712073633604,599616168363669154,-496
1712073633612,599616168371333422,-521
1712073633620,599616168378997690,-441
1712073633627,599616168386661958,-349
1712073633635,599616168394326226,-287
1712073633643,599616168401990494,-239
1712073633649,599616168409654762,-218
1712073633657,599616168417319030,-190
1712073633665,599616168424983298,-128
1712073633673,599616168432647566,-66
1712073633681,599616168440311834,-22
1712073633689,599616168447976102,0
1712073633696,599616168455640370,-4
1712073633704,599616168463304638,-16
1712073633712,599616168470968906,0
1712073633719,599616168478633174,36
1712073633727,599616168486297442,68
1712073633735,599616168493961710,89
1712073633742,599616168501625978,78
1712073633750,599616168509290246,57
1712073633758,599616168516954514,71
1712073633765,599616168524618782,112
1712073633773,599616168532283050,140
1712073633781,599616168539947318,147
1712073633788,599616168547611586,89
1712073633796,599616168555275854,-11
1712073633804,599616168562940122,-20
1712073633811,599616168570604390,43
1712073633819,599616168578268658,75
1712073633827,599616168585932926,98
1712073633833,599616168593597194,112
1712073633841,599616168601261462,64
1712073633849,599616168608925730,-2
1712073633857,599616168616589998,-13
1712073633865,599616168624254266,29
1712073633873,599616168631918534,68
1712073633880,599616168639582802,68
1712073633888,599616168647247070,39
1712073633896,599616168654911338,16
1712073633903,599616168662575606,27
1712073633911,599616168670239874,75
1712073633919,599616168677904142,133
1712073633926,599616168685568410,167
1712073633934,599616168693232678,142
1712073633942,599616168700896946,112
1712073633949,599616168708561214,140
1712073633957,599616168716225482,186
1712073633965,599616168723889750,202
1712073633972,599616168731554018,211
1712073633980,599616168739218286,202
1712073633988,599616168746882554,193
1712073633995,599616168754546822,243
1712073634003,599616168762211090,211
1712073634011,599616168769875358,-140
1712073634017,599616168777539626,-698
1712073634025,599616168785203894,-1050
1712073634033,599616168792868162,-632
1712073634041,599616168800532430,423
1712073634049,599616168808196698,834
1712073634057,599616168815860966,374
1712073634064,599616168823525234,172
1712073634072,599616168831189502,271
1712073634080,599616168838853770,112
1712073634087,599616168846518038,-85
1712073634095,599616168854182306,-121
1712073634103,599616168861846574,-147
1712073634110,599616168869510842,-177
1712073634118,599616168877175110,-163
1712073634126,599616168884839378,-163
1712073634133,599616168892503646,-186
1712073634141,599616168900167914,-181
1712073634149,599616168907832182,-170
1712073634156,599616168915496466,-216
1712073634164,599616168923160734,-285
1712073634172,599616168930825002,-331
1712073634179,599616168938489270,-383
1712073634187,599616168946153538,-427
1712073634195,599616168953817806,-416
1712073634201,599616168961482074,-390
1712073634209,599616168969146342,-397
1712073634217,599616168976810610,-404
1712073634225,599616168984474878,-427
1712073634233,599616168992139146,-482
1712073634241,599616168999803414,-471
1712073634248,599616169007467682,-393
1712073634256,599616169015131950,-342
1712073634264,599616169022796218,-291
1712073634271,599616169030460486,-234
1712073634279,599616169038124754,-209
1712073634287,599616169045789022,-181
1712073634294,599616169053453290,-124
1712073634302,599616169061117558,-98
1712073634310,599616169068781826,-85
1712073634317,599616169076446094,-48
1712073634325,599616169084110362,-32
1712073634333,599616169091774630,-43
1712073634340,599616169099438898,-80
1712073634348,599616169107103166,-137
1712073634356,599616169114767434,-140
1712073634363,599616169122431702,-82
1712073634371,599616169130095970,-55
1712073634379,599616169137760238,-59
1712073634385,599616169145424506,-50
1712073634393,599616169153088774,-36
1712073634401,599616169160753042,-22
1712073634409,599616169168417310,13
1712073634417,599616169176081578,52
1712073634425,599616169183745846,55
1712073634432,599616169191410114,52
1712073634440,599616169199074382,64
1712073634448,599616169206738650,80
1712073634455,599616169214402918,108
1712073634463,599616169222067186,149
1712073634471,599616169229731454,154
1712073634478,599616169237395722,126
1712073634486,599616169245059990,128
1712073634493,599616169252724258,165
1712073634501,599616169260388526,202
1712073634509,599616169268052794,225
1712073634516,599616169275717062,225
1712073634524,599616169283381330,204
1712073634532,599616169291045598,179
1712073634539,599616169298709866,163
1712073634547,599616169306374134,179
1712073634555,599616169314038402,225
1712073634561,599616169321702670,266
1712073634569,599616169329366938,255
1712073634577,599616169337031206,211
1712073634585,599616169344695474,170
1712073634593,599616169352359742,98
1712073634601,599616169360024010,39
1712073634608,599616169367688278,66
1712073634616,599616169375352546,85
1712073634624,599616169383016814,34
1712073634631,599616169390681082,52
1712073634639,599616169398345350,144
1712073634647,599616169406009618,103
1712073634654,599616169413673886,-200
1712073634662,599616169421338154,-652
1712073634670,599616169429002422,-958
1712073634677,599616169436666690,-593
1712073634685,599616169444330958,358
1712073634693,599616169451995226,728
1712073634700,599616169459659494,319
1712073634708,599616169467323762,140
1712073634716,599616169474988046,200
1712073634723,599616169482652314,68
1712073634731,599616169490316582,16
1712073634739,599616169497980850,103
1712073634745,599616169505645118,103
1712073634753,599616169513309386,57
1712073634761,599616169520973654,6
1712073634769,599616169528637922,-94
1712073634777,599616169536302190,-126
1712073634785,599616169543966458,-75
1712073634792,599616169551630726,-71
1712073634800,599616169559294994,-135
1712073634808,599616169566959262,-211
1712073634815,599616169574623530,-287
1712073634823,599616169582287798,-356
1712073634831,599616169589952066,-406
1712073634838,599616169597616334,-457
1712073634846,599616169605280602,-485
1712073634854,599616169612944870,-485
1712073634861,599616169620609138,-489
1712073634869,599616169628273406,-478
1712073634877,599616169635937674,-427
1712073634884,599616169643601942,-372
1712073634892,599616169651266210,-328
1712073634900,599616169658930478,-289
1712073634907,599616169666594746,-257
1712073634915,599616169674259014,-223
1712073634923,599616169681923282,-163
1712073634929,599616169689587550,-91
1712073634937,599616169697251818,-48
1712073634945,599616169704916086,-36
1712073634953,599616169712580354,-32
1712073634961,599616169720244622,-18
1712073634969,599616169727908890,-2
1712073634976,599616169735573158,29
1712073634984,599616169743237426,50
1712073634992,599616169750901694,48
1712073634999,599616169758565962,52
1712073635007,599616169766230230,59
1712073635015,599616169773894498,57
1712073635022,599616169781558766,73
1712073635030,599616169789223034,103
1712073635038,599616169796887302,103
1712073635045,599616169804551570,105
1712073635053,599616169812215838,121
1712073635061,599616169819880106,112
1712073635068,599616169827544374,112
1712073635076,599616169835208642,119
1712073635084,599616169842872910,62
1712073635091,599616169850537178,-4
1712073635099,599616169858201446,-57
1712073635107,599616169865865714,-149
1712073635113,599616169873529982,-165
1712073635121,599616169881194250,-103
1712073635129,599616169888858518,-87
1712073635137,599616169896522786,-82
1712073635145,599616169904187054,-29
1712073635153,599616169911851322,-6
1712073635160,599616169919515590,-20
1712073635168,599616169927179858,-16
1712073635176,599616169934844126,-6
1712073635183,599616169942508394,-4
1712073635191,599616169950172662,36
1712073635199,599616169957836930,89
1712073635206,599616169965501198,96
1712073635214,599616169973165466,87
1712073635222,599616169980829734,96
1712073635229,599616169988494002,117
1712073635237,599616169996158270,149
1712073635245,599616170003822538,174
1712073635252,599616170011486806,170
1712073635260,599616170019151074,156
1712073635268,599616170026815342,156
1712073635275,599616170034509722,188
1712073635283,599616170042173572,165
1712073635291,599616170049837422,-87
1712073635297,599616170057501272,-563
1712073635305,599616170065165122,-942
1712073635313,599616170072828972,-680
1712073635321,599616170080492822,252
1712073635329,599616170088156672,708
1712073635337,599616170095820522,287
1712073635344,599616170103484372,4
1712073635352,599616170111148222,6
1712073635360,599616170118812072,-167
1712073635367,599616170126475922,-255
1712073635375,599616170134139772,-142
1712073635383,599616170141803622,-108
1712073635390,599616170149467472,-133
1712073635398,599616170157131322,-133
1712073635406,599616170164795172,-156
1712073635413,599616170172459022,-163
1712073635421,599616170180122872,-121
1712073635429,599616170187786722,-112
1712073635436,599616170195450572,-156
1712073635444,599616170203114422,-225
1712073635452,599616170210778272,-303
1712073635459,599616170218442122,-370
1712073635467,599616170226105972,-374
1712073635475,599616170233769822,-354
1712073635481,599616170241433672,-349
1712073635489,599616170249097522,-354
1712073635497,599616170256761372,-370
1712073635505,599616170264425222,-372
1712073635513,599616170272089072,-335
1712073635521,599616170279752922,-273
1712073635528,599616170287416772,-218
1712073635536,599616170295080622,-174
1712073635544,599616170302744472,-165
1712073635551,599616170310408322,-147
1712073635559,599616170318072172,-75
1712073635567,599616170325736022,-22
1712073635574,599616170333399872,-43
1712073635582,599616170341063722,-71
1712073635590,599616170348727572,-80
1712073635597,599616170356391422,-108
1712073635605,599616170364055272,-172
1712073635612,599616170371719122,-227
1712073635620,599616170379382972,-200
1712073635628,599616170387046822,-147
1712073635635,599616170394710672,-154
1712073635643,599616170402374522,-170
1712073635651,599616170410038372,-140
1712073635657,599616170417702222,-98
1712073635665,599616170425366072,-62
1712073635673,599616170433029922,-25
1712073635681,599616170440693772,-13
1712073635689,599616170448357622,-22
1712073635697,599616170456021472,-18
1712073635704,599616170463685322,20
1712073635712,599616170471349172,66
1712073635720,599616170479013022,91
1712073635727,599616170486676872,101
1712073635735,599616170494340722,108
1712073635743,599616170502004572,112
1712073635750,599616170509668422,128
1712073635758,599616170517332272,167
1712073635766,599616170524996122,188
1712073635773,599616170532659972,179
1712073635781,599616170540323822,167
1712073635789,599616170547987672,151
1712073635796,599616170555651522,149
1712073635804,599616170563315372,188
1712073635812,599616170570979222,218
1712073635819,599616170578643072,163
1712073635827,599616170586306922,98
1712073635835,599616170593940688,101
1712073635841,599616170601604956,108
1712073635849,599616170609269224,112
1712073635857,599616170616933492,140
1712073635865,599616170624597760,147
1712073635873,599616170632262028,149
1712073635881,599616170639926296,174
1712073635888,599616170647590564,96
1712073635896,599616170655254832,-216
1712073635904,599616170662919100,-682
1712073635911,599616170670583368,-1080
1712073635919,599616170678247636,-931
1712073635927,599616170685911904,18
1712073635934,599616170693576172,735
1712073635942,599616170701240440,439
1712073635950,599616170708904708,80
1712073635957,599616170716568976,156
1712073635965,599616170724233244,108
1712073635973,599616170731897512,-20
1712073635980,599616170739561780,13
1712073635988,599616170747226048,32
1712073635996,599616170754890316,-13
1712073636003,599616170762554584,-18
1712073636011,599616170770218852,2
1712073636019,599616170777883120,11
1712073636025,599616170785547388,16
1712073636033,599616170793211656,2
1712073636041,599616170800875924,-39
1712073636049,599616170808540192,-103
1712073636057,599616170816204460,-158
1712073636065,599616170823868728,-229
1712073636072,599616170831532996,-328
1712073636080,599616170839197264,-377
1712073636088,599616170846861532,-383
1712073636095,599616170854525800,-397
1712073636103,599616170862190068,-420
1712073636111,599616170869854336,-475
1712073636118,599616170877518604,-519
1712073636126,599616170885182872,-485
1712073636134,599616170892847140,-446
1712073636141,599616170900511408,-425
1712073636149,599616170908175676,-356
1712073636157,599616170915839944,-264
1712073636164,599616170923504212,-195
1712073636172,599616170931168480,-140
1712073636180,599616170938832748,-119
1712073636187,599616170946497016,-126
1712073636195,599616170954161284,-103
1712073636203,599616170961825552,-50
1712073636209,599616170969489820,-9
1712073636217,599616170977154088,20
1712073636225,599616170984818356,29
1712073636233,599616170992482624,6
1712073636241,599616171000146892,11
1712073636249,599616171007811160,55
1712073636256,599616171015475428,89
1712073636264,599616171023139696,110
1712073636272,599616171030803964,105
1712073636279,599616171038468232,59
1712073636287,599616171046132500,50
1712073636295,599616171053796768,96
1712073636302,599616171061461036,126
1712073636310,599616171069125304,96
1712073636318,599616171076789572,34
1712073636325,599616171084453840,-9
1712073636333,599616171092118108,-4
1712073636341,599616171099782376,39
1712073636348,599616171107446644,85
1712073636356,599616171115110912,119
1712073636364,599616171122775180,133
1712073636371,599616171130439448,108
1712073636379,599616171138103716,75
1712073636387,599616171145767984,85
1712073636393,599616171153402174,119
1712073636401,599616171161066860,160
1712073636409,599616171168731546,197
1712073636417,599616171176396232,165
1712073636425,599616171184060918,62
1712073636432,599616171191725604,20
1712073636440,599616171199390290,73
1712073636448,599616171207054976,114
1712073636455,599616171214719662,119
1712073636463,599616171222384348,119
1712073636471,599616171230049034,110
1712073636478,599616171237713720,140
1712073636486,599616171245378406,177
1712073636494,599616171253043092,-11
1712073636501,599616171260707778,-478
1712073636509,599616171268372464,-914
1712073636517,599616171276037150,-823
1712073636524,599616171283701836,29
1712073636532,599616171291366522,779
1712073636540,599616171299031208,574
1712073636547,599616171306695894,170
1712073636555,599616171314360580,170
1712073636563,599616171322025266,82
1712073636569,599616171329689952,-91
1712073636577,599616171337354638,-57
1712073636585,599616171345019324,9
1712073636593,599616171352684010,-22
1712073636601,599616171360348696,-48
1712073636609,599616171368013382,-101
1712073636616,599616171375678068,-225
1712073636624,599616171383342754,-271
1712073636632,599616171391007440,-216
1712073636639,599616171398672126,-200
1712073636647,599616171406336812,-250
1712073636655,599616171414001498,-296
1712073636662,599616171421666184,-333
1712073636670,599616171429330870,-395
1712073636678,599616171436995556,-439
1712073636685,599616171444660242,-432
1712073636693,599616171452324928,-427
1712073636701,599616171459989614,-420
1712073636708,599616171467654300,-390
1712073636716,599616171475318986,-374
1712073636724,599616171482983672,-349
1712073636731,599616171490648358,-296
1712073636739,599616171498313044,-252
1712073636747,599616171505977730,-206
1712073636753,599616171513642416,-135
1712073636761,599616171521307102,-87
1712073636769,599616171528971788,-64
1712073636777,599616171536636474,-25
1712073636785,599616171544301160,0
1712073636793,599616171551965846,9
1712073636800,599616171559630532,9
1712073636808,599616171567295218,-71
1712073636816,599616171574959904,-209
1712073636823,599616171582624590,-278
1712073636831,599616171590289276,-264
1712073636839,599616171597953962,-250
1712073636846,599616171605618648,-234
1712073636854,599616171613283334,-216
1712073636862,599616171620948020,-241
1712073636869,599616171628612706,-275
1712073636877,599616171636277392,-271
1712073636885,599616171643942078,-248
1712073636892,599616171651606764,-220
1712073636900,599616171659271450,-195
1712073636908,599616171666936136,-195
1712073636915,599616171674600822,-218
1712073636923,599616171682265508,-220
1712073636931,599616171689930194,-195
1712073636937,599616171697594880,-163
1712073636945,599616171705259566,-133
1712073636953,599616171712924272,-128
1712073636961,599616171720588958,-163
1712073636969,599616171728253644,-195
1712073636977,599616171735918330,-193
1712073636984,599616171743583016,-172
1712073636992,599616171751247702,-140
1712073637000,599616171758912388,-108
1712073637007,599616171766577074,-121
1712073637015,599616171774241760,-160
1712073637023,599616171781906446,-154
1712073637030,599616171789571132,-112
1712073637038,599616171797235818,-87
1712073637046,599616171804900504,-103
1712073637053,599616171812565190,-206
1712073637061,599616171820229876,-324
1712073637069,599616171827894562,-289
1712073637076,599616171835559248,-183
1712073637084,599616171843223934,-268
1712073637092,599616171850888620,-627
1712073637099,599616171858553306,-1094
1712073637107,599616171866217992,-1331
1712073637115,599616171873882678,-836
1712073637121,599616171881547364,149
1712073637129,599616171889212050,402
1712073637137,599616171896876736,-71
1712073637145,599616171904541422,-234
1712073637153,599616171912206108,-193
1712073637161,599616171919870794,-331
1712073637168,599616171927535480,-370
1712073637176,599616171935200166,-294
1712073637184,599616171942864852,-303
1712073637191,599616171950529538,-328
1712073637199,599616171958194224,-360
1712073637207,599616171965858910,-443
1712073637214,599616171973523596,-457
1712073637222,599616171981188282,-397
1712073637230,599616171988852968,-372
1712073637237,599616171996517654,-372
1712073637245,599616172004182340,-379
1712073637253,599616172011847026,-404
1712073637260,599616172019511712,-429
1712073637268,599616172027176398,-459
1712073637276,599616172034841084,-491
1712073637283,599616172042505770,-526
1712073637291,599616172050170456,-590
1712073637299,599616172057835142,-652
1712073637305,599616172065499828,-639
1712073637313,599616172073164514,-579
1712073637321,599616172080829200,-528
1712073637329,599616172088493886,-489
1712073637337,599616172096158572,-448
1712073637345,599616172103823258,-413
1712073637352,599616172111487944,-395
1712073637360,599616172119152630,-360
1712073637368,599616172126817316,-291
1712073637375,599616172134482002,-243
1712073637383,599616172142146688,-234
1712073637391,599616172149811374,-250
1712073637398,599616172157476060,-303
1712073637406,599616172165140746,-344
1712073637414,599616172172805432,-296
1712073637421,599616172180470118,-243
1712073637429,599616172188134804,-245
1712073637437,599616172195799490,-234
1712073637444,599616172203464176,-213
1712073637452,599616172211128862,-211
1712073637460,599616172218793548,-177
1712073637467,599616172226458234,-135
1712073637475,599616172234122920,-126
1712073637483,599616172241787606,-112
1712073637489,599616172249452292,-87
1712073637497,599616172257116978,-87
1712073637505,599616172264781664,-75
1712073637513,599616172272446370,-39
1712073637521,599616172280111056,-32
1712073637529,599616172287775742,-39
1712073637536,599616172295440428,-29
1712073637544,599616172303105114,-52
1712073637552,599616172310769800,-91
1712073637559,599616172318434486,-80
1712073637567,599616172326099172,-71
1712073637575,599616172333763858,-82
1712073637582,599616172341428544,-68
1712073637590,599616172349093230,-103
1712073637598,599616172356757916,-209
1712073637605,599616172364422602,-232
1712073637613,599616172372087288,-239
1712073637621,599616172379751974,-326
1712073637628,599616172387416660,-331
1712073637636,599616172395081346,-255
1712073637644,599616172402746032,-239
1712073637651,599616172410410718,-241
1712073637659,599616172418075404,-206
1712073637667,599616172425740090,-163
1712073637673,599616172433404776,-85
1712073637681,599616172441069462,-55
1712073637689,599616172448734148,-285
1712073637697,599616172456398834,-756
1712073637705,599616172464063520,-1138
1712073637713,599616172471728206,-935
1712073637720,599616172479392892,0
1712073637728,599616172487057578,685
1712073637735,599616172494722264,381
1712073637743,599616172502386950,-32
1712073637751,599616172510051636,11
1712073637758,599616172517716322,11
1712073637766,599616172525381008,-114
1712073637774,599616172533045694,-114
1712073637781,599616172540710380,-82
1712073637789,599616172548375066,-154
1712073637797,599616172556039752,-223
1712073637804,599616172563704438,-202
1712073637812,599616172571369124,-163
1712073637820,599616172579033810,-147
1712073637827,599616172586698496,-133
1712073637835,599616172594363182,-151
1712073637843,599616172602027868,-197
1712073637849,599616172609692554,-195
1712073637857,599616172617357240,-156
1712073637865,599616172625021926,-140
1712073637873,599616172632686612,-133
1712073637881,599616172640351298,-147
1712073637889,599616172648015984,-227
1712073637896,599616172655680670,-291
1712073637904,599616172663345356,-275
1712073637912,599616172671010042,-273
1712073637919,599616172678674728,-291
1712073637927,599616172686339414,-275
1712073637935,599616172694004100,-268
1712073637942,599616172701668786,-259
1712073637950,599616172709333472,-190
1712073637958,599616172716998158,-112
1712073637965,599616172724662844,-64
1712073637973,599616172732327530,-43
1712073637981,599616172739992216,-101
1712073637988,599616172747656902,-181
1712073637996,599616172755321588,-154
1712073638004,599616172762986274,-85
1712073638011,599616172770650960,-64
1712073638019,599616172778315646,-52
1712073638027,599616172785980332,-52
1712073638033,599616172793645018,-89
1712073638041,599616172801309704,-124
1712073638049,599616172808974390,-101
1712073638057,599616172816639076,-57
1712073638065,599616172824303762,-57
1712073638073,599616172831968468,-101
1712073638080,599616172839633154,-160
1712073638088,599616172847297840,-188
1712073638096,599616172854962526,-144
1712073638103,599616172862627212,-87
1712073638111,599616172870291898,-73
1712073638119,599616172877956584,-126
1712073638126,599616172885621270,-259
1712073638134,599616172893285956,-347
1712073638142,599616172900950642,-287
1712073638149,599616172908615328,-204
1712073638157,599616172916280014,-183
1712073638165,599616172923944700,-172
1712073638172,599616172931609386,-154
1712073638180,599616172939274072,-151
1712073638188,599616172946938758,-142
1712073638195,599616172954603444,-96
1712073638203,599616172962268130,-39
1712073638211,599616172969932816,-9
1712073638217,599616172977597502,11
1712073638225,599616172985262188,22
1712073638233,599616172992926874,25
1712073638241,599616173000591560,41
1712073638249,599616173008256246,55
1712073638257,599616173015920932,59
1712073638264,599616173023585618,75
1712073638272,599616173031250304,105
1712073638280,599616173038914990,128
1712073638287,599616173046579676,94
1712073638295,599616173054244362,-135
1712073638303,599616173061909048,-590
1712073638310,599616173069573734,-1006
1712073638318,599616173077238420,-903
1712073638326,599616173084903106,-59
1712073638333,599616173092567792,685
1712073638341,599616173100232478,494
1712073638349,599616173107897164,112
1712073638356,599616173115561850,179
1712073638364,599616173123226536,204
1712073638372,599616173130891222,66
1712073638379,599616173138555908,73
1712073638387,599616173146220594,131
1712073638395,599616173153885280,101
1712073638401,599616173161549966,80
1712073638409,599616173169214652,71
1712073638417,599616173176879338,2
1712073638425,599616173184544024,-52
1712073638433,599616173192208710,-48
1712073638441,599616173199873396,-55
1712073638448,599616173207538082,-68
1712073638456,599616173215202768,-48
1712073638464,599616173222867454,-64
1712073638471,599616173230532140,-160
1712073638479,599616173238196826,-236
1712073638487,599616173245861512,-220
1712073638494,599616173253526198,-193
1712073638502,599616173261190884,-172
1712073638510,599616173268855570,-128
1712073638517,599616173276520256,-112
1712073638525,599616173284184942,-158
1712073638533,599616173291849628,-216
1712073638540,599616173299514314,-216
1712073638548,599616173307179000,-174
1712073638556,599616173314843686,-165
1712073638563,599616173322508372,-177
1712073638571,599616173330173058,-163
1712073638579,599616173337837744,-135
1712073638585,599616173345502430,-105
1712073638593,599616173353167116,-80
1712073638601,599616173360831802,-73
1712073638609,599616173368496488,-80
1712073638617,599616173376161174,-151
1712073638625,599616173383825860,-285
1712073638632,599616173391490566,-344
1712073638640,599616173399155252,-289
1712073638648,599616173406819938,-234
1712073638655,599616173414484624,-211
1712073638663,599616173422149310,-202
1712073638671,599616173429813996,-216
1712073638678,599616173437478682,-200
1712073638686,599616173445143368,-137
1712073638694,599616173452808054,-87
1712073638701,599616173460472740,-57
1712073638709,599616173468137426,-68
1712073638717,599616173475802112,-140
1712073638724,599616173483466798,-163
1712073638732,599616173491131484,-94
1712073638740,599616173498796170,-36
1712073638747,599616173506460856,-6
1712073638755,599616173514125542,27
1712073638763,599616173521790228,16
1712073638769,599616173529454914,-41
1712073638777,599616173537119600,-94
1712073638785,599616173544784286,-101
1712073638793,599616173552448972,-64
1712073638801,599616173560113658,-27
1712073638809,599616173567778344,-57
1712073638816,599616173575443030,-110
1712073638824,599616173583107716,-85
1712073638832,599616173590772402,-22
1712073638839,599616173598437088,13
1712073638847,599616173606101774,39
1712073638855,599616173613766460,45
1712073638862,599616173621431146,34
1712073638870,599616173629095832,52
1712073638878,599616173636760518,121
1712073638885,599616173644425204,195
1712073638893,599616173652089890,91
1712073638901,599616173659754576,-331
1712073638908,599616173667419262,-862
1712073638916,599616173675083948,-1002
1712073638924,599616173682748634,-285
1712073638931,599616173690413320,777
1712073638939,599616173698078006,928
1712073638947,599616173705742692,420
1712073638953,599616173713407378,264
1712073638961,599616173721072064,245
1712073638969,599616173728736750,89
1712073638977,599616173736401436,87
1712073638985,599616173744066122,160
1712073638993,599616173751730808,126
1712073639000,599616173759395494,94
1712073639008,599616173767060180,105
1712073639015,599616173774724866,75
1712073639023,599616173782389552,16
1712073639031,599616173790054238,-11
1712073639038,599616173797718924,-20
1712073639046,599616173805383610,-64
1712073639054,599616173813048296,-128
1712073639061,599616173820712982,-149
1712073639069,599616173828377668,-131
1712073639077,599616173836042354,-133
1712073639084,599616173843707040,-151
1712073639092,599616173851371726,-147
1712073639100,599616173859036412,-135
1712073639107,599616173866701098,-135
1712073639115,599616173874365784,-112
1712073639123,599616173882030470,-89
1712073639129,599616173889695156,-151
1712073639137,599616173897359842,-218
1712073639145,599616173905024528,-183
1712073639153,599616173912689214,-167
1712073639161,599616173920353900,-197
1712073639169,599616173928018586,-167
1712073639176,599616173935683272,-142
1712073639184,599616173943347958,-151
1712073639192,599616173951012664,-151
1712073639199,599616173958677350,-177
1712073639207,599616173966342036,-193
1712073639215,599616173974006722,-172
1712073639222,599616173981671408,-165
1712073639230,599616173989336094,-163
1712073639238,599616173997000780,-128
1712073639245,599616174004665466,-140
1712073639253,599616174012330152,-232
1712073639261,599616174019994838,-296
1712073639268,599616174027659524,-319
1712073639276,599616174035324210,-337
1712073639284,599616174042988896,-301
1712073639291,599616174050653582,-245
1712073639299,599616174058318268,-245
1712073639307,599616174065982954,-259
1712073639313,599616174073647640,-250
1712073639321,599616174081312326,-218
1712073639329,599616174088977012,-163
1712073639337,599616174096641698,-119
1712073639345,599616174104306384,-137
1712073639353,599616174111971070,-200
1712073639360,599616174119635756,-197
1712073639368,599616174127300442,-137
1712073639376,599616174134965128,-96
1712073639383,599616174142629814,-68
1712073639391,599616174150294500,-43
1712073639399,599616174157959186,-57
1712073639406,599616174165623872,-68
1712073639414,599616174173288558,-18
1712073639422,599616174180953244,55
1712073639429,599616174188617930,98
1712073639437,599616174196282616,124
1712073639445,599616174203947302,131
1712073639452,599616174211611988,112
1712073639460,599616174219276674,121
1712073639468,599616174226941360,170
1712073639475,599616174234606046,209
1712073639483,599616174242270732,225
1712073639491,599616174249935418,202
1712073639497,599616174257600104,117
1712073639505,599616174265264790,-87
1712073639513,599616174272929476,-526
1712073639521,599616174280594162,-1025
1712073639529,599616174288258848,-1032
1712073639537,599616174295923534,-211
1712073639544,599616174303588220,675
1712073639552,599616174311252906,623
1712073639560,599616174318917592,209
1712073639567,599616174326582278,245
1712073639575,599616174334246964,319
1712073639583,599616174341911650,195
1712073639590,599616174349576336,158
1712073639598,599616174357241022,186
1712073639606,599616174364905708,181
1712073639613,599616174372570394,202
1712073639621,599616174380235080,236
1712073639629,599616174387899766,234
1712073639636,599616174395564452,174
1712073639644,599616174403229138,71
1712073639652,599616174410893824,-9
1712073639659,599616174418558510,-39
1712073639667,599616174426223196,-62
1712073639675,599616174433887882,-85
1712073639681,599616174441552568,-128
1712073639689,599616174449217254,-213
1712073639697,599616174456881940,-259
1712073639705,599616174464546626,-220
1712073639713,599616174472211312,-179
1712073639721,599616174479875998,-167
1712073639728,599616174487540684,-156
1712073639736,599616174495205370,-142
1712073639744,599616174502870056,-117
1712073639751,599616174510534764,-68
1712073639759,599616174518199450,-48
1712073639767,599616174525864136,-62
1712073639774,599616174533528822,-68
1712073639782,599616174541193508,-98
1712073639790,599616174548858194,-167
1712073639797,599616174556522880,-200
1712073639805,599616174564187566,-183
1712073639813,599616174571852252,-172
1712073639820,599616174579516938,-172
1712073639828,599616174587181624,-167
1712073639836,599616174594846310,-165
1712073639843,599616174602510996,-172
1712073639851,599616174610175682,-163
1712073639859,599616174617840368,-137
1712073639865,599616174625505054,-128
1712073639873,599616174633169740,-126
1712073639881,599616174640834426,-149
1712073639889,599616174648499112,-202
1712073639897,599616174656163798,-188
1712073639905,599616174663828484,-133
1712073639912,599616174671493170,-121
1712073639920,599616174679157856,-108
1712073639928,599616174686822542,-71
1712073639935,599616174694487228,-64
1712073639943,599616174702151914,-50
1712073639951,599616174709816600,-9
1712073639958,599616174717481286,6
1712073639966,599616174725145972,25
1712073639974,599616174732810658,71
1712073639981,599616174740475344,89
1712073639989,599616174748140030,85
1712073639997,599616174755804716,91
1712073640004,599616174763469402,62
1712073640012,599616174771134088,9
1712073640020,599616174778798774,0
1712073640027,599616174786463460,-36
1712073640035,599616174794128146,-124
1712073640043,599616174801792832,-131
1712073640049,599616174809457518,-71
1712073640057,599616174817122204,-29
1712073640065,599616174824786890,13
1712073640073,599616174832451576,50
1712073640081,599616174840116262,52
1712073640089,599616174847780948,55
1712073640096,599616174855445634,66
1712073640104,599616174863110320,91
1712073640112,599616174870775006,126
1712073640119,599616174878439692,154
1712073640127,599616174886104378,177
1712073640135,599616174893769064,213
1712073640142,599616174901433750,133
1712073640150,599616174909098436,-250
1712073640158,599616174916763122,-786
1712073640165,599616174924427808,-1020
1712073640173,599616174932092494,-572
1712073640181,599616174939757180,340
1712073640188,599616174947421866,698
1712073640196,599616174955086552,321
1712073640204,599616174962751238,147
1712073640211,599616174970415924,250
1712073640219,599616174978080610,172
1712073640227,599616174985745296,85
1712073640233,599616174993409982,126
1712073640241,599616175001074668,128
1712073640249,599616175008739354,66
1712073640257,599616175016404040,9
1712073640265,599616175024068726,-32
1712073640273,599616175031733412,-119
1712073640280,599616175039398098,-234
1712073640288,599616175047062784,-239
1712073640296,599616175054727470,-183
1712073640303,599616175062392156,-174
1712073640311,599616175070086958,-158
1712073640319,599616175077751226,-151
1712073640326,599616175085415494,-195
1712073640334,599616175093079762,-211
1712073640342,599616175100744030,-165
1712073640349,599616175108408298,-131
1712073640357,599616175116072566,-117
1712073640365,599616175123736834,-121
1712073640372,599616175131401102,-200
1712073640380,599616175139065370,-291
1712073640388,599616175146729638,-268
1712073640395,599616175154393906,-223
1712073640403,599616175162058174,-229
1712073640409,599616175169722442,-218
1712073640417,599616175177386710,-236
1712073640425,599616175185050978,-289
1712073640433,599616175192715246,-245
1712073640441,599616175200379514,-158
1712073640449,599616175208043782,-124
1712073640456,599616175215708050,-108
1712073640464,599616175223372318,-112
1712073640472,599616175231036586,-140
1712073640479,599616175238700854,-126
1712073640487,599616175246365122,-80
1712073640495,599616175254029390,-75
1712073640502,599616175261693658,-119
1712073640510,599616175269357926,-147
1712073640518,599616175277022194,-137
1712073640525,599616175284686462,-124
1712073640533,599616175292350730,-94
1712073640541,599616175300014998,-43
1712073640548,599616175307679266,-11
1712073640556,599616175315343534,-29
1712073640564,599616175323007802,-94
1712073640571,599616175330672070,-147
1712073640579,599616175338336338,-119
1712073640587,599616175346000606,-55
1712073640593,599616175353664874,-32
1712073640601,599616175361329142,-25
1712073640609,599616175368993410,-4
1712073640617,599616175376657678,6
1712073640625,599616175384321946,29
1712073640633,599616175391986214,71
1712073640640,599616175399650482,101
1712073640648,599616175407314750,68
1712073640656,599616175414979018,-22
1712073640663,599616175422643286,-87
1712073640671,599616175430307554,-64
1712073640679,599616175437971822,-13
1712073640686,599616175445636090,-2
1712073640694,599616175453300358,-6
1712073640702,599616175460964626,25
1712073640709,599616175468628894,73
1712073640717,599616175476293162,80
1712073640725,599616175483957430,80
1712073640732,599616175491621698,91
1712073640740,599616175499285966,66
1712073640748,599616175506950234,9
1712073640755,599616175514614502,-18
1712073640763,599616175522278770,-27
1712073640771,599616175529943038,-39
1712073640777,599616175537607306,-2
1712073640785,599616175545271574,59
1712073640793,599616175552935842,71
1712073640801,599616175560600110,-94
1712073640809,599616175568264378,-487
1712073640817,599616175575928646,-864
1712073640824,599616175583592914,-731
1712073640832,599616175591257182,114
1712073640840,599616175598921450,806
1712073640847,599616175606585718,563
1712073640855,599616175614249986,128
1712073640863,599616175621914254,94
1712073640870,599616175629548442,50
1712073640878,599616175637213128,-64
1712073640886,599616175644877814,-32
1712073640893,599616175652542500,27
1712073640901,599616175660207186,9
1712073640909,599616175667871872,-16
1712073640916,599616175675536558,-39
1712073640924,599616175683201244,-55
1712073640932,599616175690865930,-39
1712073640939,599616175698530616,-22
1712073640947,599616175706195302,-39
1712073640955,599616175713859988,-133
1712073640961,599616175721524674,-291
1712073640969,599616175729189360,-367
1712073640977,599616175736854046,-354
1712073640985,599616175744518732,-381
1712073640993,599616175752183418,-462
1712073641001,599616175759848104,-514
1712073641008,599616175767512790,-512
1712073641016,599616175775177476,-501
1712073641024,599616175782842162,-473
1712073641031,599616175790506848,-416
1712073641039,599616175798171534,-349
1712073641047,599616175805836220,-291
1712073641054,599616175813500906,-250
1712073641062,599616175821165592,-218
1712073641070,599616175828830278,-163
1712073641077,599616175836494964,-87
1712073641085,599616175844159650,-29
1712073641093,599616175851824336,-13
1712073641100,599616175859489022,-59
1712073641108,599616175867153708,-126
1712073641116,599616175874818394,-117
1712073641123,599616175882483080,-52
1712073641131,599616175890147766,-9
1712073641139,599616175897812452,18
1712073641145,599616175905477138,36
1712073641153,599616175913141824,-11
1712073641161,599616175920806510,-91
1712073641169,599616175928471196,-82
1712073641177,599616175936135882,-11
1712073641185,599616175943800568,22
1712073641192,599616175951465254,27
1712073641200,599616175959129940,11
1712073641208,599616175966794626,6
1712073641215,599616175974459312,48
1712073641223,599616175982123998,91
1712073641231,599616175989788684,108
1712073641238,599616175997453370,75
1712073641246,599616176005118056,9
1712073641254,599616176012782742,-9
1712073641261,599616176020447428,39
1712073641269,599616176028112114,59
1712073641277,599616176035776800,50
1712073641284,599616176043441486,78
1712073641292,599616176051106172,73
1712073641300,599616176058770858,-25
1712073641307,599616176066435544,-73
1712073641315,599616176074100230,-6
1712073641323,599616176081764916,36
1712073641329,599616176089429602,27
1712073641337,599616176097094288,27
1712073641345,599616176104758974,16
1712073641353,599616176112423660,18
1712073641361,599616176120088346,87
1712073641369,599616176127753032,149
1712073641376,599616176135417718,160
1712073641384,599616176143082404,156
1712073641392,599616176150747090,156
1712073641399,599616176158411776,158
1712073641407,599616176166076462,179
1712073641415,599616176173741148,206
1712073641422,599616176181405834,223
1712073641430,599616176189070540,232
1712073641438,599616176196735226,255
1712073641445,599616176204399912,190
1712073641453,599616176212064598,-121
1712073641461,599616176219729284,-595
1712073641468,599616176227393970,-972
1712073641476,599616176235058656,-832
1712073641483,599616176242723342,50
1712073641491,599616176250388028,652
1712073641499,599616176258052714,243
1712073641505,599616176265717400,-119
1712073641513,599616176273382086,18
1712073641521,599616176281046772,-16
1712073641529,599616176288711458,-151
1712073641537,599616176296376144,-85
1712073641545,599616176304040830,-48
1712073641552,599616176311705516,-87
1712073641560,599616176319370202,-68
1712073641568,599616176327034888,-71
1712073641575,599616176334699574,-131
1712073641583,599616176342364260,-160
1712073641591,599616176350028946,-188
1712073641598,599616176357693632,-239
1712073641606,599616176365358318,-257
1712073641614,599616176373023004,-266
1712073641621,599616176380687690,-294
1712073641629,599616176388352376,-312
1712073641637,599616176396017062,-358
1712073641644,599616176403681748,-425
1712073641652,599616176411346434,-436
1712073641660,599616176419011120,-468
1712073641667,599616176426675806,-540
1712073641675,599616176434340492,-498
1712073641683,599616176442005178,-409
1712073641689,599616176449669864,-381
1712073641697,599616176457334550,-340
1712073641705,599616176464999236,-257
1712073641713,599616176472663922,-186
1712073641721,599616176480328608,-124
1712073641729,599616176487993294,-101
1712073641736,599616176495657980,-124
1712073641744,599616176503322666,-114
1712073641752,599616176510987352,-73
1712073641759,599616176518652038,-39
1712073641767,599616176526316724,9
1712073641775,599616176533981410,62
1712073641782,599616176541646096,82
1712073641790,599616176549310782,71
1712073641798,599616176556975468,68
1712073641805,599616176564640154,78
1712073641813,599616176572304840,94
1712073641821,599616176579969526,128
1712073641828,599616176587634212,126
1712073641836,599616176595298898,39
1712073641844,599616176602963584,-29
1712073641851,599616176610628270,11
1712073641859,599616176618292956,71
1712073641867,599616176625957642,98
1712073641873,599616176633622328,128
1712073641881,599616176641287014,133
1712073641889,599616176648951700,105
1712073641897,599616176656616386,119
1712073641905,599616176664281072,170
1712073641913,599616176671945758,204
1712073641920,599616176679610444,232
1712073641928,599616176687275130,241
1712073641936,599616176694939816,216
1712073641943,599616176702604502,216
1712073641951,599616176710269188,259
1712073641959,599616176717933874,301
1712073641966,599616176725598560,317
1712073641974,599616176733263246,271
1712073641982,599616176740927932,154
1712073641989,599616176748592638,98
1712073641997,599616176756257324,135
1712073642005,599616176763922010,172
1712073642012,599616176771586696,206
1712073642020,599616176779251382,232
1712073642028,599616176786916068,131
1712073642035,599616176794580754,-18
1712073642043,599616176802245440,-11
1712073642051,599616176809910126,39
1712073642057,599616176817574812,-2
1712073642065,599616176825239498,-25
1712073642073,599616176832904184,-18
1712073642081,599616176840568870,-36
1712073642089,599616176848233556,11
1712073642097,599616176855898242,57
1712073642104,599616176863562928,-158
1712073642112,599616176871227614,-648
1712073642120,599616176878892300,-1087
1712073642127,599616176886556986,-954
1712073642135,599616176894221672,2
1712073642143,599616176901886358,788
1712073642150,599616176909551044,535
1712073642158,599616176917215730,101
1712073642166,599616176924880416,68
1712073642173,599616176932545102,-62
1712073642181,599616176940209788,-271
1712073642189,599616176947874474,-257
1712073642196,599616176955539160,-216
1712073642204,599616176963203846,-294
1712073642212,599616176970868532,-326
1712073642219,599616176978533218,-317
1712073642227,599616176986197904,-358
1712073642235,599616176993862590,-367
1712073642241,599616177001527276,-317
1712073642249,599616177009191962,-301
1712073642257,599616177016856648,-312
1712073642265,599616177024521334,-312
1712073642273,599616177032186020,-324
1712073642281,599616177039850706,-335
1712073642288,599616177047515392,-308
1712073642296,599616177055180078,-280
1712073642304,599616177062844764,-280
1712073642311,599616177070509450,-262
1712073642319,599616177078174136,-234
1712073642327,599616177085838822,-220
1712073642334,599616177093503508,-190
1712073642342,599616177101168194,-154
1712073642350,599616177108832880,-121
1712073642357,599616177116497566,-59
1712073642365,599616177124162252,18
1712073642373,599616177131826938,62
1712073642380,599616177139491624,105
1712073642388,599616177147156310,160
1712073642396,599616177154820996,179
1712073642403,599616177162485682,193
1712073642411,599616177170150368,216
1712073642419,599616177177815054,177
1712073642425,599616177185479740,108
1712073642433,599616177193144426,121
1712073642441,599616177200809112,151
1712073642449,599616177208473798,149
1712073642457,599616177216138484,177
1712073642465,599616177223803170,190
1712073642472,599616177231467856,147
1712073642480,599616177239132542,121
1712073642488,599616177246797228,140
1712073642495,599616177254461914,156
1712073642503,599616177262126600,179
1712073642511,599616177269791286,174
1712073642518,599616177277455972,91
1712073642526,599616177285120658,29
1712073642534,599616177292785344,52
1712073642541,599616177300450030,87
1712073642549,599616177308114736,112
1712073642557,599616177315779422,149
1712073642564,599616177323444108,160
1712073642572,599616177331108794,140
1712073642580,599616177338773480,131
1712073642587,599616177346438166,151
1712073642595,599616177354102852,186
1712073642603,599616177361767538,209
1712073642609,599616177369432224,179
1712073642617,599616177377096910,98
1712073642625,599616177384761596,66
1712073642633,599616177392426282,105
1712073642641,599616177400090968,140
1712073642649,599616177407755654,128
1712073642656,599616177415420340,89
1712073642664,599616177423085026,13
1712073642672,599616177430749712,-94
1712073642679,599616177438414398,-133
1712073642687,599616177446079084,-78
1712073642695,599616177453743770,-43
1712073642702,599616177461408456,-36
1712073642710,599616177469073142,-36
1712073642718,599616177476737828,-82
1712073642725,599616177484402514,-108
1712073642733,599616177492067200,-57
1712073642741,599616177499731886,-11
1712073642748,599616177507396572,4
1712073642756,599616177515061258,-13
1712073642763,599616177522725944,-66
1712073642771,599616177530390630,-80
1712073642779,599616177538055316,-190
1712073642785,599616177545720002,-600
1712073642793,599616177553384688,-1108
1712073642801,599616177561049374,-1294
1712073642809,599616177568714060,-714
1712073642817,599616177576378746,252
1712073642825,599616177584043432,427
1712073642832,599616177591708118,-20
1712073642840,599616177599372804,-75
1712073642848,599616177607037490,27
1712073642855,599616177614702176,-121
1712073642863,599616177622366862,-193
1712073642871,599616177630031548,-124
1712073642878,599616177637696234,-124
1712073642886,599616177645360920,-133
1712073642894,599616177653025606,-101
1712073642901,599616177660690292,-142
1712073642909,599616177668354978,-239
1712073642917,599616177676019664,-255
1712073642924,599616177683684350,-202
1712073642932,599616177691349036,-174
1712073642940,599616177699013722,-163
1712073642947,599616177706678408,-156
1712073642955,599616177714343094,-172
1712073642963,599616177722007780,-213
1712073642969,599616177729672466,-239
1712073642977,599616177737337152,-206
1712073642985,599616177745001838,-177
1712073642993,599616177752666524,-177
1712073643001,599616177760331210,-174
1712073643009,599616177767995896,-156
1712073643016,599616177775660582,-108
1712073643024,599616177783325268,-36
1712073643032,599616177790989954,18
1712073643039,599616177798654640,57
1712073643047,599616177806319326,78
1712073643055,599616177813984012,71
1712073643062,599616177821648698,94
1712073643070,599616177829313384,158
1712073643078,599616177836978070,197
1712073643085,599616177844642756,193
1712073643093,599616177852307442,197
1712073643101,599616177859972128,172
1712073643108,599616177867636836,121
1712073643116,599616177875301522,133
1712073643124,599616177882966208,174
1712073643131,599616177890630894,160
1712073643139,599616177898295580,149
1712073643147,599616177905960266,133
1712073643153,599616177913624952,62
1712073643161,599616177921289638,18
1712073643169,599616177928954324,-20
1712073643177,599616177936619010,-103
1712073643185,599616177944283696,-105
1712073643193,599616177951948382,-34
1712073643200,599616177959613068,-20
1712073643208,599616177967277754,-57
1712073643216,599616177974942440,-78
1712073643223,599616177982607126,-82
1712073643231,599616177990271812,-73
1712073643239,599616177997936498,-57
1712073643246,599616178005601184,-89
1712073643254,599616178013265870,-163
1712073643262,599616178020930556,-177
1712073643269,599616178028595242,-179
1712073643277,599616178036259928,-188
1712073643285,599616178043924614,-147
1712073643292,599616178051589300,-108
1712073643300,599616178059253986,-103
1712073643308,599616178066918672,-89
1712073643315,599616178074583358,-64
1712073643323,599616178082248044,-43
1712073643331,599616178089912730,-18
1712073643337,599616178097577416,-6
1712073643345,599616178105242102,-27
1712073643353,599616178112906788,-48
1712073643361,599616178120571474,-27
1712073643369,599616178128236160,13
1712073643377,599616178135900846,52
1712073643384,599616178143565532,71
1712073643392,599616178151230218,27
1712073643400,599616178158894904,-41
1712073643407,599616178166559590,-98
1712073643415,599616178174224276,-137
1712073643423,599616178181888962,-131
1712073643430,599616178189553648,-94
1712073643438,599616178197218334,-110
1712073643446,599616178204883020,-172
1712073643453,599616178212547706,-262
1712073643461,599616178220212392,-480
1712073643469,599616178227877078,-875
1712073643476,599616178235541764,-1239
1712073643484,599616178243206450,-1133
1712073643492,599616178250871136,-305
1712073643499,599616178258535822,448
1712073643507,599616178266200508,296
1712073643515,599616178273865194,-48
1712073643521,599616178281529880,41
1712073643529,599616178289194566,78
1712073643537,599616178296859252,-57
1712073643545,599616178304523938,-68
1712073643553,599616178312188624,-16
1712073643561,599616178319853310,-6
1712073643568,599616178327517996,13
1712073643576,599616178335182682,41
1712073643584,599616178342847368,-9
1712073643591,599616178350512054,-124
1712073643599,599616178358176740,-163
1712073643607,599616178365841426,-112
1712073643614,599616178373506112,-78
1712073643622,599616178381170798,-64
1712073643630,599616178388835484,-52
1712073643637,599616178396500170,-85
1712073643645,599616178404164856,-117
1712073643653,599616178411829542,-87
1712073643660,599616178419494228,-57
1712073643668,599616178427189030,-101
1712073643676,599616178434853298,-188
1712073643683,599616178442517566,-223
1712073643691,599616178450181834,-200
1712073643699,599616178457846102,-195
1712073643705,599616178465510370,-188
1712073643713,599616178473174638,-119
1712073643721,599616178480838906,-36
1712073643729,599616178488503174,-36
1712073643737,599616178496167442,-82
1712073643745,599616178503831710,-66
1712073643752,599616178511495978,4
1712073643760,599616178519160246,45
1712073643768,599616178526824514,50
1712073643775,599616178534488782,43
1712073643783,599616178542153050,-13
1712073643791,599616178549817318,-75
1712073643798,599616178557481586,-43
1712073643806,599616178565145854,25
1712073643814,599616178572810122,45
1712073643821,599616178580474390,48
1712073643829,599616178588138658,55
1712073643837,599616178595802926,59
1712073643844,599616178603467194,85
1712073643852,599616178611131462,131
1712073643860,599616178618795730,154
1712073643867,599616178626459998,154
1712073643875,599616178634124266,158
1712073643883,599616178641788534,167
1712073643889,599616178649452802,179
1712073643897,599616178657117070,195
1712073643905,599616178664781338,170
1712073643913,599616178672445606,114
1712073643921,599616178680109874,110
1712073643929,599616178687774142,119
1712073643936,599616178695438410,87
1712073643944,599616178703102678,39
1712073643952,599616178710766946,-2
1712073643959,599616178718431214,-18
1712073643967,599616178726095482,-2
1712073643975,599616178733759750,-6
1712073643982,599616178741424018,-64
1712073643990,599616178749088286,-75
1712073643998,599616178756752554,-25
1712073644005,599616178764416822,-13
1712073644013,599616178772081090,-16
1712073644021,599616178779745358,2
1712073644028,599616178787409626,-34
1712073644036,599616178795073894,-105
1712073644044,599616178802738162,-119
1712073644051,599616178810402430,-121
1712073644059,599616178818066698,-133
1712073644067,599616178825730966,-108
1712073644073,599616178833395234,-96
1712073644081,599616178841059502,-114
1712073644089,599616178848723770,-105
1712073644097,599616178856388038,-87
1712073644105,599616178864052306,-85
1712073644112,599616178871716574,-71
1712073644120,599616178879380842,-103
1712073644128,599616178887045110,-172
1712073644135,599616178894709378,-170
1712073644143,599616178902373646,-197
1712073644151,599616178910037914,-496
1712073644158,599616178917702182,-956
1712073644166,599616178925366450,-1213
1712073644174,599616178933030718,-848
1712073644181,599616178940694986,75
1712073644189,599616178948359254,471
1712073644197,599616178956023522,27
1712073644204,599616178963687790,-188
1712073644212,599616178971352058,-29
1712073644220,599616178979016326,-91
1712073644227,599616178986650514,-209
1712073644235,599616178994315200,-151
1712073644243,599616179001979886,-110
1712073644249,599616179009644572,-112
1712073644257,599616179017309258,-68
1712073644265,599616179024973944,-48
1712073644273,599616179032638630,-94
1712073644281,599616179040303316,-131
1712073644289,599616179047968002,-121
1712073644296,599616179055632688,-110
1712073644304,599616179063297374,-96
1712073644312,599616179070962060,-89
1712073644319,599616179078626746,-200
1712073644327,599616179086291432,-356
1712073644335,599616179093956118,-347
1712073644342,599616179101620804,-259
1712073644350,599616179109285490,-234
1712073644358,599616179116950176,-202
1712073644365,599616179124614862,-170
1712073644373,599616179132279548,-179
1712073644381,599616179139944234,-151
1712073644388,599616179147608920,-68
1712073644396,599616179155273606,2
1712073644404,599616179162938292,66
1712073644411,599616179170602978,128
1712073644419,599616179178267664,147
1712073644427,599616179185932350,160
1712073644433,599616179193597036,190
1712073644441,599616179201261722,172
1712073644449,599616179208926408,154
1712073644457,599616179216591094,183
1712073644465,599616179224255780,167
1712073644473,599616179231920466,112
1712073644480,599616179239585152,128
1712073644488,599616179247249838,186
1712073644496,599616179254914524,213
1712073644503,599616179262579210,220
1712073644511,599616179270243896,183
1712073644519,599616179277908582,101
1712073644526,599616179285573268,80
1712073644534,599616179293237954,133
1712073644542,599616179300902640,167
1712073644549,599616179308567326,167
1712073644557,599616179316232012,131
1712073644565,599616179323896698,64
1712073644572,599616179331561384,48
1712073644580,599616179339226070,87
1712073644588,599616179346890756,110
1712073644595,599616179354555442,112
1712073644603,599616179362220128,112
1712073644611,599616179369884814,105
1712073644617,599616179377549500,103
1712073644625,599616179385214186,121
1712073644633,599616179392878872,147
1712073644641,599616179400543558,154
1712073644649,599616179408208244,133
1712073644657,599616179415872930,87
1712073644664,599616179423537616,29
1712073644672,599616179431202302,-2
1712073644680,599616179438866988,-55
1712073644687,599616179446531674,-188
1712073644695,599616179454196360,-271
1712073644703,599616179461861046,-268
1712073644710,599616179469525732,-321
1712073644718,599616179477190418,-358
1712073644726,599616179484855104,-291
1712073644733,599616179492519790,-227
1712073644741,599616179500184476,-220
1712073644749,599616179507849162,-202
1712073644756,599616179515513848,-179
1712073644764,599616179523178534,-177
1712073644772,599616179530843220,-156
1712073644779,599616179538507906,-114
1712073644787,599616179546197740,-101
1712073644795,599616179553862077,-87
1712073644801,599616179561526414,-45
1712073644809,599616179569190751,6
1712073644817,599616179576855088,-62
1712073644825,599616179584519425,-420
1712073644833,599616179592183762,-949
1712073644841,599616179599848099,-1177
1712073644848,599616179607512436,-620
1712073644856,599616179615176773,321
1712073644864,599616179622841110,498
1712073644871,599616179630505447,48
1712073644879,599616179638169784,-41
1712073644887,599616179645834121,71
1712073644894,599616179653498458,-11
1712073644902,599616179661162795,-52
1712073644910,599616179668827132,-2
1712073644917,599616179676491469,-9
1712073644925,599616179684155806,-36
1712073644933,599616179691820143,-64
1712073644940,599616179699484480,-87
1712073644948,599616179707148817,-78
1712073644956,599616179714813154,-68
1712073644963,599616179722477491,-71
1712073644971,599616179730141828,-71
1712073644979,599616179737806165,-62
1712073644985,599616179745470502,-39
1712073644993,599616179753134839,-20
1712073645001,599616179760799176,-36
1712073645009,599616179768463513,-78
1712073645017,599616179776127850,-91
1712073645025,599616179783792187,-66
1712073645032,599616179791456524,-32
1712073645040,599616179799120861,2
1712073645048,599616179806785198,-9
1712073645055,599616179814449535,-94
1712073645063,599616179822113872,-117
1712073645071,599616179829778209,-18
1712073645078,599616179837442546,66
1712073645086,599616179845106883,114
1712073645094,599616179852771220,177
1712073645101,599616179860435557,200
1712073645109,599616179868099894,181
1712073645117,599616179875764231,200
1712073645124,599616179883428568,252
1712073645132,599616179891092905,275
1712073645140,599616179898757242,289
1712073645147,599616179906421579,291
1712073645155,599616179914085916,266
1712073645163,599616179921750253,266
1712073645169,599616179929414590,282
1712073645177,599616179937078927,234
1712073645185,599616179944743264,112
1712073645193,599616179952407601,-29
1712073645201,599616179960071938,-133
1712073645209,599616179967736275,-167
1712073645216,599616179975400612,-165
1712073645224,599616179983064949,-149
1712073645232,599616179990729286,-112
1712073645239,599616179998393623,-94
1712073645247,599616180006057960,-121
1712073645254,599616180013722297,-128
1712073645262,599616180021386634,-78
1712073645270,599616180029050971,-43
1712073645277,599616180036715308,-29
1712073645285,599616180044379645,-9
1712073645293,599616180052043982,-27
1712073645300,599616180059708319,-52
1712073645308,599616180067372656,-13
1712073645316,599616180075036993,41
1712073645323,599616180082701330,55
1712073645331,599616180090365667,45
1712073645339,599616180098030004,4
1712073645345,599616180105674320,-50
1712073645353,599616180113338936,-87
1712073645361,599616180121003552,-114
1712073645369,599616180128668168,-121
1712073645377,599616180136332784,-121
1712073645385,599616180143997400,-174
1712073645392,599616180151662016,-312
1712073645400,599616180159326632,-418
1712073645408,599616180166991248,-370
1712073645415,599616180174655864,-291
1712073645423,599616180182320480,-319
1712073645431,599616180189985096,-374
1712073645438,599616180197649712,-367
1712073645446,599616180205314328,-326
1712073645454,599616180212978944,-282
1712073645461,599616180220643560,-234
1712073645469,599616180228308176,-195
1712073645477,599616180235972792,-183
1712073645484,599616180243637408,-163
1712073645492,599616180251302024,-108
1712073645500,599616180258966640,-101
1712073645507,599616180266631256,-312
1712073645515,599616180274295872,-737
1712073645523,599616180281960488,-1075
1712073645529,599616180289625104,-850
1712073645537,599616180297289720,-6
1712073645545,599616180304954336,517
1712073645553,599616180312618952,239
1712073645561,599616180320283568,-11
1712073645569,599616180327948184,78
1712073645576,599616180335612800,50
1712073645584,599616180343277416,-41
1712073645592,599616180350942032,-6
1712073645599,599616180358606648,36
1712073645607,599616180366271264,34
1712073645615,599616180373935880,36
1712073645622,599616180381600496,52
1712073645630,599616180389265112,66
1712073645638,599616180396929728,62
1712073645645,599616180404594344,62
1712073645653,599616180412258960,75
1712073645661,599616180419923576,62
1712073645668,599616180427588192,9
1712073645676,599616180435252808,-41
1712073645684,599616180442917424,-62
1712073645691,599616180450582040,-96
1712073645699,599616180458246656,-190
1712073645707,599616180465911272,-271
1712073645713,599616180473575888,-252
1712073645721,599616180481240504,-209
1712073645729,599616180488905120,-225
1712073645737,599616180496569736,-268
1712073645745,599616180504234352,-257
1712073645753,599616180511898968,-188
1712073645760,599616180519563584,-124
1712073645768,599616180527228200,-52
1712073645776,599616180534892816,22
1712073645783,599616180542557432,66
1712073645791,599616180550222048,89
1712073645799,599616180557886664,112
1712073645806,599616180565551280,135
1712073645814,599616180573215896,172
1712073645822,599616180580880512,206
1712073645829,599616180588545128,209
1712073645837,599616180596209744,188
1712073645845,599616180603874360,179
1712073645852,599616180611538976,181
1712073645860,599616180619203592,167
1712073645868,599616180626868208,135
1712073645875,599616180634532824,117
1712073645883,599616180642197440,96
1712073645891,599616180649862056,48
1712073645897,599616180657526672,22
1712073645905,599616180665216386,45
1712073645913,599616180672880654,43
1712073645921,599616180680544922,-27
1712073645929,599616180688209190,-126
1712073645937,599616180695873458,-193
1712073645944,599616180703537726,-167
1712073645952,599616180711201994,-105
1712073645960,599616180718866262,-71
1712073645967,599616180726530530,-48
1712073645975,599616180734194798,-78
1712073645983,599616180741859066,-186
1712073645990,599616180749523334,-236
1712073645998,599616180757187602,-202
1712073646006,599616180764851870,-202
1712073646013,599616180772516138,-232
1712073646021,599616180780180406,-229
1712073646029,599616180787844674,-241
1712073646036,599616180795508942,-257
1712073646044,599616180803173210,-227
1712073646052,599616180810837478,-193
1712073646059,599616180818501746,-183
1712073646067,599616180826166014,-213
1712073646075,599616180833830282,-294
1712073646081,599616180841494550,-340
1712073646089,599616180849158818,-273
1712073646097,599616180856823086,-202
1712073646105,599616180864487354,-186
1712073646113,599616180872151622,-160
1712073646121,599616180879815890,-149
1712073646128,599616180887480158,-163
1712073646136,599616180895144426,-137
1712073646144,599616180902808694,-80
1712073646151,599616180910472962,-39
1712073646159,599616180918137230,-13
1712073646167,599616180925801498,-71
1712073646174,599616180933465766,-324
1712073646182,599616180941130034,-731
1712073646190,599616180948794302,-1080
1712073646197,599616180956458570,-956
1712073646205,599616180964122838,-135
1712073646213,599616180971787106,528
1712073646220,599616180979451374,296
1712073646228,599616180987115642,-52
1712073646236,599616180994779910,39
1712073646243,599616181002444178,62
1712073646251,599616181010108446,-62
1712073646259,599616181017772714,-52
1712073646265,599616181025436982,-41
1712073646273,599616181033101250,-140
1712073646281,599616181040765518,-163
1712073646289,599616181048429786,-89
1712073646297,599616181056094054,-59
1712073646305,599616181063758322,-71
1712073646312,599616181071422590,-62
1712073646320,599616181079086858,-57
1712073646328,599616181086751126,-66
1712073646335,599616181094415394,-52
1712073646343,599616181102079662,-32
1712073646351,599616181109743930,-34
1712073646358,599616181117408198,-39
1712073646366,599616181125072466,-34
1712073646374,599616181132736734,-43
1712073646381,599616181140401002,-29
1712073646389,599616181148065270,0
1712073646397,599616181155729538,13
1712073646404,599616181163393806,4
1712073646412,599616181171058074,-20
1712073646419,599616181178722342,-32
1712073646427,599616181186386610,9
1712073646435,599616181194050878,66
1712073646441,599616181201715146,103
1712073646449,599616181209379414,147
1712073646457,599616181217043682,193
1712073646465,599616181224677872,172
1712073646473,599616181232342558,131
1712073646481,599616181240007244,151
1712073646488,599616181247671930,170
1712073646496,599616181255336616,170
1712073646504,599616181263001302,190
1712073646511,599616181270665988,135
1712073646519,599616181278330674,-11
1712073646527,599616181285995360,-52
1712073646534,599616181293660046,-11
1712073646542,599616181301324732,-48
1712073646550,599616181308989418,-78
1712073646557,599616181316654104,-45
1712073646565,599616181324318790,-43
1712073646573,599616181331983476,-59
1712073646580,599616181339648162,-45
1712073646588,599616181347312848,-22
1712073646596,599616181354977534,-4
1712073646603,599616181362642220,-13
1712073646611,599616181370306906,-85
1712073646619,599616181377971592,-154
1712073646625,599616181385636278,-133
1712073646633,599616181393300964,-87
1712073646641,599616181400965650,-62
1712073646649,599616181408630336,-45
1712073646657,599616181416295022,-89
1712073646665,599616181423959708,-181
1712073646672,599616181431624394,-211
1712073646680,599616181439289080,-193
1712073646688,599616181446953766,-211
1712073646695,599616181454618452,-227
1712073646703,599616181462283138,-209
1712073646711,599616181469947824,-248
1712073646718,599616181477612510,-335
1712073646726,599616181485277196,-333
1712073646734,599616181492941882,-245
1712073646741,599616181500606568,-193
1712073646749,599616181508271254,-174
1712073646757,599616181515935940,-170
1712073646764,599616181523600626,-174
1712073646772,599616181531265312,-156
1712073646780,599616181538929998,-119
1712073646787,599616181546594684,-101
1712073646795,599616181554259370,-75
1712073646803,599616181561924056,-57
1712073646809,599616181569588742,-114
1712073646817,599616181577253428,-303
1712073646825,599616181584918114,-680
1712073646833,599616181592582800,-1119
1712073646841,599616181600247486,-1156
1712073646849,599616181607912172,-335
1712073646856,599616181615576858,636
1712073646864,599616181623241544,625
1712073646872,599616181630906230,186
1712073646879,599616181638570916,204
1712073646887,599616181646235602,271
1712073646895,599616181653900288,133
1712073646902,599616181661564974,59
1712073646910,599616181669229660,64
1712073646918,599616181676894346,64
1712073646925,599616181684559032,91
1712073646933,599616181692223718,128
1712073646941,599616181699888404,140
1712073646948,599616181707553090,114
1712073646956,599616181715217776,68
1712073646964,599616181722882462,50
1712073646971,599616181730547148,73
1712073646979,599616181738211834,96
1712073646987,599616181745876520,94
1712073646993,599616181753541206,55
1712073647001,599616181761205892,-32
1712073647009,599616181768870578,-91
1712073647017,599616181776535264,-62
1712073647025,599616181784199970,-13
1712073647033,599616181791864656,0
1712073647040,599616181799529342,9
1712073647048,599616181807194028,25
1712073647056,599616181814858714,48
1712073647063,599616181822523400,98
1712073647071,599616181830188086,170
1712073647079,599616181837852772,220
1712073647086,599616181845517458,245
1712073647094,599616181853182144,255
1712073647102,599616181860846830,220
1712073647109,599616181868511516,195
1712073647117,599616181876176202,245
1712073647125,599616181883840888,280
1712073647132,599616181891505574,257
1712073647140,599616181899170260,227
1712073647148,599616181906834946,200
1712073647155,599616181914499632,167
1712073647163,599616181922164318,183
1712073647171,599616181929829004,216
1712073647177,599616181937493690,204
1712073647185,599616181945158376,200
1712073647193,599616181952823062,181
1712073647201,599616181960487748,110
1712073647209,599616181968152434,80
1712073647217,599616181975817120,59
1712073647224,599616181983481806,-66
1712073647232,599616181991146492,-149
1712073647240,599616181998811178,-101
1712073647247,599616182006475864,-82
1712073647255,599616182014140550,-103
1712073647263,599616182021805236,-71
1712073647270,599616182029469922,-52
1712073647278,599616182037134608,-52
1712073647286,599616182044799294,-18
1712073647293,599616182052463980,2
1712073647301,599616182060128666,-2
1712073647309,599616182067793352,9
1712073647316,599616182075458038,4
1712073647324,599616182083122724,-9
1712073647332,599616182090787410,9
1712073647339,599616182098452096,-32
1712073647347,599616182106116782,-144
1712073647355,599616182113781468,-177
1712073647361,599616182121446154,-160
1712073647369,599616182129110840,-188
1712073647377,599616182136775526,-188
1712073647385,599616182144440212,-154
1712073647393,599616182152104898,-177
1712073647401,599616182159769584,-234
1712073647408,599616182167434270,-236
1712073647416,599616182175098956,-200
1712073647424,599616182182763642,-165
1712073647431,599616182190428328,-114
1712073647439,599616182198093014,-75
1712073647447,599616182205757700,-223
1712073647454,599616182213422386,-646
1712073647462,599616182221087072,-1128
1712073647470,599616182228751758,-1236
1712073647477,599616182236416444,-514
1712073647485,599616182244081130,519
1712073647493,599616182251745816,611
1712073647500,599616182259410502,78
1712073647508,599616182267075188,22
1712073647516,599616182274739874,154
1712073647523,599616182282404560,43
1712073647531,599616182290069246,-6
1712073647539,599616182297733932,-4
1712073647545,599616182305398618,-98
1712073647553,599616182313063304,-112
1712073647561,599616182320727990,-36
1712073647569,599616182328392676,-16
1712073647577,599616182336057362,-11
1712073647585,599616182343752164,-13
1712073647592,599616182351416432,-52
1712073647600,599616182359080700,-62
1712073647608,599616182366744968,-22
1712073647615,599616182374409236,-2
1712073647623,599616182382073504,4
1712073647631,599616182389737772,4
1712073647638,599616182397402040,-50
1712073647646,599616182405066308,-119
1712073647654,599616182412730576,-105
1712073647661,599616182420394844,-55
1712073647669,599616182428059112,-41
1712073647676,599616182435723380,-68
1712073647684,599616182443387648,-167
1712073647692,599616182451051916,-248
1712073647699,599616182458716184,-170
1712073647707,599616182466380452,-48
1712073647715,599616182474044720,-4
1712073647721,599616182481708988,-22
1712073647729,599616182489373256,-87
1712073647737,599616182497037524,-101
1712073647745,599616182504701792,-25
1712073647753,599616182512366060,39
1712073647761,599616182520030328,71
1712073647768,599616182527694596,98
1712073647776,599616182535358864,101
1712073647784,599616182543023132,85
1712073647791,599616182550687400,108
1712073647799,599616182558351668,151
1712073647807,599616182566015936,181
1712073647814,599616182573680204,197
1712073647822,599616182581344472,197
1712073647830,599616182589008740,179
1712073647837,599616182596673008,174
1712073647845,599616182604337276,190
1712073647853,599616182612001544,200
1712073647860,599616182619665812,202
1712073647868,599616182627330080,206
1712073647876,599616182634994348,216
1712073647883,599616182642658616,206
1712073647891,599616182650322884,163
1712073647899,599616182657987152,133
1712073647905,599616182665651420,114
1712073647913,599616182673315688,78
1712073647921,599616182680979956,39
1712073647929,599616182688644224,-16
1712073647937,599616182696308492,-64
1712073647945,599616182703972760,-34
1712073647952,599616182711637028,2
1712073647960,599616182719301296,-18
1712073647968,599616182726965564,-22
1712073647975,599616182734629832,-25
1712073647983,599616182742294100,-45
1712073647991,599616182749958368,-20
1712073647998,599616182757622636,34
1712073648006,599616182765286904,45
1712073648014,599616182772951172,45
1712073648021,599616182780615440,41
1712073648029,599616182788279708,-18
1712073648037,599616182795943976,-71
1712073648044,599616182803608244,-73
1712073648052,599616182811272512,-103
1712073648060,599616182818936780,-135
1712073648067,599616182826601048,-128
1712073648075,599616182834265316,-144
1712073648083,599616182841929584,-202
1712073648089,599616182849593852,-395
1712073648097,599616182857258120,-832
1712073648105,599616182864922388,-1246
1712073648113,599616182872586656,-1112
1712073648121,599616182880250924,-236
1712073648129,599616182887915192,494
1712073648136,599616182895579460,248
1712073648144,599616182903213648,-170
1712073648152,599616182910878334,-87
1712073648159,599616182918543020,-36
1712073648167,599616182926207706,-156
1712073648175,599616182933872392,-142
1712073648182,599616182941537078,-91
1712073648190,599616182949201764,-126
1712073648198,599616182956866450,-133
1712073648205,599616182964531136,-105
1712073648213,599616182972195822,-101
1712073648221,599616182979860508,-121
1712073648228,599616182987525194,-195
1712073648236,599616182995189880,-259
1712073648244,599616183002854566,-229
1712073648251,599616183010519252,-179
1712073648259,599616183018183938,-177
1712073648267,599616183025848624,-257
1712073648273,599616183033513310,-404
1712073648281,599616183041177996,-446
1712073648289,599616183048842682,-374
1712073648297,599616183056507368,-326
1712073648305,599616183064172054,-291
1712073648313,599616183071836740,-243
1712073648320,599616183079501426,-229
1712073648328,599616183087166112,-220
1712073648336,599616183094830798,-154
1712073648343,599616183102495484,-68
1712073648351,599616183110160170,2
1712073648359,599616183117824856,64
1712073648366,599616183125489542,94
1712073648374,599616183133154228,62
1712073648382,599616183140818914,16
1712073648389,599616183148483600,16
1712073648397,599616183156148286,64
1712073648405,599616183163812972,105
1712073648412,599616183171477658,66
1712073648420,599616183179142344,-27
1712073648428,599616183186807030,-43
1712073648435,599616183194471716,18
1712073648443,599616183202136402,59
1712073648451,599616183209801088,82
1712073648457,599616183217465774,101
1712073648465,599616183225130460,78
1712073648473,599616183232795146,71
1712073648481,599616183240459832,117
1712073648489,599616183248124518,156
1712073648497,599616183255789204,177
1712073648504,599616183263453890,190
1712073648512,599616183271118576,172
1712073648520,599616183278783262,154
1712073648527,599616183286447948,183
1712073648535,599616183294112634,225
1712073648543,599616183301777320,241
1712073648550,599616183309442006,243
1712073648558,599616183317106692,186
1712073648566,599616183324771378,82
1712073648573,599616183332436064,52
1712073648581,599616183340100750,62
1712073648589,599616183347765436,52
1712073648596,599616183355430122,57
1712073648604,599616183363094808,45
1712073648612,599616183370759494,6
1712073648619,599616183378424180,-20
1712073648627,599616183386088866,-57
1712073648635,599616183393753552,-85
1712073648641,599616183401418238,-50
1712073648649,599616183409082924,-18
1712073648657,599616183416747610,-29
1712073648665,599616183424412296,-25
1712073648673,599616183432076982,6
1712073648681,599616183439741668,41
1712073648688,599616183447406354,59
1712073648696,599616183455071040,48
1712073648704,599616183462765842,-4
1712073648711,599616183470430110,-55
1712073648719,599616183478094378,-62
1712073648727,599616183485758646,-80
1712073648734,599616183493422914,-232
1712073648742,599616183501087182,-588
1712073648750,599616183508751450,-1034
1712073648757,599616183516415718,-1340
1712073648765,599616183524079986,-1075
1712073648773,599616183531744254,-117
1712073648780,599616183539408522,487
1712073648788,599616183547072790,160
1712073648796,599616183554737058,-131
1712073648803,599616183562401326,-71
1712073648811,599616183570065594,-193
1712073648819,599616183577729862,-303
1712073648825,599616183585394130,-204
1712073648833,599616183593058398,-177
1712073648841,599616183600722666,-211
1712073648849,599616183608386934,-209
1712073648857,599616183616051202,-280
1712073648864,599616183623715470,-356
1712073648872,599616183631379738,-365
1712073648880,599616183639044006,-383
1712073648887,599616183646708274,-374
1712073648895,599616183654372542,-331
1712073648903,599616183662036810,-328
1712073648910,599616183669701078,-340
1712073648918,599616183677365346,-326
1712073648926,599616183685029614,-321
1712073648933,599616183692693882,-303
1712073648941,599616183700358150,-264
1712073648949,599616183708022418,-282
1712073648956,599616183715686686,-347
1712073648964,599616183723350954,-335
1712073648972,599616183731015222,-268
1712073648979,599616183738679490,-218
1712073648987,599616183746343758,-144
1712073648995,599616183754008026,-62
1712073649001,599616183761672294,-13
1712073649009,599616183769336562,27
1712073649017,599616183777000830,75
1712073649025,599616183784665098,124
1712073649033,599616183792329366,177
1712073649041,599616183799993634,220
1712073649048,599616183807657902,227
1712073649056,599616183815322170,209
1712073649064,599616183822986438,204
1712073649071,599616183830650706,218
1712073649079,599616183838314974,243
1712073649087,599616183845979242,259
1712073649094,599616183853643510,209
1712073649102,599616183861307778,110
1712073649110,599616183868972046,64
1712073649117,599616183876636314,55
1712073649125,599616183884300582,27
1712073649133,599616183891964850,41
1712073649140,599616183899629118,89
1712073649148,599616183907293386,78
1712073649156,599616183914957654,52
1712073649163,599616183922621922,80
1712073649171,599616183930286190,131
1712073649179,599616183937950458,165
1712073649185,599616183945614726,197
1712073649193,599616183953278994,197
1712073649201,599616183960943262,167
1712073649209,599616183968607530,172
1712073649217,599616183976271798,218
1712073649225,599616183983936066,250
1712073649232,599616183991600334,262
1712073649240,599616183999264602,204
1712073649248,599616184006928870,91
1712073649255,599616184014593138,55
1712073649263,599616184022257422,55
1712073649271,599616184029921690,0
1712073649278,599616184037585958,-32
1712073649286,599616184045250226,-50
1712073649294,599616184052914494,-174
1712073649301,599616184060578762,-266
1712073649309,599616184068243030,-193
1712073649317,599616184075907298,-117
1712073649324,599616184083571566,-110
1712073649332,599616184091235834,-85
1712073649340,599616184098900102,-80
1712073649347,599616184106564370,-98
1712073649355,599616184114228638,-68
1712073649363,599616184121892906,-59
1712073649369,599616184129557174,-91
1712073649377,599616184137221442,-62
1712073649385,599616184144885710,-73
1712073649393,599616184152549978,-344
1712073649401,599616184160214246,-813
1712073649409,599616184167878514,-1223
1712073649416,599616184175542782,-1135
1712073649424,599616184183207050,-271
1712073649432,599616184190871318,514
1712073649439,599616184198535586,310
1712073649447,599616184206199854,-110
1712073649455,599616184213864122,-50
1712073649462,599616184221528390,-16
1712073649470,599616184229192658,-137
1712073649478,599616184236856926,-128
1712073649485,599616184244521194,-128
1712073649493,599616184252185462,-225
1712073649501,599616184259849730,-227
1712073649508,599616184267513998,-156
1712073649516,599616184275178266,-147
1712073649524,599616184282842534,-158
1712073649531,599616184290506802,-149
1712073649539,599616184298171070,-151
1712073649547,599616184305835338,-151
1712073649553,599616184313499606,-114
1712073649561,599616184321163874,-91
1712073649569,599616184328828142,-108
1712073649577,599616184336492410,-110
1712073649585,599616184344156678,-98
1712073649593,599616184351820946,-96
1712073649600,599616184359485214,-82
1712073649608,599616184367149482,-91
1712073649616,599616184374813750,-144
1712073649623,599616184382478018,-154
1712073649631,599616184390142286,-151
1712073649639,599616184397806554,-186
1712073649646,599616184405470822,-149
1712073649654,599616184413135090,-52
1712073649662,599616184420799358,-6
1712073649669,599616184428463626,36
1712073649677,599616184436127894,108
1712073649685,599616184443792162,133
1712073649692,599616184451456430,140
1712073649700,599616184459120698,179
1712073649708,599616184466784966,204
1712073649715,599616184474449234,206
1712073649723,599616184482113502,227
1712073649731,599616184489777770,236
1712073649737,599616184497442038,188
1712073649745,599616184505106306,96
1712073649753,599616184512770574,41
1712073649761,599616184520434842,71
1712073649769,599616184528099110,117
1712073649777,599616184535763378,119
1712073649784,599616184543427646,119
1712073649792,599616184551091914,133
1712073649800,599616184558756182,126
1712073649807,599616184566420450,117
1712073649815,599616184574084718,142
1712073649823,599616184581749004,158
1712073649830,599616184589413272,98
1712073649838,599616184597077540,36
1712073649846,599616184604741808,41
1712073649853,599616184612406076,39
1712073649861,599616184620070344,-4
1712073649869,599616184627734612,-9
1712073649876,599616184635398880,-25
1712073649884,599616184643063148,-101
1712073649892,599616184650727416,-114
1712073649899,599616184658391684,-57
1712073649907,599616184666055952,-32
1712073649913,599616184673720220,-18
1712073649921,599616184681384488,-18
1712073649929,599616184689048756,-68
1712073649937,599616184696713024,-114
1712073649945,599616184704377292,-75
1712073649953,599616184712041560,-25
1712073649960,599616184719705828,-9
1712073649968,599616184727370096,4
1712073649976,599616184735034364,-6
1712073649983,599616184742698632,-52
1712073649991,599616184750362900,-52
1712073649999,599616184758027168,-2
1712073650006,599616184765691436,34
1712073650014,599616184773355704,68
1712073650022,599616184781019972,64
1712073650029,599616184788684240,-121
1712073650037,599616184796348508,-519
1712073650045,599616184804012776,-983
1712073650052,599616184811677044,-1200
1712073650060,599616184819341312,-620
1712073650068,599616184827005580,425
1712073650075,599616184834669848,579
1712073650083,599616184842334116,4
1712073650091,599616184849998384,-91
1712073650097,599616184857662652,13
1712073650105,599616184865326920,-183
1712073650113,599616184872991188,-287
1712073650121,599616184880655456,-225
1712073650129,599616184888319724,-245
1712073650137,599616184895983992,-259
1712073650144,599616184903648260,-197
1712073650152,599616184911312528,-172
1712073650160,599616184918976796,-204
1712073650167,599616184926641064,-280
1712073650175,599616184934305332,-354
1712073650183,599616184941969600,-344
1712073650190,599616184949633868,-296
1712073650198,599616184957298136,-271
1712073650206,599616184964962404,-252
1712073650213,599616184972626672,-259
1712073650221,599616184980290940,-285
1712073650229,599616184987955208,-268
1712073650236,599616184995619476,-223
1712073650244,599616185003283744,-234
1712073650252,599616185010948012,-310
1712073650259,599616185018612280,-326
1712073650267,599616185026276548,-282
1712073650275,599616185033940816,-239
1712073650281,599616185041605084,-167
1712073650289,599616185049269352,-73
1712073650297,599616185056933620,-9
1712073650305,599616185064597888,29
1712073650313,599616185072262156,64
1712073650321,599616185079926424,89
1712073650328,599616185087590692,126
1712073650336,599616185095254960,165
1712073650344,599616185102919228,147
1712073650351,599616185110583496,78
1712073650359,599616185118247764,34
1712073650367,599616185125912032,-4
1712073650374,599616185133576300,-34
1712073650382,599616185141225536,9
1712073650390,599616185148890013,57
1712073650397,599616185156554490,57
1712073650405,599616185164218967,68
1712073650413,599616185171883444,87
1712073650420,599616185179547921,89
1712073650428,599616185187212398,112
1712073650436,599616185194876875,144
1712073650443,599616185202541352,144
1712073650451,599616185210205829,149
1712073650459,599616185217870306,137
1712073650465,599616185225534783,66
1712073650473,599616185233199260,34
1712073650481,599616185240863737,82
1712073650489,599616185248528214,110
1712073650497,599616185256192691,121
1712073650505,599616185263857168,156
1712073650512,599616185271521645,158
1712073650520,599616185279186122,144
1712073650528,599616185286850599,160
1712073650535,599616185294515076,167
1712073650543,599616185302179553,165
1712073650551,599616185309844030,172
1712073650558,599616185317508507,110
1712073650566,599616185325172984,0
1712073650574,599616185332837461,-29
1712073650581,599616185340501938,-20
1712073650589,599616185348166415,-50
1712073650597,599616185355830892,-80
1712073650604,599616185363495369,-105
1712073650612,599616185371159846,-112
1712073650620,599616185378824323,-89
1712073650627,599616185386488800,-75
1712073650635,599616185394153277,-57
1712073650643,599616185401817754,4
1712073650649,599616185409482231,68
1712073650657,599616185417146708,-41
1712073650665,599616185424811185,-448
1712073650673,599616185432475662,-963
1712073650681,599616185440140139,-1140
1712073650689,599616185447804616,-494
1712073650696,599616185455469093,558
1712073650704,599616185463133570,698
1712073650712,599616185470798047,66
1712073650719,599616185478462524,-133
1712073650727,599616185486127001,-45
1712073650735,599616185493791478,-160
1712073650742,599616185501455955,-223
1712073650750,599616185509120432,-220
1712073650758,599616185516784909,-337
1712073650765,599616185524449386,-397
1712073650773,599616185532113863,-326
1712073650781,599616185539778340,-282
1712073650788,599616185547442817,-271
1712073650796,599616185555107294,-241
1712073650804,599616185562771771,-241
1712073650811,599616185570436248,-273
1712073650819,599616185578100725,-259
1712073650827,599616185585765202,-220
1712073650833,599616185593429679,-211
1712073650841,599616185601094156,-245
1712073650849,599616185608758633,-305
1712073650857,599616185616423110,-333
1712073650865,599616185624087587,-310
1712073650873,599616185631752064,-273
1712073650880,599616185639416541,-239
1712073650888,599616185647081018,-186
1712073650896,599616185654745495,-160
1712073650903,599616185662409972,-197
1712073650911,599616185670074449,-193
1712073650919,599616185677738926,-91
1712073650926,599616185685403403,-4
1712073650934,599616185693067880,55
1712073650942,599616185700732376,108
1712073650949,599616185708396853,110
1712073650957,599616185716061330,98
1712073650964,599616185723725807,142
1712073650972,599616185731390284,197
1712073650980,599616185739054761,225
1712073650987,599616185746719238,241
1712073650995,599616185754383715,197
1712073651003,599616185762048192,98
1712073651009,599616185769712669,73
1712073651017,599616185777377146,131
