phoneTimestamp,sensorTimestamp,ecg
1711449300094,599616035259588880,10275
1711449300101,599616035267256074,10219
1711449300109,599616035274923268,10219
1711449300117,599616035282590462,10250
1711449300124,599616035290257656,10193
1711449300132,599616035297924850,10226
1711449300140,599616035305592044,10310
1711449300147,599616035313259238,10175
1711449300155,599616035320926432,10032
1711449300163,599616035328593626,10046
1711449300169,599616035336260820,9978
1711449300177,599616035343928014,9896
1711449300185,599616035351595208,9934
1711449300193,599616035359262402,9910
1711449300201,599616035366929596,9817
1711449300209,599616035374596790,9672
1711449300216,599616035382263984,9318
1711449300224,599616035389931178,9028
1711449300232,599616035397598372,8965
1711449300239,599616035405265566,8879
1711449300247,599616035412932760,8773
1711449300255,599616035420599954,8680
1711449300262,599616035428267148,8490
1711449300270,599616035435934342,8347
1711449300278,599616035443601536,8317
1711449300285,599616035451268730,8270
1711449300293,599616035458935924,8249
1711449300301,599616035466603118,8216
1711449300308,599616035474270312,8053
1711449300316,599616035481937506,7912
1711449300324,599616035489604700,7898
1711449300331,599616035497271894,7863
1711449300339,599616035504939088,7821
1711449300347,599616035512606282,7793
1711449300353,599616035520273476,7667
1711449300361,599616035527940670,7519
1711449300369,599616035535607864,7472
1711449300377,599616035543275058,7449
1711449300385,599616035550942252,7407
1711449300393,599616035558609446,7384
1711449300400,599616035566276640,7302
1711449300408,599616035573943834,7147
1711449300416,599616035581611028,7040
1711449300423,599616035589278222,7000
1711449300431,599616035596945416,6941
1711449300439,599616035604612610,6862
1711449300446,599616035612279804,6792
1711449300454,599616035619946998,6679
1711449300462,599616035627614192,6490
1711449300469,599616035635281386,6377
1711449300477,599616035642948580,6366
1711449300485,599616035650615774,6307
1711449300492,599616035658282968,6202
1711449300500,599616035665950162,6111
1711449300508,599616035673617356,6019
1711449300515,599616035681284550,5949
1711449300523,599616035688951744,5940
1711449300531,599616035696618938,6038
1711449300537,599616035704286132,6235
1711449300545,599616035711953326,6197
1711449300553,599616035719620520,5818
1711449300561,599616035727287714,5238
1711449300569,599616035734954908,4487
1711449300577,599616035742622102,4286
1711449300584,599616035750289296,4866
1711449300592,599616035757956490,5170
1711449300600,599616035765623684,5011
1711449300607,599616035773290878,4985
1711449300615,599616035780958072,5039
1711449300623,599616035788625266,4953
1711449300630,599616035796292460,4857
1711449300638,599616035803959654,4833
1711449300646,599616035811626848,4770
1711449300653,599616035819279038,4670
1711449300661,599616035826946441,4634
1711449300669,599616035834613844,4599
1711449300676,599616035842281247,4506
1711449300684,599616035849948650,4461
1711449300692,599616035857616053,4473
1711449300699,599616035865283456,4419
1711449300707,599616035872950859,4281
1711449300715,599616035880618262,4185
1711449300721,599616035888285665,4141
1711449300729,599616035895953068,4122
1711449300737,599616035903620471,4047
1711449300745,599616035911287874,3806
1711449300753,599616035918955277,3586
1711449300761,599616035926622680,3509
1711449300768,599616035934290083,3406
1711449300776,599616035941957486,3291
1711449300784,599616035949624889,3226
1711449300791,599616035957292292,3086
1711449300799,599616035964959695,2898
1711449300807,599616035972627098,2765
1711449300814,599616035980294501,2629
1711449300822,599616035987961904,2517
1711449300830,599616035995629307,2477
1711449300837,599616036003296710,2423
1711449300845,599616036010964113,2337
1711449300853,599616036018631516,2274
1711449300860,599616036026298919,2236
1711449300868,599616036033966322,2203
1711449300876,599616036041633725,2189
1711449300883,599616036049301128,2168
1711449300891,599616036056968531,2110
1711449300899,599616036064635934,2051
1711449300905,599616036072303337,2028
1711449300913,599616036079970740,2026
1711449300921,599616036087638143,2023
1711449300929,599616036095305546,2019
1711449300937,599616036102972949,2012
1711449300945,599616036110640352,1939
1711449300952,599616036118307755,1824
1711449300960,599616036125975158,1810
1711449300968,599616036133642561,1857
1711449300975,599616036141309964,1834
1711449300983,599616036148977367,1775
1711449300991,599616036156644770,1712
1711449300998,599616036164312173,1647
1711449301006,599616036171979576,1621
1711449301014,599616036179646979,1621
1711449301021,599616036187314382,1621
1711449301029,599616036194981785,1609
1711449301037,599616036202649188,1555
1711449301044,599616036210316591,1457
1711449301052,599616036217983994,1333
1711449301060,599616036225651397,1249
1711449301067,599616036233318800,1256
1711449301075,599616036240986203,1268
1711449301083,599616036248653606,1225
1711449301089,599616036256321009,1228
1711449301097,599616036263988412,1415
1711449301105,599616036271655815,1679
1711449301113,599616036279323218,1759
1711449301121,599616036286990621,1544
1711449301129,599616036294658024,837
1711449301136,599616036302325427,156
1711449301144,599616036309992830,488
1711449301152,599616036317660233,1167
1711449301159,599616036325327636,1242
1711449301167,599616036332995039,1195
1711449301175,599616036340662442,1296
1711449301182,599616036348329845,1242
1711449301190,599616036355997248,1109
1711449301198,599616036363664651,1069
1711449301205,599616036371332054,1071
1711449301213,599616036379009510,1066
1711449301221,599616036386676774,1055
1711449301228,599616036394344038,1024
1711449301236,599616036402011302,1010
1711449301244,599616036409678566,1043
1711449301251,599616036417345830,1087
1711449301259,599616036425013094,1111
1711449301267,599616036432680358,1111
1711449301273,599616036440347622,1048
1711449301281,599616036448014886,935
1711449301289,599616036455682150,903
1711449301297,599616036463349414,952
1711449301305,599616036471016678,966
1711449301313,599616036478683942,928
1711449301320,599616036486351206,884
1711449301328,599616036494018470,821
1711449301336,599616036501685734,718
1711449301343,599616036509352998,617
1711449301351,599616036517020262,554
1711449301359,599616036524687526,496
1711449301366,599616036532354790,428
1711449301374,599616036540022054,374
1711449301382,599616036547689318,313
1711449301389,599616036555356582,240
1711449301397,599616036563023846,175
1711449301405,599616036570691110,100
1711449301412,599616036578358374,18
1711449301420,599616036586025638,-18
1711449301428,599616036593692902,-39
1711449301435,599616036601360166,-93
1711449301443,599616036609027430,-156
1711449301451,599616036616694694,-173
1711449301457,599616036624361958,-147
1711449301465,599616036632029222,-131
1711449301473,599616036639696486,-128
1711449301481,599616036647363750,-107
1711449301489,599616036655031014,-77
1711449301497,599616036662698278,-65
1711449301504,599616036670365542,-46
1711449301512,599616036678032806,-9
1711449301520,599616036685700070,7
1711449301527,599616036693367334,11
1711449301535,599616036701034598,39
1711449301543,599616036708701862,63
1711449301550,599616036716369126,63
1711449301558,599616036724036390,-7
1711449301566,599616036731703654,-126
1711449301573,599616036739370918,-154
1711449301581,599616036747038182,-124
1711449301589,599616036754705446,-133
1711449301596,599616036762372710,-126
1711449301604,599616036770039974,-74
1711449301612,599616036777707238,-35
1711449301619,599616036785374502,-28
1711449301627,599616036793041766,-11
1711449301635,599616036800709030,7
1711449301641,599616036808376294,25
1711449301649,599616036816043558,67
1711449301657,599616036823710822,116
1711449301665,599616036831378086,133
1711449301673,599616036839045350,126
1711449301681,599616036846712614,161
1711449301688,599616036854379878,322
1711449301696,599616036862047142,517
1711449301704,599616036869714406,519
1711449301711,599616036877381670,79
1711449301719,599616036885048934,-739
1711449301727,599616036892716198,-924
1711449301734,599616036900383462,-226
1711449301742,599616036908050726,184
1711449301750,599616036915717990,145
1711449301757,599616036923385254,233
1711449301765,599616036931052518,313
1711449301773,599616036938719802,243
1711449301780,599616036946387066,248
1711449301788,599616036954054330,325
1711449301796,599616036961721594,348
1711449301803,599616036969388858,362
1711449301811,599616036977056122,376
1711449301819,599616036984723386,341
1711449301825,599616036992390650,332
1711449301833,599616037000057914,381
1711449301841,599616037007725178,425
1711449301849,599616037015392442,463
1711449301857,599616037023059706,451
1711449301865,599616037030726970,343
1711449301872,599616037038394234,278
1711449301880,599616037046061498,329
1711449301888,599616037053728762,376
1711449301895,599616037061396026,379
1711449301903,599616037069063290,369
1711449301911,599616037076730554,306
1711449301918,599616037084397818,217
1711449301926,599616037092065082,121
1711449301934,599616037099732346,-25
1711449301941,599616037107399610,-131
1711449301949,599616037115066874,-156
1711449301957,599616037122734138,-229
1711449301964,599616037130401402,-313
1711449301972,599616037138068666,-320
1711449301980,599616037145735930,-332
1711449301987,599616037153403194,-388
1711449301995,599616037161070458,-423
1711449302003,599616037168737722,-484
1711449302009,599616037176404986,-568
1711449302017,599616037184072250,-566
1711449302025,599616037191739514,-512
1711449302033,599616037199406778,-484
1711449302041,599616037207074042,-465
1711449302049,599616037214741306,-453
1711449302056,599616037222408570,-463
1711449302064,599616037230075834,-538
1711449302072,599616037237743098,-627
1711449302079,599616037245410362,-608
1711449302087,599616037253077626,-547
1711449302095,599616037260744890,-549
1711449302102,599616037268412154,-556
1711449302110,599616037276079418,-528
1711449302118,599616037283746682,-486
1711449302125,599616037291413946,-435
1711449302133,599616037299081210,-393
1711449302141,599616037306748474,-372
1711449302148,599616037314415738,-353
1711449302156,599616037322083002,-318
1711449302164,599616037329750266,-271
1711449302171,599616037337417530,-271
1711449302179,599616037345084794,-334
1711449302187,599616037352752058,-376
1711449302193,599616037360419322,-369
1711449302201,599616037368086586,-367
1711449302209,599616037375753850,-369
1711449302217,599616037383421114,-325
1711449302225,599616037391088378,-271
1711449302233,599616037398755642,-255
1711449302240,599616037406422906,-231
1711449302248,599616037414090170,-201
1711449302256,599616037421757434,-191
1711449302263,599616037429424698,-161
1711449302271,599616037437091962,-119
1711449302279,599616037444759226,-98
1711449302286,599616037452426490,-9
1711449302294,599616037460093754,243
1711449302302,599616037467761018,510
1711449302309,599616037475428282,566
1711449302317,599616037483095546,215
1711449302325,599616037490762810,-624
1711449302332,599616037498369902,-1041
1711449302340,599616037506038002,-435
1711449302348,599616037513706102,77
1711449302355,599616037521374202,30
1711449302363,599616037529042302,74
1711449302371,599616037536710402,191
1711449302377,599616037544378502,156
1711449302385,599616037552046602,156
1711449302393,599616037559714702,163
1711449302401,599616037567382802,46
1711449302409,599616037575050902,-39
1711449302417,599616037582719002,-44
1711449302424,599616037590387102,-93
1711449302432,599616037598055202,-116
1711449302440,599616037605723302,-65
1711449302447,599616037613391402,-39
1711449302455,599616037621059502,-32
1711449302463,599616037628727602,9
1711449302470,599616037636395702,67
1711449302478,599616037644063802,131
1711449302486,599616037651731902,196
1711449302493,599616037659400002,215
1711449302501,599616037667068102,189
1711449302509,599616037674736202,149
1711449302516,599616037682404302,79
1711449302524,599616037690072402,2
1711449302532,599616037697740502,-25
1711449302539,599616037705408602,-56
1711449302547,599616037713076702,-135
1711449302555,599616037720744802,-229
1711449302561,599616037728412902,-362
1711449302569,599616037736081002,-540
1711449302577,599616037743749102,-629
1711449302585,599616037751417202,-666
1711449302593,599616037759085302,-772
1711449302601,599616037766753402,-837
1711449302608,599616037774421502,-800
1711449302616,599616037782089602,-751
1711449302624,599616037789757702,-713
1711449302631,599616037797425802,-666
1711449302639,599616037805093902,-657
1711449302647,599616037812762002,-678
1711449302654,599616037820430102,-657
1711449302662,599616037828098202,-634
1711449302670,599616037835766302,-671
1711449302677,599616037843434402,-687
1711449302685,599616037851102502,-657
1711449302693,599616037858770602,-664
1711449302700,599616037866438702,-659
1711449302708,599616037874106802,-582
1711449302716,599616037881774902,-517
1711449302723,599616037889443002,-458
1711449302731,599616037897111102,-393
1711449302739,599616037904779202,-381
1711449302745,599616037912447302,-381
1711449302753,599616037920115402,-304
1711449302761,599616037927783502,-224
1711449302769,599616037935451602,-194
1711449302777,599616037943119702,-173
1711449302785,599616037950787802,-182
1711449302792,599616037958455902,-210
1711449302800,599616037966124002,-187
1711449302808,599616037973792102,-138
1711449302815,599616037981460202,-105
1711449302823,599616037989128302,-70
1711449302831,599616037996796402,-65
1711449302838,599616038004464502,-91
1711449302846,599616038012132602,-77
1711449302854,599616038019800702,-23
1711449302861,599616038027468802,11
1711449302869,599616038035136902,21
1711449302877,599616038042805002,16
1711449302884,599616038050473102,2
1711449302892,599616038058146270,93
1711449302900,599616038065814300,313
1711449302907,599616038073482330,313
1711449302915,599616038081150360,-322
1711449302923,599616038088818390,-1307
1711449302929,599616038096486420,-1555
1711449302937,599616038104154450,-1015
1711449302945,599616038111822480,-699
1711449302953,599616038119490510,-678
1711449302961,599616038127158540,-568
1711449302969,599616038134826570,-503
1711449302976,599616038142494600,-528
1711449302984,599616038150162630,-521
1711449302992,599616038157830660,-481
1711449302999,599616038165498690,-446
1711449303007,599616038173166720,-414
1711449303015,599616038180834750,-386
1711449303022,599616038188502780,-362
1711449303030,599616038196170810,-341
1711449303038,599616038203838840,-320
1711449303045,599616038211506870,-278
1711449303053,599616038219174900,-224
1711449303061,599616038226842930,-196
1711449303068,599616038234510960,-224
1711449303076,599616038242178990,-327
1711449303084,599616038249847020,-439
1711449303091,599616038257515050,-470
1711449303099,599616038265183080,-470
1711449303107,599616038272851110,-500
1711449303113,599616038280519140,-526
1711449303121,599616038288187170,-542
1711449303129,599616038295855200,-601
1711449303137,599616038303523230,-697
1711449303145,599616038311191260,-786
1711449303153,599616038318859290,-896
1711449303160,599616038326527320,-1034
1711449303168,599616038334195350,-1123
1711449303176,599616038341863380,-1137
1711449303183,599616038349531410,-1137
1711449303191,599616038357199440,-1137
1711449303199,599616038364867470,-1123
1711449303206,599616038372535500,-1085
1711449303214,599616038380203530,-1027
1711449303222,599616038387871560,-994
1711449303229,599616038395539590,-982
1711449303237,599616038403207620,-954
1711449303245,599616038410875650,-935
1711449303252,599616038418543680,-921
1711449303260,599616038426211710,-872
1711449303268,599616038433879740,-853
1711449303275,599616038441547770,-931
1711449303283,599616038449215800,-994
1711449303291,599616038456883830,-956
1711449303297,599616038464551860,-896
1711449303305,599616038472219890,-844
1711449303313,599616038479887920,-781
1711449303321,599616038487555950,-744
1711449303329,599616038495223980,-741
1711449303337,599616038502892010,-708
1711449303344,599616038510560040,-624
1711449303352,599616038518228070,-559
1711449303360,599616038525896100,-528
1711449303367,599616038533564130,-503
1711449303375,599616038541232160,-510
1711449303383,599616038548900190,-533
1711449303390,599616038556568220,-519
1711449303398,599616038564236250,-486
1711449303406,599616038571904280,-510
1711449303413,599616038579572310,-559
1711449303421,599616038587240340,-582
1711449303429,599616038594908370,-598
1711449303436,599616038602576400,-591
1711449303444,599616038610244430,-526
1711449303452,599616038617932532,-453
1711449303460,599616038625600284,-409
1711449303467,599616038633268036,-414
1711449303475,599616038640935788,-360
1711449303483,599616038648603540,-109
1711449303489,599616038656271292,121
1711449303497,599616038663939044,14
1711449303505,599616038671606796,-645
1711449303513,599616038679274548,-1382
1711449303521,599616038686942300,-1218
1711449303529,599616038694610052,-596
1711449303536,599616038702277804,-425
1711449303544,599616038709945556,-409
1711449303552,599616038717613308,-252
1711449303559,599616038725281060,-201
1711449303567,599616038732948812,-266
1711449303575,599616038740616564,-308
1711449303582,599616038748284316,-369
1711449303590,599616038755952068,-402
1711449303598,599616038763619820,-343
1711449303605,599616038771287572,-313
1711449303613,599616038778955324,-390
1711449303621,599616038786623076,-467
1711449303628,599616038794290828,-425
1711449303636,599616038801958580,-327
1711449303644,599616038809626332,-308
1711449303651,599616038817294084,-374
1711449303659,599616038824961836,-439
1711449303667,599616038832629588,-432
1711449303673,599616038840297340,-383
1711449303681,599616038847965092,-332
1711449303689,599616038855632844,-315
1711449303697,599616038863300596,-364
1711449303705,599616038870968348,-458
1711449303713,599616038878636100,-549
1711449303720,599616038886303852,-636
1711449303728,599616038893971604,-680
1711449303736,599616038901639356,-683
1711449303743,599616038909307108,-704
1711449303751,599616038916974860,-736
1711449303759,599616038924642612,-753
1711449303766,599616038932310364,-755
1711449303774,599616038939978116,-744
1711449303782,599616038947645868,-718
1711449303789,599616038955313620,-701
1711449303797,599616038962981372,-680
1711449303805,599616038970649124,-683
1711449303812,599616038978316876,-739
1711449303820,599616038985984628,-765
1711449303828,599616038993652380,-685
1711449303835,599616039001320132,-610
1711449303843,599616039008987884,-598
1711449303851,599616039016655636,-570
1711449303857,599616039024323388,-531
1711449303865,599616039031991140,-519
1711449303873,599616039039658892,-488
1711449303881,599616039047326644,-437
1711449303889,599616039054994396,-418
1711449303897,599616039062662148,-444
1711449303904,599616039070329900,-491
1711449303912,599616039077997652,-493
1711449303920,599616039085665404,-428
1711449303927,599616039093333156,-367
1711449303935,599616039101000908,-350
1711449303943,599616039108668660,-322
1711449303950,599616039116336412,-290
1711449303958,599616039124004164,-322
1711449303966,599616039131671916,-355
1711449303973,599616039139339668,-320
1711449303981,599616039147007420,-285
1711449303989,599616039154675172,-269
1711449303996,599616039162342924,-233
1711449304004,599616039170010676,-262
1711449304012,599616039177653372,-348
1711449304019,599616039185321472,-346
1711449304027,599616039192989572,-290
1711449304035,599616039200657672,-264
1711449304041,599616039208325772,-210
1711449304049,599616039215993872,-70
1711449304057,599616039223661972,170
1711449304065,599616039231330072,402
1711449304073,599616039238998172,437
1711449304081,599616039246666272,7
1711449304088,599616039254334372,-938
1711449304096,599616039262002472,-1345
1711449304104,599616039269670572,-751
1711449304111,599616039277338672,-360
1711449304119,599616039285006772,-442
1711449304127,599616039292674872,-350
1711449304134,599616039300342972,-210
1711449304142,599616039308011072,-285
1711449304150,599616039315679172,-411
1711449304157,599616039323347272,-467
1711449304165,599616039331015372,-456
1711449304173,599616039338683472,-397
1711449304180,599616039346351572,-320
1711449304188,599616039354019672,-233
1711449304196,599616039361687772,-182
1711449304203,599616039369355872,-208
1711449304211,599616039377023972,-240
1711449304219,599616039384692072,-187
1711449304225,599616039392360172,-98
1711449304233,599616039400028272,-28
1711449304241,599616039407696372,28
1711449304249,599616039415364472,11
1711449304257,599616039423032572,-65
1711449304265,599616039430700672,-102
1711449304272,599616039438368772,-126
1711449304280,599616039446036872,-177
1711449304288,599616039453704972,-210
1711449304295,599616039461373072,-264
1711449304303,599616039469041172,-364
1711449304311,599616039476709272,-432
1711449304318,599616039484377372,-456
1711449304326,599616039492045472,-467
1711449304334,599616039499713572,-460
1711449304341,599616039507381672,-498
1711449304349,599616039515049772,-615
1711449304357,599616039522717872,-666
1711449304364,599616039530385972,-594
1711449304372,599616039538054072,-521
1711449304380,599616039545722172,-479
1711449304387,599616039553390272,-470
1711449304395,599616039561058372,-535
1711449304403,599616039568726472,-568
1711449304409,599616039576394572,-488
1711449304417,599616039584062672,-404
1711449304425,599616039591730772,-353
1711449304433,599616039599398872,-311
1711449304441,599616039607066972,-315
1711449304449,599616039614735072,-322
1711449304456,599616039622403172,-271
1711449304464,599616039630071272,-208
1711449304472,599616039637739372,-166
1711449304479,599616039645407472,-124
1711449304487,599616039653075572,-121
1711449304495,599616039660743672,-156
1711449304502,599616039668411772,-135
1711449304510,599616039676079872,-60
1711449304518,599616039683747972,-18
1711449304525,599616039691416072,-2
1711449304533,599616039699084172,-11
1711449304541,599616039706752272,-105
1711449304548,599616039714420372,-215
1711449304556,599616039722088472,-219
1711449304564,599616039729756572,-159
1711449304571,599616039737474884,-121
1711449304579,599616039745142287,-107
1711449304587,599616039752809690,-121
1711449304593,599616039760477093,-196
1711449304601,599616039768144496,-259
1711449304609,599616039775811899,-219
1711449304617,599616039783479302,-161
1711449304625,599616039791146705,-147
1711449304633,599616039798814108,-100
1711449304640,599616039806481511,93
1711449304648,599616039814148914,353
1711449304656,599616039821816317,444
1711449304663,599616039829483720,116
1711449304671,599616039837151123,-708
1711449304679,599616039844818526,-1151
1711449304686,599616039852485929,-650
1711449304694,599616039860153332,-217
1711449304702,599616039867820735,-243
1711449304709,599616039875488138,-182
1711449304717,599616039883155541,-70
1711449304725,599616039890822944,-70
1711449304732,599616039898490347,-81
1711449304740,599616039906157750,-121
1711449304748,599616039913825153,-163
1711449304755,599616039921492556,-128
1711449304763,599616039929159959,-112
1711449304771,599616039936827362,-149
1711449304777,599616039944494765,-140
1711449304785,599616039952162168,-109
1711449304793,599616039959829571,-100
1711449304801,599616039967496974,-60
1711449304809,599616039975164377,-18
1711449304817,599616039982831780,-11
1711449304824,599616039990499183,-4
1711449304832,599616039998166586,-11
1711449304840,599616040005833989,-63
1711449304847,599616040013501392,-133
1711449304855,599616040021168795,-189
1711449304863,599616040028836198,-229
1711449304870,599616040036503601,-248
1711449304878,599616040044171004,-299
1711449304886,599616040051838407,-404
1711449304893,599616040059505810,-491
1711449304901,599616040067173213,-512
1711449304909,599616040074840616,-503
1711449304916,599616040082508019,-486
1711449304924,599616040090175422,-505
1711449304932,599616040097842825,-601
1711449304939,599616040105510228,-704
1711449304947,599616040113177631,-706
1711449304955,599616040120845034,-638
1711449304961,599616040128512437,-575
1711449304969,599616040136179840,-519
1711449304977,599616040143847243,-477
1711449304985,599616040151514646,-467
1711449304993,599616040159182049,-446
1711449305001,599616040166849452,-393
1711449305008,599616040174516855,-329
1711449305016,599616040182184258,-273
1711449305024,599616040189851661,-271
1711449305031,599616040197519064,-362
1711449305039,599616040205186467,-423
1711449305047,599616040212853870,-362
1711449305054,599616040220521273,-283
1711449305062,599616040228188676,-243
1711449305070,599616040235856079,-187
1711449305077,599616040243523482,-145
1711449305085,599616040251190885,-147
1711449305093,599616040258858288,-121
1711449305100,599616040266525691,-98
1711449305108,599616040274193094,-138
1711449305116,599616040281860497,-145
1711449305123,599616040289527900,-116
1711449305131,599616040297155174,-173
1711449305139,599616040304823135,-233
1711449305145,599616040312491096,-189
1711449305153,599616040320159057,-131
1711449305161,599616040327827018,-105
1711449305169,599616040335494979,-100
1711449305177,599616040343162940,-173
1711449305185,599616040350830901,-231
1711449305192,599616040358498862,-161
1711449305200,599616040366166823,-84
1711449305208,599616040373834784,-70
1711449305215,599616040381502745,-63
1711449305223,599616040389170706,-116
1711449305231,599616040396838667,-149
1711449305238,599616040404506628,100
1711449305246,599616040412174589,503
1711449305254,599616040419842550,669
1711449305261,599616040427510511,364
1711449305269,599616040435178472,-498
1711449305277,599616040442846433,-1071
1711449305284,599616040450514394,-563
1711449305292,599616040458182355,60
1711449305300,599616040465850316,126
1711449305307,599616040473518277,173
1711449305315,599616040481186238,306
1711449305323,599616040488854199,285
1711449305329,599616040496522160,248
1711449305337,599616040504190121,308
1711449305345,599616040511858082,360
1711449305353,599616040519526043,329
1711449305361,599616040527194004,294
1711449305369,599616040534861965,294
1711449305376,599616040542529926,276
1711449305384,599616040550197887,224
1711449305392,599616040557865848,222
1711449305399,599616040565533809,262
1711449305407,599616040573201770,250
1711449305415,599616040580869731,175
1711449305422,599616040588537692,70
1711449305430,599616040596205653,0
1711449305438,599616040603873614,16
1711449305445,599616040611541575,30
1711449305453,599616040619209536,-18
1711449305461,599616040626877497,-67
1711449305468,599616040634545458,-114
1711449305476,599616040642213419,-180
1711449305484,599616040649881380,-215
1711449305491,599616040657549341,-226
1711449305499,599616040665217302,-283
1711449305507,599616040672885263,-343
1711449305513,599616040680553224,-350
1711449305521,599616040688221185,-350
1711449305529,599616040695889146,-360
1711449305537,599616040703557107,-350
1711449305545,599616040711225068,-348
1711449305553,599616040718893029,-362
1711449305560,599616040726560990,-402
1711449305568,599616040734228951,-491
1711449305576,599616040741896912,-531
1711449305583,599616040749564873,-474
1711449305591,599616040757232834,-430
1711449305599,599616040764900795,-423
1711449305606,599616040772568756,-479
1711449305614,599616040780236717,-563
1711449305622,599616040787904678,-587
1711449305629,599616040795572639,-594
1711449305637,599616040803240600,-594
1711449305645,599616040810908561,-552
1711449305652,599616040818576522,-505
1711449305660,599616040826244483,-488
1711449305668,599616040833912444,-460
1711449305675,599616040841580405,-404
1711449305683,599616040849248366,-369
1711449305691,599616040856936416,-334
1711449305699,599616040864604098,-245
1711449305705,599616040872271780,-182
1711449305713,599616040879939462,-196
1711449305721,599616040887607144,-198
1711449305729,599616040895274826,-175
1711449305737,599616040902942508,-182
1711449305745,599616040910610190,-187
1711449305752,599616040918277872,-187
1711449305760,599616040925945554,-297
1711449305768,599616040933613236,-465
1711449305775,599616040941280918,-486
1711449305783,599616040948948600,-407
1711449305791,599616040956616282,-350
1711449305798,599616040964283964,-294
1711449305806,599616040971951646,-250
1711449305814,599616040979619328,-245
1711449305821,599616040987287010,-217
1711449305829,599616040994954692,-56
1711449305837,599616041002622374,287
1711449305844,599616041010290056,575
1711449305852,599616041017957738,545
1711449305860,599616041025625420,7
1711449305867,599616041033293102,-947
1711449305875,599616041040960784,-1237
1711449305883,599616041048628466,-528
1711449305889,599616041056296148,-51
1711449305897,599616041063963830,-79
1711449305905,599616041071631512,-21
1711449305913,599616041079299194,37
1711449305921,599616041086966876,-16
1711449305929,599616041094634558,11
1711449305936,599616041102302240,102
1711449305944,599616041109969922,154
1711449305952,599616041117637604,131
1711449305959,599616041125305286,7
1711449305967,599616041132972968,-88
1711449305975,599616041140640650,-39
1711449305982,599616041148308332,30
1711449305990,599616041155976014,65
1711449305998,599616041163643696,107
1711449306005,599616041171311378,105
1711449306013,599616041178979060,65
1711449306021,599616041186646742,67
1711449306028,599616041194314424,81
1711449306036,599616041201982106,49
1711449306044,599616041209649788,14
1711449306051,599616041217317470,-30
1711449306059,599616041224985152,-102
1711449306067,599616041232652834,-145
1711449306073,599616041240320516,-159
1711449306081,599616041247988198,-191
1711449306089,599616041255655880,-248
1711449306097,599616041263323562,-374
1711449306105,599616041270991244,-561
1711449306113,599616041278658926,-713
1711449306120,599616041286326608,-786
1711449306128,599616041293994290,-769
1711449306136,599616041301661972,-715
1711449306143,599616041309329654,-704
1711449306151,599616041316997336,-704
1711449306159,599616041324665018,-662
1711449306166,599616041332332700,-589
1711449306174,599616041340000382,-519
1711449306182,599616041347668064,-470
1711449306189,599616041355335746,-423
1711449306197,599616041363003428,-364
1711449306205,599616041370671110,-336
1711449306212,599616041378338792,-311
1711449306220,599616041386006474,-233
1711449306228,599616041393674156,-175
1711449306235,599616041401341838,-177
1711449306243,599616041409009520,-170
1711449306251,599616041416677226,-145
1711449306257,599616041424344908,-121
1711449306265,599616041432012590,-93
1711449306273,599616041439680272,-79
1711449306281,599616041447347954,-53
1711449306289,599616041455015636,-28
1711449306297,599616041462683318,-152
1711449306304,599616041470351000,-329
1711449306312,599616041478018682,-311
1711449306320,599616041485686364,-231
1711449306327,599616041493354046,-269
1711449306335,599616041501021728,-278
1711449306343,599616041508689410,-217
1711449306350,599616041516357092,-201
1711449306358,599616041524024774,-233
1711449306366,599616041531692456,-257
1711449306373,599616041539360138,-255
1711449306381,599616041547027820,-217
1711449306389,599616041554695502,-180
1711449306396,599616041562363184,-159
1711449306404,599616041570030866,-126
1711449306412,599616041577698548,-63
1711449306419,599616041585366230,121
1711449306427,599616041593033912,470
1711449306435,599616041600701594,676
1711449306441,599616041608369276,463
1711449306449,599616041616036958,-236
1711449306457,599616041623704640,-973
1711449306465,599616041631372322,-816
1711449306473,599616041639040004,-105
1711449306481,599616041646707686,147
1711449306488,599616041654375368,91
1711449306496,599616041662043050,98
1711449306504,599616041669710732,88
1711449306511,599616041677378414,72
1711449306519,599616041685046096,112
1711449306527,599616041692713778,170
1711449306534,599616041700381460,205
1711449306542,599616041708049142,212
1711449306550,599616041715716824,201
1711449306557,599616041723384506,163
1711449306565,599616041731052188,131
1711449306573,599616041738719870,159
1711449306580,599616041746387552,219
1711449306588,599616041754055234,243
1711449306596,599616041761722916,240
1711449306603,599616041769390598,208
1711449306611,599616041777058280,79
1711449306619,599616041784725962,-79
1711449306625,599616041792393644,-154
1711449306633,599616041800061326,-240
1711449306641,599616041807729008,-395
1711449306649,599616041815396690,-477
1711449306657,599616041823064372,-470
1711449306665,599616041830732054,-484
1711449306672,599616041838399736,-521
1711449306680,599616041846067418,-545
1711449306688,599616041853735100,-587
1711449306695,599616041861402782,-638
1711449306703,599616041869070464,-631
1711449306711,599616041876738146,-582
1711449306718,599616041884405828,-531
1711449306726,599616041892073510,-488
1711449306734,599616041899741192,-481
1711449306741,599616041907408874,-503
1711449306749,599616041915076556,-479
1711449306757,599616041922744238,-395
1711449306764,599616041930411920,-329
1711449306772,599616041938079602,-278
1711449306780,599616041945747284,-236
1711449306787,599616041953414966,-231
1711449306795,599616041961082648,-217
1711449306803,599616041968750330,-161
1711449306809,599616041976418040,-133
1711449306817,599616041984085722,-119
1711449306825,599616041991753404,-88
1711449306833,599616041999421086,-105
1711449306841,599616042007088768,-138
1711449306849,599616042014756450,-133
1711449306856,599616042022424132,-149
1711449306864,599616042030091814,-170
1711449306872,599616042037759496,-138
1711449306879,599616042045427178,-156
1711449306887,599616042053094860,-248
1711449306895,599616042060762542,-250
1711449306902,599616042068430224,-166
1711449306910,599616042076097906,-138
1711449306918,599616042083765588,-140
1711449306925,599616042091433270,-156
1711449306933,599616042099100952,-250
1711449306941,599616042106768634,-308
1711449306948,599616042114436316,-252
1711449306956,599616042122103998,-187
1711449306964,599616042129771680,-147
1711449306971,599616042137439362,-119
1711449306979,599616042145107044,-138
1711449306987,599616042152774726,-168
1711449306993,599616042160442408,-142
1711449307001,599616042168110090,-65
1711449307009,599616042175777772,74
1711449307017,599616042183445454,341
1711449307025,599616042191113136,531
1711449307033,599616042198780818,376
1711449307040,599616042206448500,-156
1711449307048,599616042214116182,-903
1711449307056,599616042221783864,-1099
1711449307063,599616042229451546,-477
1711449307071,599616042237119228,-25
1711449307079,599616042244786910,-58
1711449307086,599616042252454592,-14
1711449307094,599616042260122274,109
1711449307102,599616042267789956,51
1711449307109,599616042275457638,-44
1711449307117,599616042283125320,-102
1711449307125,599616042290793002,-212
1711449307132,599616042298460684,-245
1711449307140,599616042306128366,-175
1711449307148,599616042313796048,-175
1711449307155,599616042321463730,-222
1711449307163,599616042329131412,-212
1711449307171,599616042336799094,-212
1711449307177,599616042344466776,-264
1711449307185,599616042352134458,-255
1711449307193,599616042359802140,-212
1711449307201,599616042367469822,-240
1711449307209,599616042375137504,-264
1711449307217,599616042382805186,-257
1711449307224,599616042390472868,-290
1711449307232,599616042398140550,-318
1711449307240,599616042405808232,-313
1711449307247,599616042413475914,-350
1711449307255,599616042421143596,-404
1711449307263,599616042428811278,-409
1711449307270,599616042436478960,-435
1711449307278,599616042444146642,-505
1711449307286,599616042451814324,-535
1711449307293,599616042459482006,-538
1711449307301,599616042467149688,-531
1711449307309,599616042474817370,-500
1711449307316,599616042482485052,-486
1711449307324,599616042490152734,-491
1711449307332,599616042497820416,-484
1711449307339,599616042505488098,-510
1711449307347,599616042513155780,-575
1711449307355,599616042520823462,-584
1711449307361,599616042528491144,-549
1711449307369,599616042536158850,-601
1711449307377,599616042543826532,-685
1711449307385,599616042551494214,-659
1711449307393,599616042559161896,-577
1711449307401,599616042566829578,-517
1711449307408,599616042574497260,-437
1711449307416,599616042582164942,-379
1711449307424,599616042589832624,-397
1711449307431,599616042597500306,-402
1711449307439,599616042605167988,-346
1711449307447,599616042612835670,-276
1711449307454,599616042620503352,-219
1711449307462,599616042628171034,-229
1711449307470,599616042635838716,-315
1711449307477,599616042643506398,-360
1711449307485,599616042651174080,-315
1711449307493,599616042658841762,-243
1711449307500,599616042666509444,-170
1711449307508,599616042674177126,-112
1711449307516,599616042681844808,-121
1711449307523,599616042689512490,-175
1711449307531,599616042697180172,-180
1711449307539,599616042704847854,-140
1711449307545,599616042712515536,-121
1711449307553,599616042720183218,-100
1711449307561,599616042727850900,-126
1711449307569,599616042735518582,-245
1711449307577,599616042743186264,-283
1711449307585,599616042750853946,-210
1711449307592,599616042758521628,-233
1711449307600,599616042766189310,-290
1711449307608,599616042773856992,-255
1711449307615,599616042781524674,-266
1711449307623,599616042789192356,-343
1711449307631,599616042796860038,-285
1711449307638,599616042804527720,0
1711449307646,599616042812195402,297
1711449307654,599616042819863084,299
1711449307661,599616042827530766,-159
1711449307669,599616042835198448,-973
1711449307677,599616042842866130,-1263
1711449307684,599616042850533812,-641
1711449307692,599616042858201494,-116
1711449307700,599616042865869176,-91
1711449307707,599616042873536858,-105
1711449307715,599616042881204540,-131
1711449307723,599616042888872222,-212
1711449307729,599616042896539904,-215
1711449307737,599616042904207586,-147
1711449307745,599616042911875268,-116
1711449307753,599616042919542950,-126
1711449307761,599616042927210632,-109
1711449307769,599616042934878314,-77
1711449307776,599616042942545996,-91
1711449307784,599616042950213678,-93
1711449307792,599616042957881360,-70
1711449307799,599616042965549042,-102
1711449307807,599616042973216724,-133
1711449307815,599616042980884406,-84
1711449307822,599616042988552088,-16
1711449307830,599616042996219770,30
1711449307838,599616043003887452,9
1711449307845,599616043011555134,-58
1711449307853,599616043019222816,-88
1711449307861,599616043026890498,-102
1711449307868,599616043034558180,-133
1711449307876,599616043042225862,-152
1711449307884,599616043049893544,-191
1711449307891,599616043057561226,-240
1711449307899,599616043065228908,-294
1711449307907,599616043072896590,-411
1711449307913,599616043080564272,-526
1711449307921,599616043088231954,-500
1711449307929,599616043095889652,-439
1711449307937,599616043103557473,-435
1711449307945,599616043111225294,-404
1711449307953,599616043118893115,-362
1711449307960,599616043126560936,-348
1711449307968,599616043134228757,-292
1711449307976,599616043141896578,-215
1711449307983,599616043149564399,-182
1711449307991,599616043157232220,-145
1711449307999,599616043164900041,-124
1711449308006,599616043172567862,-180
1711449308014,599616043180235683,-198
1711449308022,599616043187903504,-128
1711449308029,599616043195571325,-93
1711449308037,599616043203239146,-77
1711449308045,599616043210906967,-18
1711449308052,599616043218574788,-9
1711449308060,599616043226242609,-35
1711449308068,599616043233910430,-2
1711449308075,599616043241578251,32
1711449308083,599616043249246072,2
1711449308091,599616043256913893,-49
1711449308097,599616043264581714,-102
1711449308105,599616043272249535,-180
1711449308113,599616043279917356,-203
1711449308121,599616043287585177,-194
1711449308129,599616043295252998,-264
1711449308137,599616043302920819,-325
1711449308144,599616043310588640,-283
1711449308152,599616043318256461,-231
1711449308160,599616043325924282,-194
1711449308168,599616043333592103,-124
1711449308175,599616043341259924,-79
1711449308183,599616043348927745,-46
1711449308191,599616043356595566,2
1711449308198,599616043364263387,14
1711449308206,599616043371931208,0
1711449308214,599616043379599029,11
1711449308221,599616043387266850,42
1711449308229,599616043394934671,74
1711449308237,599616043402602492,100
1711449308244,599616043410270313,65
1711449308252,599616043417938134,-32
1711449308260,599616043425605955,-77
1711449308267,599616043433273776,-32
1711449308275,599616043440941597,16
1711449308283,599616043448609418,58
1711449308289,599616043456277239,187
1711449308297,599616043463945060,451
1711449308305,599616043471612881,678
1711449308313,599616043479280702,638
1711449308321,599616043486948523,217
1711449308329,599616043494616344,-624
1711449308336,599616043502284165,-1116
1711449308344,599616043509951986,-641
1711449308352,599616043517619807,-131
1711449308359,599616043525287628,-156
1711449308367,599616043532955449,-177
1711449308375,599616043540623270,-100
1711449308382,599616043548291091,-149
1711449308390,599616043555958912,-226
1711449308398,599616043563626733,-250
1711449308405,599616043571294554,-264
1711449308413,599616043578962375,-255
1711449308421,599616043586630196,-219
1711449308428,599616043594298017,-177
1711449308436,599616043601965838,-177
1711449308444,599616043609633659,-262
1711449308451,599616043617301480,-306
1711449308459,599616043624969301,-226
1711449308467,599616043632637122,-138
1711449308473,599616043640304943,-88
1711449308481,599616043647972764,-30
1711449308489,599616043655660724,7
1711449308497,599616043663328266,21
1711449308505,599616043670995808,70
1711449308513,599616043678663350,124
1711449308520,599616043686330892,147
1711449308528,599616043693998434,149
1711449308536,599616043701665976,65
1711449308543,599616043709333518,-105
1711449308551,599616043717001060,-194
1711449308559,599616043724668602,-177
1711449308566,599616043732336144,-173
1711449308574,599616043740003686,-224
1711449308582,599616043747671228,-346
1711449308589,599616043755338770,-496
1711449308597,599616043763006312,-542
1711449308605,599616043770673854,-477
1711449308612,599616043778341396,-397
1711449308620,599616043786008938,-355
1711449308628,599616043793676480,-372
1711449308635,599616043801344022,-465
1711449308643,599616043809011564,-531
1711449308651,599616043816679106,-465
1711449308657,599616043824346648,-367
1711449308665,599616043832014190,-329
1711449308673,599616043839681732,-299
1711449308681,599616043847349274,-252
1711449308689,599616043855016816,-222
1711449308697,599616043862684358,-187
1711449308704,599616043870351900,-124
1711449308712,599616043878019442,-77
1711449308720,599616043885686984,-65
1711449308727,599616043893354526,-49
1711449308735,599616043901022068,-23
1711449308743,599616043908689610,-4
1711449308750,599616043916357152,23
1711449308758,599616043924024694,53
1711449308766,599616043931692236,46
1711449308773,599616043939359778,28
1711449308781,599616043947027320,-11
1711449308789,599616043954694862,-81
1711449308796,599616043962362404,-84
1711449308804,599616043970029946,-25
1711449308812,599616043977697488,-16
1711449308819,599616043985365030,-39
1711449308827,599616043993032572,-74
1711449308835,599616044000700114,-119
1711449308841,599616044008367656,-72
1711449308849,599616044016035198,16
1711449308857,599616044023702740,7
1711449308865,599616044031370282,-16
1711449308873,599616044039037824,28
1711449308881,599616044046705366,32
1711449308888,599616044054372908,4
1711449308896,599616044062040450,14
1711449308904,599616044069707992,-2
1711449308911,599616044077375534,-51
1711449308919,599616044085043076,-46
1711449308927,599616044092710618,-32
1711449308934,599616044100378160,-56
1711449308942,599616044108045702,-77
1711449308950,599616044115713244,-98
1711449308957,599616044123380786,-142
1711449308965,599616044131048328,-166
1711449308973,599616044138715870,-149
1711449308980,599616044146383412,-53
1711449308988,599616044154050954,159
1711449308996,599616044161718496,304
1711449309003,599616044169386038,98
1711449309011,599616044177053580,-666
1711449309019,599616044184721122,-1366
1711449309025,599616044192388664,-1048
1711449309033,599616044200056206,-418
1711449309041,599616044207723748,-341
1711449309049,599616044215381280,-334
1711449309057,599616044223048962,-159
1711449309065,599616044230716644,-131
1711449309072,599616044238384326,-226
1711449309080,599616044246052008,-255
1711449309088,599616044253719690,-231
1711449309095,599616044261387372,-208
1711449309103,599616044269055054,-154
1711449309111,599616044276722736,-81
1711449309118,599616044284390418,-86
1711449309126,599616044292058100,-233
1711449309134,599616044299725782,-402
1711449309141,599616044307393464,-446
1711449309149,599616044315061146,-402
1711449309157,599616044322728828,-322
1711449309164,599616044330396510,-229
1711449309172,599616044338064192,-180
1711449309180,599616044345731874,-161
1711449309187,599616044353399556,-105
1711449309195,599616044361067238,-32
1711449309203,599616044368734920,11
1711449309209,599616044376402602,37
1711449309217,599616044384070284,23
1711449309225,599616044391737966,-46
1711449309233,599616044399405648,-93
1711449309241,599616044407073330,-91
1711449309249,599616044414741012,-84
1711449309256,599616044422408694,-77
1711449309264,599616044430076376,-81
1711449309272,599616044437744058,-121
1711449309279,599616044445411740,-145
1711449309287,599616044453079422,-105
1711449309295,599616044460747104,-63
1711449309302,599616044468414786,-53
1711449309310,599616044476082468,-56
1711449309318,599616044483750150,-98
1711449309325,599616044491417832,-140
1711449309333,599616044499085514,-98
1711449309341,599616044506753196,-28
1711449309348,599616044514420878,16
1711449309356,599616044522088560,58
1711449309364,599616044529756242,30
1711449309371,599616044537423924,-86
1711449309379,599616044545091606,-135
1711449309387,599616044552759288,-67
1711449309393,599616044560426970,-9
1711449309401,599616044568094652,9
1711449309409,599616044575762334,23
1711449309417,599616044583430016,9
1711449309425,599616044591097698,2
1711449309433,599616044598765380,44
1711449309440,599616044606433062,98
1711449309448,599616044614100744,119
1711449309456,599616044621768426,124
1711449309463,599616044629436108,119
1711449309471,599616044637103790,100
1711449309479,599616044644771472,91
1711449309486,599616044652439154,107
1711449309494,599616044660106836,126
1711449309502,599616044667774518,91
1711449309509,599616044675442200,-14
1711449309517,599616044683109882,-102
1711449309525,599616044690777564,-119
1711449309532,599616044698445246,-95
1711449309540,599616044706112928,-93
1711449309548,599616044713780610,-121
1711449309555,599616044721448292,-191
1711449309563,599616044729115974,-297
1711449309571,599616044736783656,-393
1711449309577,599616044744451338,-444
1711449309585,599616044752119020,-442
1711449309593,599616044759786702,-437
1711449309601,599616044767454384,-432
1711449309609,599616044775122090,-421
1711449309617,599616044782789772,-421
1711449309624,599616044790457454,-409
1711449309632,599616044798125136,-400
1711449309640,599616044805792818,-470
1711449309647,599616044813460500,-514
1711449309655,599616044821128182,-367
1711449309663,599616044828795864,-191
1711449309670,599616044836463546,-173
1711449309678,599616044844131228,-348
1711449309686,599616044851798910,-1020
1711449309693,599616044859466592,-1712
1711449309701,599616044867134274,-1361
1711449309709,599616044874801956,-636
1711449309716,599616044882469638,-507
1711449309724,599616044890137320,-496
1711449309732,599616044897805002,-320
1711449309739,599616044905472684,-259
1711449309747,599616044913140366,-245
1711449309755,599616044920808048,-173
1711449309761,599616044928475730,-133
1711449309769,599616044936143412,-119
1711449309777,599616044943811094,-74
1711449309785,599616044951478776,-23
1711449309793,599616044959146458,32
1711449309801,599616044966814140,93
1711449309808,599616044974481822,107
1711449309816,599616044982149504,81
1711449309824,599616044989817186,91
1711449309831,599616044997484868,138
1711449309839,599616045005152550,182
1711449309847,599616045012820232,226
1711449309854,599616045020487914,217
1711449309862,599616045028155596,121
1711449309870,599616045035823278,63
1711449309877,599616045043490960,93
1711449309885,599616045051158642,109
1711449309893,599616045058826324,95
1711449309900,599616045066494006,74
1711449309908,599616045074161688,14
1711449309916,599616045081829370,-65
1711449309923,599616045089497052,-95
1711449309931,599616045097164734,-81
1711449309939,599616045104832416,-63
1711449309945,599616045112500098,-53
1711449309953,599616045120167780,-74
1711449309961,599616045127835462,-114
1711449309969,599616045135503144,-107
1711449309977,599616045143170826,-51
1711449309985,599616045150838508,-4
1711449309992,599616045158506190,32
1711449310000,599616045166173872,44
1711449310008,599616045173841554,4
1711449310015,599616045181509236,-21
1711449310023,599616045189176918,25
1711449310031,599616045196844600,74
1711449310038,599616045204512282,109
1711449310046,599616045212179964,135
1711449310054,599616045219847646,93
1711449310061,599616045227515328,14
1711449310069,599616045235183010,18
1711449310077,599616045242850692,74
1711449310084,599616045250518374,79
1711449310092,599616045258186056,9
1711449310100,599616045265853738,-124
1711449310107,599616045273521420,-217
1711449310115,599616045281189102,-196
1711449310123,599616045288856784,-149
1711449310129,599616045296524466,-142
1711449310137,599616045304192148,-215
1711449310145,599616045311859830,-381
1711449310153,599616045319527512,-493
1711449310161,599616045327195194,-500
1711449310169,599616045334872984,-500
1711449310176,599616045342540526,-481
1711449310184,599616045350208068,-456
1711449310192,599616045357875610,-528
1711449310199,599616045365543152,-692
1711449310207,599616045373210694,-774
1711449310215,599616045380878236,-708
1711449310222,599616045388545778,-641
1711449310230,599616045396213320,-631
1711449310238,599616045403880862,-631
1711449310245,599616045411548404,-629
1711449310253,599616045419215946,-612
1711449310261,599616045426883488,-549
1711449310268,599616045434551030,-479
1711449310276,599616045442218572,-432
1711449310284,599616045449886114,-400
1711449310291,599616045457553656,-357
1711449310299,599616045465221198,-343
1711449310307,599616045472888740,-369
1711449310313,599616045480556282,-336
1711449310321,599616045488223824,-203
1711449310329,599616045495891366,32
1711449310337,599616045503558908,292
1711449310345,599616045511226450,350
1711449310353,599616045518893992,93
1711449310360,599616045526561534,-612
1711449310368,599616045534229076,-1200
1711449310376,599616045541896618,-786
1711449310383,599616045549564160,-133
1711449310391,599616045557231702,-126
1711449310399,599616045564899244,-233
1711449310406,599616045572566786,-105
1711449310414,599616045580234328,-35
1711449310422,599616045587901870,-58
1711449310429,599616045595569412,-9
1711449310437,599616045603236954,51
1711449310445,599616045610904496,51
1711449310452,599616045618572038,74
1711449310460,599616045626239580,135
1711449310468,599616045633907122,166
1711449310475,599616045641574664,189
1711449310483,599616045649242206,238
1711449310491,599616045656909748,271
1711449310497,599616045664577290,294
1711449310505,599616045672244832,343
1711449310513,599616045679912374,388
1711449310521,599616045687579916,416
1711449310529,599616045695247458,456
1711449310537,599616045702915000,477
1711449310544,599616045710582542,407
1711449310552,599616045718250084,283
1711449310560,599616045725917626,205
1711449310567,599616045733585168,187
1711449310575,599616045741252710,168
1711449310583,599616045748920252,98
1711449310590,599616045756587794,-35
1711449310598,599616045764255336,-138
1711449310606,599616045771922878,-154
1711449310614,599616045779590420,-145
1711449310621,599616045787257962,-128
1711449310629,599616045794925504,-102
1711449310637,599616045802593046,-114
1711449310644,599616045810260588,-208
1711449310652,599616045817928130,-318
1711449310660,599616045825595672,-318
1711449310667,599616045833263214,-238
1711449310675,599616045840930756,-203
1711449310683,599616045848598298,-229
1711449310689,599616045856265840,-271
1711449310697,599616045863933382,-276
1711449310705,599616045871600924,-238
1711449310713,599616045879268466,-201
1711449310721,599616045886936008,-187
1711449310729,599616045894598582,-236
1711449310736,599616045902266194,-372
1711449310744,599616045909933806,-479
1711449310752,599616045917601418,-496
1711449310759,599616045925269030,-507
1711449310767,599616045932936642,-510
1711449310775,599616045940604254,-479
1711449310782,599616045948271866,-496
1711449310790,599616045955939478,-582
1711449310798,599616045963607090,-643
1711449310805,599616045971274702,-620
1711449310813,599616045978942314,-561
1711449310821,599616045986609926,-528
1711449310828,599616045994277538,-568
1711449310836,599616046001945150,-652
1711449310844,599616046009612762,-643
1711449310851,599616046017280374,-554
1711449310859,599616046024947986,-500
1711449310867,599616046032615598,-467
1711449310873,599616046040283210,-423
1711449310881,599616046047950822,-402
1711449310889,599616046055618434,-393
1711449310897,599616046063286046,-367
1711449310905,599616046070953658,-339
1711449310913,599616046078621270,-306
1711449310920,599616046086288882,-299
1711449310928,599616046093956494,-393
1711449310936,599616046101624106,-493
1711449310943,599616046109291718,-444
1711449310951,599616046116959330,-348
1711449310959,599616046124626942,-306
1711449310966,599616046132294554,-259
1711449310974,599616046139962166,-233
1711449310982,599616046147629778,-248
1711449310989,599616046155297390,-210
1711449310997,599616046162965002,-124
1711449311005,599616046170632614,-25
1711449311012,599616046178300226,180
1711449311020,599616046185967838,467
1711449311028,599616046193635450,584
1711449311035,599616046201303062,376
1711449311043,599616046208970674,-308
1711449311051,599616046216638286,-1078
1711449311057,599616046224305898,-919
1711449311065,599616046231973510,-208
1711449311073,599616046239641122,-25
1711449311081,599616046247308734,-86
1711449311089,599616046254976346,42
1711449311097,599616046262643958,131
1711449311104,599616046270311570,121
1711449311112,599616046277979182,145
1711449311120,599616046285646794,138
1711449311127,599616046293314406,60
1711449311135,599616046300982018,39
1711449311143,599616046308649630,98
1711449311150,599616046316317242,65
1711449311158,599616046323984854,-49
1711449311166,599616046331652466,-56
1711449311173,599616046339320078,7
1711449311181,599616046346987690,37
1711449311189,599616046354655302,98
1711449311196,599616046362322914,191
1711449311204,599616046369990526,245
1711449311212,599616046377658138,283
1711449311219,599616046385325750,320
1711449311227,599616046392993362,329
1711449311235,599616046400660974,339
1711449311241,599616046408328586,346
1711449311249,599616046415996198,304
1711449311257,599616046423663810,240
1711449311265,599616046431331422,161
1711449311273,599616046438999034,28
1711449311281,599616046446666646,-95
1711449311288,599616046454334306,-182
1711449311296,599616046462001918,-269
1711449311304,599616046469669530,-334
1711449311311,599616046477337142,-364
1711449311319,599616046485004754,-388
1711449311327,599616046492672366,-381
1711449311334,599616046500339978,-348
1711449311342,599616046508007590,-339
1711449311350,599616046515675202,-343
1711449311357,599616046523342814,-357
1711449311365,599616046531010426,-435
1711449311373,599616046538678038,-556
1711449311380,599616046546345650,-612
1711449311388,599616046554013262,-591
1711449311396,599616046561680874,-566
1711449311403,599616046569348486,-531
1711449311411,599616046577016098,-488
1711449311419,599616046584683710,-470
1711449311425,599616046592351322,-465
1711449311433,599616046600018934,-467
1711449311441,599616046607686546,-460
1711449311449,599616046615354158,-423
1711449311457,599616046623021770,-393
1711449311465,599616046630689382,-444
1711449311472,599616046638356994,-512
1711449311480,599616046646024606,-498
1711449311488,599616046653692218,-437
1711449311495,599616046661359830,-388
1711449311503,599616046669027442,-332
1711449311511,599616046676695054,-297
1711449311518,599616046684362666,-299
1711449311526,599616046692030278,-308
1711449311534,599616046699697890,-322
1711449311541,599616046707365502,-327
1711449311549,599616046715033114,-273
1711449311557,599616046722700726,-191
1711449311564,599616046730368338,-161
1711449311572,599616046738035950,-180
1711449311580,599616046745703562,-163
1711449311587,599616046753371174,-95
1711449311595,599616046761038786,-46
1711449311603,599616046768706398,-30
1711449311609,599616046776374010,-51
1711449311617,599616046784041622,-93
1711449311625,599616046791709234,-81
1711449311633,599616046799376846,-18
1711449311641,599616046807044458,25
1711449311649,599616046814712070,7
1711449311656,599616046822379682,-140
1711449311664,599616046830047294,-320
1711449311672,599616046837714906,-318
1711449311679,599616046845382518,-198
1711449311687,599616046853050130,-65
1711449311695,599616046860717742,224
1711449311702,599616046868385354,563
1711449311710,599616046876052966,589
1711449311718,599616046883720578,124
1711449311725,599616046891388190,-697
1711449311733,599616046899055802,-994
1711449311741,599616046906723414,-379
1711449311748,599616046914391026,105
1711449311756,599616046922058638,84
1711449311764,599616046929726250,121
1711449311771,599616046937393862,238
1711449311779,599616046945061474,203
1711449311787,599616046952729086,135
1711449311793,599616046960396698,142
1711449311801,599616046968064310,95
1711449311809,599616046975731922,-14
1711449311817,599616046983399534,-25
1711449311825,599616046991067146,60
1711449311833,599616046998734758,124
1711449311840,599616047006402370,159
1711449311848,599616047014070030,196
1711449311856,599616047021737642,203
1711449311863,599616047029405254,212
1711449311871,599616047037072866,278
1711449311879,599616047044740478,360
1711449311886,599616047052408090,404
1711449311894,599616047060075702,409
1711449311902,599616047067743314,334
1711449311909,599616047075410926,205
1711449311917,599616047083078538,156
1711449311925,599616047090746150,173
1711449311932,599616047098413762,140
1711449311940,599616047106081374,84
1711449311948,599616047113748986,37
1711449311955,599616047121416598,-28
1711449311963,599616047129084210,-109
1711449311971,599616047136751822,-196
1711449311977,599616047144419434,-250
1711449311985,599616047152087046,-273
1711449311993,599616047159754658,-311
1711449312001,599616047167422270,-388
1711449312009,599616047175089882,-460
1711449312017,599616047182757494,-498
1711449312024,599616047190425106,-573
1711449312032,599616047198092718,-676
1711449312040,599616047205760330,-706
1711449312047,599616047213427942,-692
1711449312055,599616047221095554,-692
1711449312063,599616047228763166,-662
1711449312070,599616047236430778,-603
1711449312078,599616047244098390,-584
1711449312086,599616047251766002,-568
1711449312093,599616047259433614,-521
1711449312101,599616047267101226,-496
1711449312109,599616047274768838,-470
1711449312116,599616047282436450,-414
1711449312124,599616047290104062,-390
1711449312132,599616047297771674,-376
1711449312139,599616047305439286,-341
1711449312147,599616047313106898,-350
1711449312155,599616047320774510,-416
1711449312161,599616047328442122,-498
1711449312169,599616047336109734,-535
1711449312177,599616047343777346,-481
1711449312185,599616047351444958,-411
1711449312193,599616047359112570,-437
1711449312201,599616047366780182,-500
1711449312208,599616047374447794,-470
1711449312216,599616047382115406,-411
1711449312224,599616047389783018,-390
1711449312231,599616047397450630,-346
1711449312239,599616047405118242,-301
1711449312247,599616047412785854,-299
1711449312254,599616047420453466,-297
1711449312262,599616047428121078,-280
1711449312270,599616047435788690,-292
1711449312277,599616047443456302,-320
1711449312285,599616047451123914,-299
1711449312293,599616047458791526,-259
1711449312300,599616047466459138,-255
1711449312308,599616047474126750,-245
1711449312316,599616047481794362,-203
1711449312323,599616047489461974,-145
1711449312331,599616047497129586,-53
1711449312339,599616047504797198,133
1711449312345,599616047512464810,357
1711449312353,599616047520132422,418
1711449312361,599616047527800034,124
1711449312369,599616047535467646,-631
1711449312377,599616047543135258,-1125
1711449312385,599616047550802870,-641
1711449312392,599616047558470482,-67
1711449312400,599616047566138094,-42
1711449312408,599616047573805754,9
1711449312415,599616047581473366,194
1711449312423,599616047589140978,238
1711449312431,599616047596808590,248
1711449312438,599616047604476202,287
1711449312446,599616047612143814,269
1711449312454,599616047619811426,264
1711449312461,599616047627479038,320
1711449312469,599616047635146650,372
1711449312477,599616047642814262,411
1711449312484,599616047650481874,411
1711449312492,599616047658149486,318
1711449312500,599616047665817098,250
1711449312507,599616047673484710,292
1711449312515,599616047681152322,318
1711449312523,599616047688819934,290
1711449312529,599616047696487546,276
1711449312537,599616047704155158,229
1711449312545,599616047711822770,152
1711449312553,599616047719490382,163
1711449312561,599616047727157994,215
1711449312569,599616047734825606,217
1711449312576,599616047742493218,191
1711449312584,599616047750160830,124
1711449312592,599616047757828442,44
1711449312599,599616047765496054,23
1711449312607,599616047773163666,35
1711449312615,599616047780831278,39
1711449312622,599616047788498890,39
1711449312630,599616047796166502,14
1711449312638,599616047803834114,-25
1711449312645,599616047811501726,-46
1711449312653,599616047819169338,-70
1711449312661,599616047826836950,-93
1711449312668,599616047834504562,-156
1711449312676,599616047842172174,-304
1711449312684,599616047849839786,-449
1711449312691,599616047857507398,-491
1711449312699,599616047865175010,-488
1711449312707,599616047872842622,-500
1711449312713,599616047880510234,-512
1711449312721,599616047888177846,-540
1711449312729,599616047895845458,-575
1711449312737,599616047903513070,-570
1711449312745,599616047911180682,-535
1711449312753,599616047918848294,-498
1711449312760,599616047926515906,-507
1711449312768,599616047934183518,-563
1711449312776,599616047941851130,-582
1711449312783,599616047949518742,-554
1711449312791,599616047957186354,-521
1711449312799,599616047964853966,-470
1711449312806,599616047972521578,-411
1711449312814,599616047980189190,-374
1711449312822,599616047987856802,-327
1711449312829,599616047995524414,-285
1711449312837,599616048003192026,-276
1711449312845,599616048010859638,-240
1711449312852,599616048018527250,-212
1711449312860,599616048026194862,-250
1711449312868,599616048033862474,-285
1711449312875,599616048041530086,-320
1711449312883,599616048049197698,-402
1711449312891,599616048056865310,-407
1711449312897,599616048064532922,-329
1711449312905,599616048072200534,-304
1711449312913,599616048079868146,-280
1711449312921,599616048087535758,-210
1711449312929,599616048095203370,-170
1711449312937,599616048102870982,-145
1711449312944,599616048110538594,-65
1711449312952,599616048118206206,88
1711449312960,599616048125873818,372
1711449312967,599616048133541476,605
1711449312975,599616048141209088,493
1711449312983,599616048148876700,-72
1711449312990,599616048156544312,-830
1711449312998,599616048164211924,-912
1711449313006,599616048171879536,-264
1711449313013,599616048179547148,46
1711449313021,599616048187214760,-81
1711449313029,599616048194882372,-114
1711449313036,599616048202549984,-91
1711449313044,599616048210217596,-124
1711449313052,599616048217885208,-95
1711449313059,599616048225552820,-9
1711449313067,599616048233220432,18
1711449313075,599616048240888044,-39
1711449313081,599616048248555656,-88
1711449313089,599616048256223268,-65
1711449313097,599616048263890880,-7
1711449313105,599616048271558492,63
1711449313113,599616048279226104,135
1711449313121,599616048286893716,180
1711449313128,599616048294561328,198
1711449313136,599616048302228940,231
1711449313144,599616048309896552,287
1711449313151,599616048317564164,348
1711449313159,599616048325231776,397
1711449313167,599616048332899388,416
1711449313174,599616048340567000,325
1711449313182,599616048348234612,163
1711449313190,599616048355902224,107
1711449313197,599616048363569836,128
1711449313205,599616048371237448,105
1711449313213,599616048378905060,32
1711449313220,599616048386572672,-112
1711449313228,599616048394240284,-259
1711449313236,599616048401907896,-271
1711449313243,599616048409575508,-217
1711449313251,599616048417243120,-229
1711449313259,599616048424910732,-278
1711449313265,599616048432578344,-322
1711449313273,599616048440245956,-348
1711449313281,599616048447913568,-322
1711449313289,599616048455581180,-252
1711449313297,599616048463248792,-184
1711449313305,599616048470916404,-119
1711449313312,599616048478584016,-74
1711449313320,599616048486251628,-102
1711449313328,599616048493919240,-168
1711449313335,599616048501586852,-166
1711449313343,599616048509254464,-112
1711449313351,599616048516922076,-72
1711449313359,599616048524589688,-63
1711449313366,599616048532257300,-95
1711449313374,599616048539924912,-159
1711449313382,599616048547592524,-184
1711449313389,599616048555260136,-168
1711449313397,599616048562927748,-170
1711449313405,599616048570595360,-191
1711449313412,599616048578262972,-224
1711449313420,599616048585930584,-222
1711449313428,599616048593598196,-124
1711449313435,599616048601265808,-4
1711449313443,599616048608933420,93
1711449313451,599616048616601032,203
1711449313457,599616048624268644,262
1711449313465,599616048631936256,294
1711449313473,599616048639603868,397
1711449313481,599616048647271480,540
1711449313489,599616048654939092,652
1711449313497,599616048662606704,736
1711449313504,599616048670274316,741
1711449313512,599616048677941928,687
1711449313520,599616048685609540,725
1711449313527,599616048693297292,844
1711449313535,599616048700964625,931
1711449313543,599616048708631958,985
1711449313550,599616048716299291,1090
1711449313558,599616048723966624,1303
1711449313566,599616048731633957,1427
1711449313573,599616048739301290,1242
1711449313581,599616048746968623,772
1711449313589,599616048754635956,95
1711449313596,599616048762303289,-173
1711449313604,599616048769970622,350
1711449313612,599616048777637955,744
1711449313619,599616048785305288,650
1711449313627,599616048792972621,666
1711449313635,599616048800639954,762
1711449313641,599616048808307287,699
1711449313649,599616048815974620,643
1711449313657,599616048823641953,638
1711449313665,599616048831309286,587
1711449313673,599616048838976619,538
1711449313681,599616048846643952,463
1711449313688,599616048854311285,311
1711449313696,599616048861978618,248
1711449313704,599616048869645951,287
1711449313711,599616048877313284,285
1711449313719,599616048884980617,280
1711449313727,599616048892647950,318
1711449313734,599616048900315283,320
1711449313742,599616048907982616,285
1711449313750,599616048915649949,201
1711449313757,599616048923317282,42
1711449313765,599616048930984615,-72
1711449313773,599616048938651948,-74
1711449313780,599616048946319281,-91
1711449313788,599616048953986614,-135
1711449313796,599616048961653947,-156
1711449313803,599616048969321280,-245
1711449313811,599616048976988613,-388
1711449313819,599616048984655946,-437
1711449313825,599616048992323279,-423
1711449313833,599616048999990612,-423
1711449313841,599616049007657945,-397
1711449313849,599616049015325278,-393
1711449313857,599616049022992611,-458
1711449313865,599616049030659944,-486
1711449313872,599616049038327277,-421
1711449313880,599616049045994610,-334
1711449313888,599616049053661943,-245
1711449313895,599616049061329276,-161
1711449313903,599616049068996609,-121
1711449313911,599616049076663942,-109
1711449313918,599616049084331275,-86
1711449313926,599616049091998608,-70
1711449313934,599616049099665941,-67
1711449313941,599616049107333274,-53
1711449313949,599616049115000607,-88
1711449313957,599616049122667940,-187
1711449313964,599616049130335273,-222
1711449313972,599616049138002606,-180
1711449313980,599616049145669939,-156
1711449313987,599616049153337272,-163
1711449313995,599616049161004605,-252
1711449314003,599616049168671938,-446
1711449314009,599616049176339271,-552
1711449314017,599616049184006604,-496
1711449314025,599616049191673937,-435
1711449314033,599616049199341270,-437
1711449314041,599616049207008603,-463
1711449314049,599616049214675936,-545
1711449314056,599616049222343269,-669
1711449314064,599616049230010602,-741
1711449314072,599616049237677935,-772
1711449314079,599616049245345268,-797
1711449314087,599616049252987542,-804
1711449314095,599616049260655224,-835
1711449314102,599616049268322906,-896
1711449314110,599616049275990588,-917
1711449314118,599616049283658270,-877
1711449314125,599616049291325952,-837
1711449314133,599616049298993634,-793
1711449314141,599616049306661316,-804
1711449314148,599616049314328998,-900
1711449314156,599616049321996680,-774
1711449314164,599616049329664362,-409
1711449314171,599616049337332044,-285
1711449314179,599616049344999726,-631
1711449314187,599616049352667408,-1424
1711449314193,599616049360335090,-1946
1711449314201,599616049368002772,-1443
1711449314209,599616049375670454,-783
1711449314217,599616049383338136,-685
1711449314225,599616049391005818,-620
1711449314233,599616049398673500,-456
1711449314240,599616049406341182,-472
1711449314248,599616049414008864,-524
1711449314256,599616049421676546,-439
1711449314263,599616049429344228,-348
1711449314271,599616049437011910,-301
1711449314279,599616049444679592,-252
1711449314286,599616049452347274,-262
1711449314294,599616049460014956,-339
1711449314302,599616049467682638,-343
1711449314309,599616049475350320,-236
1711449314317,599616049483018002,-128
1711449314325,599616049490685684,-58
1711449314332,599616049498353366,-2
1711449314340,599616049506021048,42
1711449314348,599616049513688730,81
1711449314355,599616049521356412,142
1711449314363,599616049529024094,201
1711449314371,599616049536691776,222
1711449314377,599616049544359458,210
1711449314385,599616049552027140,177
1711449314393,599616049559694822,142
1711449314401,599616049567362504,121
1711449314409,599616049575030186,114
1711449314417,599616049582697868,95
1711449314424,599616049590365550,63
1711449314432,599616049598033232,42
1711449314440,599616049605700914,25
1711449314447,599616049613368596,18
1711449314455,599616049621036278,30
1711449314463,599616049628703960,28
1711449314470,599616049636371642,4
1711449314478,599616049644039324,16
1711449314486,599616049651707006,23
1711449314493,599616049659374688,-21
1711449314501,599616049667042370,-28
1711449314509,599616049674710052,21
1711449314516,599616049682377734,42
1711449314524,599616049690045416,49
1711449314532,599616049697713098,46
1711449314539,599616049705380780,-25
1711449314547,599616049713048462,-79
1711449314555,599616049720716144,-42
1711449314561,599616049728383826,-21
1711449314569,599616049736051508,-16
1711449314577,599616049743719190,23
1711449314585,599616049751386872,37
1711449314593,599616049759054554,30
1711449314601,599616049766722236,65
1711449314608,599616049774389918,100
1711449314616,599616049782057600,116
1711449314624,599616049789725282,168
1711449314631,599616049797392964,208
1711449314639,599616049805060646,173
1711449314647,599616049812728352,131
1711449314654,599616049820396034,133
1711449314662,599616049828063716,140
1711449314670,599616049835731398,140
1711449314677,599616049843399080,102
1711449314685,599616049851066762,-21
1711449314693,599616049858734444,-182
1711449314700,599616049866402126,-304
1711449314708,599616049874069808,-327
1711449314716,599616049881737490,-269
1711449314723,599616049889405172,-226
1711449314731,599616049897072854,-266
1711449314739,599616049904740536,-364
1711449314745,599616049912408218,-428
1711449314753,599616049920075900,-400
1711449314761,599616049927743582,-212
1711449314769,599616049935411264,60
1711449314777,599616049943078946,70
1711449314785,599616049950746628,-395
1711449314792,599616049958414310,-1204
1711449314800,599616049966081992,-1614
1711449314808,599616049973749674,-1097
1711449314815,599616049981417356,-521
1711449314823,599616049989085038,-503
1711449314831,599616049996752720,-575
1711449314838,599616050004420402,-519
1711449314846,599616050012088084,-470
1711449314854,599616050019755766,-421
1711449314861,599616050027423448,-355
1711449314869,599616050035091130,-299
1711449314877,599616050042758812,-283
1711449314884,599616050050426494,-292
1711449314892,599616050058094176,-252
1711449314900,599616050065761858,-175
1711449314907,599616050073429540,-112
1711449314915,599616050081097222,-51
1711449314923,599616050088764904,-4
1711449314929,599616050096432586,4
1711449314937,599616050104100268,35
1711449314945,599616050111767950,116
1711449314953,599616050119435632,187
1711449314961,599616050127103314,240
1711449314969,599616050134770996,280
1711449314976,599616050142438678,248
1711449314984,599616050150106360,147
1711449314992,599616050157774042,72
1711449314999,599616050165441724,44
1711449315007,599616050173109406,25
1711449315015,599616050180777088,-11
1711449315022,599616050188444770,-138
1711449315030,599616050196112452,-290
1711449315038,599616050203780134,-311
1711449315045,599616050211447816,-257
1711449315053,599616050219115498,-233
1711449315061,599616050226783180,-215
1711449315068,599616050234450862,-215
1711449315076,599616050242118544,-233
1711449315084,599616050249786226,-194
1711449315091,599616050257453908,-114
1711449315099,599616050265121590,-56
1711449315107,599616050272789272,-11
1711449315113,599616050280456954,0
1711449315121,599616050288124636,-14
1711449315129,599616050295792318,4
1711449315137,599616050303460000,53
1711449315145,599616050311127682,105
1711449315153,599616050318795364,145
1711449315160,599616050326463046,152
1711449315168,599616050334130728,131
1711449315176,599616050341798410,107
1711449315183,599616050349466092,116
1711449315191,599616050357133774,156
1711449315199,599616050364801456,149
1711449315206,599616050372469162,46
1711449315214,599616050380136844,-30
1711449315222,599616050387804526,-18
1711449315229,599616050395472208,-30
1711449315237,599616050403139890,-37
1711449315245,599616050410807572,11
1711449315252,599616050418475254,11
1711449315260,599616050426142936,-51
1711449315268,599616050433810618,-189
1711449315275,599616050441478300,-343
1711449315283,599616050449145982,-346
1711449315291,599616050456813664,-276
1711449315297,599616050464481346,-271
1711449315305,599616050472149028,-250
1711449315313,599616050479816710,-198
1711449315321,599616050487484392,-173
1711449315329,599616050495152074,-142
1711449315337,599616050502819756,-98
1711449315344,599616050510487438,-86
1711449315352,599616050518155120,-91
1711449315360,599616050525822802,-133
1711449315367,599616050533490484,-145
1711449315375,599616050541158166,56
1711449315383,599616050548825848,301
1711449315390,599616050556493530,236
1711449315398,599616050564161212,-315
1711449315406,599616050571828894,-1099
1711449315413,599616050579496576,-1197
1711449315421,599616050587164258,-573
1711449315429,599616050594831940,-276
1711449315436,599616050602499622,-374
1711449315444,599616050610167304,-318
1711449315452,599616050617834986,-215
1711449315459,599616050625502668,-238
1711449315467,599616050633170350,-280
1711449315475,599616050640838032,-311
1711449315481,599616050648505714,-355
1711449315489,599616050656173396,-339
1711449315497,599616050663841078,-262
1711449315505,599616050671508760,-222
1711449315513,599616050679176442,-215
1711449315521,599616050686844124,-191
1711449315528,599616050694511806,-170
1711449315536,599616050702179488,-140
1711449315544,599616050709847170,-74
1711449315551,599616050717514852,-9
1711449315559,599616050725182534,-42
1711449315567,599616050732850216,-126
1711449315574,599616050740517898,-126
1711449315582,599616050748185580,-72
1711449315590,599616050755853262,-53
1711449315597,599616050763520944,-46
1711449315605,599616050771188626,-56
1711449315613,599616050778856308,-112
1711449315620,599616050786523990,-163
1711449315628,599616050794191672,-168
1711449315636,599616050801859354,-154
1711449315643,599616050809527036,-140
1711449315651,599616050817194718,-126
1711449315659,599616050824862400,-142
1711449315665,599616050832530082,-182
1711449315673,599616050840197764,-168
1711449315681,599616050847865446,-105
1711449315689,599616050855533128,-58
1711449315697,599616050863200810,-23
1711449315705,599616050870868492,-42
1711449315712,599616050878536174,-168
1711449315720,599616050886203856,-278
1711449315728,599616050893871538,-271
1711449315735,599616050901539220,-205
1711449315743,599616050909206902,-142
1711449315751,599616050916874584,-145
1711449315758,599616050924542266,-226
1711449315766,599616050932240068,-252
1711449315774,599616050939907332,-189
1711449315781,599616050947574596,-131
1711449315789,599616050955241860,-88
1711449315797,599616050962909124,-72
1711449315804,599616050970576388,-156
1711449315812,599616050978243652,-240
1711449315820,599616050985910916,-196
1711449315827,599616050993578180,-112
1711449315835,599616051001245444,-67
1711449315843,599616051008912708,-32
1711449315849,599616051016579972,-14
1711449315857,599616051024247236,-14
1711449315865,599616051031914500,-2
1711449315873,599616051039581764,18
1711449315881,599616051047249028,28
1711449315889,599616051054916292,9
1711449315896,599616051062583556,-67
1711449315904,599616051070250820,-187
1711449315912,599616051077918084,-238
1711449315919,599616051085585348,-180
1711449315927,599616051093252612,-114
1711449315935,599616051100919876,-77
1711449315942,599616051108587140,-53
1711449315950,599616051116254404,-46
1711449315958,599616051123921668,-37
1711449315966,599616051131588932,-44
1711449315973,599616051139256196,-56
1711449315981,599616051146923460,18
1711449315989,599616051154590724,262
1711449315996,599616051162257988,554
1711449316004,599616051169925252,624
1711449316012,599616051177592516,257
1711449316019,599616051185259780,-552
1711449316027,599616051192927044,-1029
1711449316035,599616051200594308,-584
1711449316041,599616051208261572,-86
1711449316049,599616051215928836,-67
1711449316057,599616051223596100,-70
1711449316065,599616051231263364,-25
1711449316073,599616051238930628,-86
1711449316081,599616051246597892,-154
1711449316088,599616051254265156,-166
1711449316096,599616051261932420,-215
1711449316104,599616051269599684,-290
1711449316111,599616051277266948,-273
1711449316119,599616051284934212,-217
1711449316127,599616051292601476,-205
1711449316134,599616051300268740,-189
1711449316142,599616051307936004,-140
1711449316150,599616051315603268,-107
1711449316157,599616051323270532,-67
1711449316165,599616051330937796,-4
1711449316173,599616051338605060,39
1711449316180,599616051346272324,74
1711449316188,599616051353939588,119
1711449316196,599616051361606852,142
1711449316203,599616051369274116,135
1711449316211,599616051376941380,81
1711449316219,599616051384608644,-42
1711449316225,599616051392275908,-149
1711449316233,599616051399943172,-184
1711449316241,599616051407610436,-280
1711449316249,599616051415277700,-428
1711449316257,599616051422944964,-451
1711449316265,599616051430612228,-411
1711449316272,599616051438279492,-404
1711449316280,599616051445946756,-362
1711449316288,599616051453614020,-308
1711449316295,599616051461281284,-304
1711449316303,599616051468948548,-283
1711449316311,599616051476615812,-219
1711449316318,599616051484283076,-156
1711449316326,599616051491920266,-100
1711449316333,599616051499587948,-44
1711449316341,599616051507255630,-7
1711449316349,599616051514923312,2
1711449316357,599616051522590994,7
1711449316364,599616051530258676,42
1711449316372,599616051537926358,93
1711449316380,599616051545594040,112
1711449316387,599616051553261722,42
1711449316395,599616051560929404,-81
1711449316403,599616051568597086,-135
1711449316409,599616051576264768,-95
1711449316417,599616051583932450,-88
1711449316425,599616051591600132,-128
1711449316433,599616051599267814,-166
1711449316441,599616051606935496,-259
1711449316449,599616051614603178,-357
1711449316456,599616051622270860,-372
1711449316464,599616051629938542,-388
1711449316472,599616051637606224,-388
1711449316479,599616051645273906,-318
1711449316487,599616051652941588,-294
1711449316495,599616051660609270,-332
1711449316502,599616051668276952,-308
1711449316510,599616051675944634,-236
1711449316518,599616051683612316,-170
1711449316525,599616051691279998,-102
1711449316533,599616051698947680,-58
1711449316541,599616051706615362,-67
1711449316548,599616051714283044,-53
1711449316556,599616051721950726,37
1711449316564,599616051729618408,138
1711449316571,599616051737286090,215
1711449316579,599616051744953772,252
1711449316587,599616051752621454,257
1711449316593,599616051760289136,301
1711449316601,599616051767956818,463
1711449316609,599616051775624500,739
1711449316617,599616051783292182,961
1711449316625,599616051790959864,769
1711449316633,599616051798627546,-145
1711449316640,599616051806295228,-1022
1711449316648,599616051813962910,-753
1711449316656,599616051821630592,-88
1711449316663,599616051829298274,-28
1711449316671,599616051836965956,-72
1711449316679,599616051844633638,9
1711449316686,599616051852301320,-60
1711449316694,599616051859969002,-166
1711449316702,599616051867636684,-189
1711449316709,599616051875304366,-215
1711449316717,599616051882972048,-313
1711449316725,599616051890639730,-477
1711449316732,599616051898307412,-559
1711449316740,599616051905975094,-479
1711449316748,599616051913642776,-376
1711449316755,599616051921310458,-325
1711449316763,599616051928978140,-271
1711449316771,599616051936645822,-257
1711449316777,599616051944313504,-325
1711449316785,599616051951981186,-350
1711449316793,599616051959648868,-257
1711449316801,599616051967316550,-161
1711449316809,599616051974984232,-116
1711449316817,599616051982651914,-84
1711449316824,599616051990319596,-105
1711449316832,599616051997987278,-166
1711449316840,599616052005654960,-152
1711449316847,599616052013322642,-98
1711449316855,599616052020990324,-126
1711449316863,599616052028658006,-229
1711449316870,599616052036325688,-280
1711449316878,599616052043993370,-238
1711449316886,599616052051661078,-201
1711449316893,599616052059328760,-205
1711449316901,599616052066996442,-196
1711449316909,599616052074664124,-182
1711449316916,599616052082331806,-170
1711449316924,599616052089999488,-184
1711449316932,599616052097667170,-219
1711449316939,599616052105334852,-210
1711449316947,599616052113002534,-217
1711449316955,599616052120670216,-280
1711449316961,599616052128337898,-259
1711449316969,599616052136005580,-175
1711449316977,599616052143673262,-175
1711449316985,599616052151340944,-166
1711449316993,599616052159008626,-93
1711449317001,599616052166676308,-65
1711449317008,599616052174343990,-42
1711449317016,599616052182011672,11
1711449317024,599616052189679354,-2
1711449317031,599616052197347036,-49
1711449317039,599616052205014718,-11
1711449317047,599616052212682400,63
1711449317054,599616052220350082,81
1711449317062,599616052228017764,91
1711449317070,599616052235685446,128
1711449317077,599616052243353128,142
1711449317085,599616052251020810,140
1711449317093,599616052258688492,145
1711449317100,599616052266356174,140
1711449317108,599616052274023856,149
1711449317116,599616052281691538,175
1711449317123,599616052289359220,184
1711449317131,599616052297026902,170
1711449317139,599616052304694584,182
1711449317145,599616052312362266,245
1711449317153,599616052320029948,301
1711449317161,599616052327697630,285
1711449317169,599616052335365312,121
1711449317177,599616052343032994,-46
1711449317185,599616052350700676,-23
1711449317192,599616052358368358,16
1711449317200,599616052366036040,25
1711449317208,599616052373703722,278
1711449317215,599616052381371404,648
1711449317223,599616052389039086,620
1711449317231,599616052396706768,-56
1711449317238,599616052404374450,-985
1711449317246,599616052412042132,-1181
1711449317254,599616052419709814,-570
1711449317261,599616052427377496,-226
1711449317269,599616052435045178,-315
1711449317277,599616052442712860,-320
1711449317284,599616052450380542,-278
1711449317292,599616052458048224,-336
1711449317300,599616052465715906,-376
1711449317307,599616052473383588,-381
1711449317315,599616052481051270,-491
1711449317323,599616052488718952,-610
1711449317329,599616052496386634,-580
1711449317337,599616052504054316,-498
1711449317345,599616052511721998,-444
1711449317353,599616052519389680,-379
1711449317361,599616052527057362,-336
1711449317369,599616052534725044,-339
1711449317376,599616052542392726,-292
1711449317384,599616052550060408,-187
1711449317392,599616052557728090,-91
1711449317399,599616052565395772,-21
1711449317407,599616052573063454,0
1711449317415,599616052580731136,-18
1711449317422,599616052588398818,-16
1711449317430,599616052596066500,11
1711449317438,599616052603734182,-9
1711449317445,599616052611416936,-107
1711449317453,599616052619084409,-215
1711449317461,599616052626751882,-285
1711449317468,599616052634419355,-325
1711449317476,599616052642086828,-339
1711449317484,599616052649754301,-343
1711449317491,599616052657421774,-357
1711449317499,599616052665089247,-383
1711449317507,599616052672756720,-488
1711449317513,599616052680424193,-657
1711449317521,599616052688091666,-678
1711449317529,599616052695759139,-561
1711449317537,599616052703426612,-496
1711449317545,599616052711094085,-472
1711449317553,599616052718761558,-439
1711449317560,599616052726429031,-418
1711449317568,599616052734096504,-388
1711449317576,599616052741763977,-322
1711449317583,599616052749431450,-243
1711449317591,599616052757098923,-170
1711449317599,599616052764766396,-147
1711449317606,599616052772433869,-177
1711449317614,599616052780101342,-177
1711449317622,599616052787768815,-109
1711449317629,599616052795436288,-35
1711449317637,599616052803103761,7
1711449317645,599616052810771234,14
1711449317652,599616052818438707,7
1711449317660,599616052826106180,7
1711449317668,599616052833773653,11
1711449317675,599616052841441126,39
1711449317683,599616052849108599,74
1711449317691,599616052856776072,32
1711449317697,599616052864443545,-79
1711449317705,599616052872111018,-154
1711449317713,599616052879778491,-168
1711449317721,599616052887445964,-156
1711449317729,599616052895113437,-201
1711449317737,599616052902780910,-322
1711449317744,599616052910448383,-357
1711449317752,599616052918115856,-285
1711449317760,599616052925783329,-264
1711449317767,599616052933450802,-259
1711449317775,599616052941118275,-187
1711449317783,599616052948785748,-135
1711449317790,599616052956453221,-126
1711449317798,599616052964120694,-88
1711449317806,599616052971788167,-42
1711449317813,599616052979455640,-9
1711449317821,599616052987123113,70
1711449317829,599616052994790586,280
1711449317836,599616053002458059,554
1711449317844,599616053010125532,596
1711449317852,599616053017793005,70
1711449317859,599616053025460478,-886
1711449317867,599616053033127951,-1272
1711449317875,599616053040795424,-762
1711449317881,599616053048462897,-376
1711449317889,599616053056130370,-397
1711449317897,599616053063797843,-393
1711449317905,599616053071465316,-374
1711449317913,599616053079132789,-397
1711449317921,599616053086800262,-372
1711449317928,599616053094467735,-325
1711449317936,599616053102135208,-348
1711449317944,599616053109802681,-411
1711449317951,599616053117470154,-402
1711449317959,599616053125137627,-355
1711449317967,599616053132805100,-332
1711449317974,599616053140472573,-290
1711449317982,599616053148140046,-196
1711449317990,599616053155807519,-116
1711449317997,599616053163474992,-84
1711449318005,599616053171132480,-58
1711449318013,599616053178800092,-16
1711449318020,599616053186467704,30
1711449318028,599616053194135316,70
1711449318036,599616053201802928,105
1711449318043,599616053209470540,84
1711449318051,599616053217138152,-25
1711449318059,599616053224805764,-109
1711449318065,599616053232473376,-109
1711449318073,599616053240140988,-116
1711449318081,599616053247808600,-147
1711449318089,599616053255476212,-191
1711449318097,599616053263143824,-320
1711449318105,599616053270811436,-444
1711449318112,599616053278479048,-430
1711449318120,599616053286146660,-362
1711449318128,599616053293814272,-320
1711449318135,599616053301481884,-285
1711449318143,599616053309149496,-287
1711449318151,599616053316817108,-320
1711449318158,599616053324484720,-294
1711449318166,599616053332152332,-217
1711449318174,599616053339819944,-173
1711449318181,599616053347487556,-194
1711449318189,599616053355155168,-262
1711449318197,599616053362822780,-320
1711449318204,599616053370490392,-315
1711449318212,599616053378158004,-269
1711449318220,599616053385825616,-215
1711449318227,599616053393493228,-163
1711449318235,599616053401160840,-154
1711449318243,599616053408828452,-238
1711449318249,599616053416496064,-315
1711449318257,599616053424163676,-259
1711449318265,599616053431831288,-166
1711449318273,599616053439498900,-126
1711449318281,599616053447166512,-109
1711449318289,599616053454834124,-159
1711449318296,599616053462501736,-248
1711449318304,599616053470169348,-233
1711449318312,599616053477836960,-152
1711449318319,599616053485504572,-105
1711449318327,599616053493172184,-67
1711449318335,599616053500839796,-32
1711449318342,599616053508507408,-37
1711449318350,599616053516175020,-39
1711449318358,599616053523842632,-7
1711449318365,599616053531510244,37
1711449318373,599616053539177856,58
1711449318381,599616053546845468,-9
1711449318388,599616053554513080,-149
1711449318396,599616053562180692,-226
1711449318404,599616053569848304,-177
1711449318411,599616053577515916,-109
1711449318419,599616053585183528,-102
1711449318427,599616053592851140,-182
1711449318433,599616053600518752,-301
1711449318441,599616053608186364,-329
1711449318449,599616053615853976,-273
1711449318457,599616053623521588,-217
1711449318465,599616053631189200,-74
1711449318473,599616053638856812,224
1711449318480,599616053646524424,435
1711449318488,599616053654192036,360
1711449318496,599616053661859648,-135
1711449318503,599616053669527260,-1031
1711449318511,599616053677194872,-1359
1711449318519,599616053684862484,-760
1711449318526,599616053692530096,-332
1711449318534,599616053700197708,-364
1711449318542,599616053707865320,-301
1711449318549,599616053715532932,-194
1711449318557,599616053723200544,-219
1711449318565,599616053730873244,-233
1711449318572,599616053738540786,-180
1711449318580,599616053746208328,-154
1711449318588,599616053753875870,-152
1711449318595,599616053761543412,-112
1711449318603,599616053769210954,-65
1711449318611,599616053776878496,-53
1711449318617,599616053784546038,-28
1711449318625,599616053792213580,9
1711449318633,599616053799881122,-30
1711449318641,599616053807548664,-63
1711449318649,599616053815216206,9
1711449318657,599616053822883748,88
1711449318664,599616053830551290,131
1711449318672,599616053838218832,126
1711449318680,599616053845886374,-28
1711449318687,599616053853553916,-215
1711449318695,599616053861221458,-226
1711449318703,599616053868889000,-187
1711449318710,599616053876556542,-215
1711449318718,599616053884224084,-226
1711449318726,599616053891891626,-250
1711449318733,599616053899559168,-329
1711449318741,599616053907226710,-435
1711449318749,599616053914894252,-549
1711449318756,599616053922561794,-603
1711449318764,599616053930229336,-547
1711449318772,599616053937896878,-526
1711449318779,599616053945564420,-601
1711449318787,599616053953231962,-641
1711449318795,599616053960899504,-591
1711449318801,599616053968567046,-533
1711449318809,599616053976234588,-470
1711449318817,599616053983902130,-393
1711449318825,599616053991569672,-348
1711449318833,599616053999237214,-339
1711449318841,599616054006904756,-306
1711449318848,599616054014572298,-243
1711449318856,599616054022239840,-189
1711449318864,599616054029907382,-152
1711449318871,599616054037574924,-135
1711449318879,599616054045242466,-145
1711449318887,599616054052910008,-138
1711449318894,599616054060577550,-84
1711449318902,599616054068245092,-32
1711449318910,599616054075912634,-11
1711449318917,599616054083580176,-32
1711449318925,599616054091247718,-93
1711449318933,599616054098915260,-126
1711449318940,599616054106582802,-84
1711449318948,599616054114250344,-23
1711449318956,599616054121917886,28
1711449318963,599616054129585428,70
1711449318971,599616054137252970,37
1711449318979,599616054144920512,-49
1711449318985,599616054152588054,-53
1711449318993,599616054160255596,-7
1711449319001,599616054167923138,9
1711449319009,599616054175590680,44
1711449319017,599616054183258222,88
1711449319025,599616054190925764,56
1711449319033,599616054198593306,9
1711449319040,599616054206260848,2
1711449319048,599616054213928390,-14
1711449319056,599616054221595932,-25
1711449319063,599616054229263474,-9
1711449319071,599616054236931016,-28
1711449319079,599616054244598558,-63
1711449319086,599616054252266100,-65
1711449319094,599616054259933642,-84
1711449319102,599616054267601184,-105
1711449319109,599616054275268726,-86
1711449319117,599616054282936268,-9
1711449319125,599616054290623896,191
1711449319132,599616054298291160,409
1711449319140,599616054305958424,231
1711449319148,599616054313625688,-657
1711449319155,599616054321292952,-1396
1711449319163,599616054328960216,-1043
1711449319171,599616054336627480,-505
1711449319177,599616054344294744,-479
1711449319185,599616054351962008,-404
1711449319193,599616054359629272,-222
1711449319201,599616054367296536,-196
1711449319209,599616054374963800,-217
1711449319217,599616054382631064,-184
1711449319224,599616054390298328,-152
1711449319232,599616054397965592,-107
1711449319240,599616054405632856,-72
1711449319247,599616054413300120,-142
1711449319255,599616054420967384,-255
1711449319263,599616054428634648,-301
1711449319270,599616054436301912,-334
1711449319278,599616054443969176,-320
1711449319286,599616054451636440,-219
1711449319293,599616054459303704,-131
1711449319301,599616054466970968,-74
1711449319309,599616054474638232,-53
1711449319316,599616054482305496,-95
1711449319324,599616054489972760,-116
1711449319332,599616054497640024,-49
1711449319339,599616054505307288,-9
1711449319347,599616054512974552,-30
1711449319355,599616054520641816,-39
1711449319361,599616054528309080,-53
1711449319369,599616054535976344,-112
1711449319377,599616054543643608,-154
1711449319385,599616054551310872,-163
1711449319393,599616054558978136,-187
1711449319401,599616054566645400,-208
1711449319408,599616054574312664,-196
1711449319416,599616054581979928,-198
1711449319424,599616054589647192,-217
1711449319431,599616054597314456,-198
1711449319439,599616054604981720,-177
1711449319447,599616054612648984,-180
1711449319454,599616054620316248,-180
1711449319462,599616054627983512,-219
1711449319470,599616054635650776,-266
1711449319477,599616054643318040,-224
1711449319485,599616054650985304,-166
1711449319493,599616054658652568,-149
1711449319500,599616054666319832,-133
1711449319508,599616054673987096,-156
1711449319516,599616054681654360,-212
1711449319523,599616054689321624,-203
1711449319531,599616054696988888,-168
1711449319539,599616054704656152,-142
1711449319545,599616054712323416,-86
1711449319553,599616054719990680,-42
1711449319561,599616054727657944,-37
1711449319569,599616054735325208,-18
1711449319577,599616054742992472,9
1711449319585,599616054750659736,32
1711449319592,599616054758327000,70
1711449319600,599616054765994264,102
1711449319608,599616054773661528,124
1711449319615,599616054781328792,140
1711449319623,599616054788996056,121
1711449319631,599616054796663320,95
1711449319638,599616054804330584,124
1711449319646,599616054811997848,156
1711449319654,599616054819665112,119
1711449319661,599616054827332376,7
1711449319669,599616054834999640,-100
1711449319677,599616054842666904,-105
1711449319684,599616054850304094,-46
1711449319692,599616054857971776,-18
1711449319700,599616054865639458,-51
1711449319707,599616054873307140,-159
1711449319715,599616054880974822,-252
1711449319723,599616054888642504,-271
1711449319729,599616054896310186,-294
1711449319737,599616054903977868,-311
1711449319745,599616054911645550,-266
1711449319753,599616054919313232,-124
1711449319761,599616054926980914,100
1711449319769,599616054934648596,217
1711449319776,599616054942316278,-126
1711449319784,599616054949983960,-1034
1711449319792,599616054957651642,-1473
1711449319799,599616054965319324,-926
1711449319807,599616054972987006,-549
1711449319815,599616054980654688,-610
1711449319822,599616054988322370,-481
1711449319830,599616054995990052,-308
1711449319838,599616055003657734,-294
1711449319845,599616055011325416,-315
1711449319853,599616055018993098,-376
1711449319861,599616055026660780,-423
1711449319868,599616055034328462,-357
1711449319876,599616055041996144,-271
1711449319884,599616055049663826,-215
1711449319891,599616055057331508,-149
1711449319899,599616055064999190,-107
1711449319907,599616055072666872,-116
1711449319913,599616055080334554,-119
1711449319921,599616055088002236,-60
1711449319929,599616055095669918,30
1711449319937,599616055103337600,98
1711449319945,599616055111005282,119
1711449319953,599616055118672964,128
1711449319960,599616055126340646,173
1711449319968,599616055134008328,222
1711449319976,599616055141676010,245
1711449319983,599616055149343692,238
1711449319991,599616055157011374,154
1711449319999,599616055164679056,-7
1711449320006,599616055172346738,-126
1711449320014,599616055180014420,-135
1711449320022,599616055187682102,-114
1711449320029,599616055195349784,-124
1711449320037,599616055203017466,-142
1711449320045,599616055210685148,-166
1711449320052,599616055218352830,-170
1711449320060,599616055226020512,-126
1711449320068,599616055233688194,-63
1711449320075,599616055241355876,-30
1711449320083,599616055249023558,-25
1711449320091,599616055256691240,-23
1711449320097,599616055264358922,-14
1711449320105,599616055272026604,16
1711449320113,599616055279694286,65
1711449320121,599616055287361968,100
1711449320129,599616055295029650,98
1711449320137,599616055302697332,95
1711449320144,599616055310365014,93
1711449320152,599616055318032696,46
1711449320160,599616055325700378,-21
1711449320167,599616055333368060,-37
1711449320175,599616055341035742,-14
1711449320183,599616055348703424,-11
1711449320190,599616055356371106,-58
1711449320198,599616055364038788,-116
1711449320206,599616055371706470,-105
1711449320213,599616055379374152,-53
1711449320221,599616055387041834,-44
1711449320229,599616055394709516,-32
1711449320236,599616055402377198,-28
1711449320244,599616055410054986,-86
1711449320252,599616055417722528,-154
1711449320259,599616055425390070,-210
1711449320267,599616055433057612,-294
1711449320275,599616055440725154,-348
1711449320281,599616055448392696,-395
1711449320289,599616055456060238,-542
1711449320297,599616055463727780,-673
1711449320305,599616055471395322,-641
1711449320313,599616055479062864,-596
1711449320321,599616055486730406,-622
1711449320328,599616055494397948,-638
1711449320336,599616055502065490,-715
1711449320344,599616055509733032,-858
1711449320351,599616055517400574,-882
1711449320359,599616055525068116,-816
1711449320367,599616055532735658,-781
1711449320374,599616055540403200,-727
1711449320382,599616055548070742,-631
1711449320390,599616055555738284,-456
1711449320397,599616055563405826,-187
1711449320405,599616055571073368,-32
1711449320413,599616055578740910,-114
1711449320420,599616055586408452,-624
1711449320428,599616055594075994,-1445
1711449320436,599616055601743536,-1497
1711449320443,599616055609411078,-760
1711449320451,599616055617078620,-423
1711449320459,599616055624746162,-432
1711449320465,599616055632413704,-262
1711449320473,599616055640081246,-133
1711449320481,599616055647748788,-147
1711449320489,599616055655416330,-126
1711449320497,599616055663083872,-72
1711449320505,599616055670751414,-44
1711449320512,599616055678418956,-14
1711449320520,599616055686086498,32
1711449320528,599616055693754040,51
1711449320535,599616055701421582,-7
1711449320543,599616055709089124,-51
1711449320551,599616055716756666,23
1711449320558,599616055724424208,138
1711449320566,599616055732091750,208
1711449320574,599616055739759292,276
1711449320581,599616055747426834,320
1711449320589,599616055755094376,315
1711449320597,599616055762761918,336
1711449320604,599616055770429460,400
1711449320612,599616055778097002,435
1711449320620,599616055785764544,442
1711449320627,599616055793432086,414
1711449320635,599616055801099628,318
1711449320643,599616055808767170,194
1711449320649,599616055816434712,95
1711449320657,599616055824102254,42
1711449320665,599616055831769796,30
1711449320673,599616055839437338,2
1711449320681,599616055847104880,-58
1711449320689,599616055854772422,-91
1711449320696,599616055862439964,-74
1711449320704,599616055870107506,-39
1711449320712,599616055877775048,0
1711449320719,599616055885442590,18
1711449320727,599616055893110132,-46
1711449320735,599616055900777674,-135
1711449320742,599616055908445216,-114
1711449320750,599616055916112758,-70
1711449320758,599616055923780300,-145
1711449320765,599616055931447842,-231
1711449320773,599616055939115384,-226
1711449320781,599616055946782926,-212
1711449320788,599616055954450468,-196
1711449320796,599616055962118010,-124
1711449320804,599616055969780584,-53
1711449320811,599616055977448196,-16
1711449320819,599616055985115808,-9
1711449320827,599616055992783420,-11
1711449320833,599616056000451032,11
1711449320841,599616056008118644,67
1711449320849,599616056015786256,126
1711449320857,599616056023453868,154
1711449320865,599616056031121480,121
1711449320873,599616056038789092,-28
1711449320880,599616056046456704,-224
1711449320888,599616056054124316,-292
1711449320896,599616056061791928,-294
1711449320903,599616056069459540,-339
1711449320911,599616056077127152,-357
1711449320919,599616056084794764,-364
1711449320926,599616056092462376,-407
1711449320934,599616056100129988,-421
1711449320942,599616056107797600,-416
1711449320949,599616056115465212,-444
1711449320957,599616056123132824,-451
1711449320965,599616056130800436,-418
1711449320972,599616056138468048,-404
1711449320980,599616056146135660,-397
1711449320988,599616056153803272,-350
1711449320995,599616056161470884,-273
1711449321003,599616056169138496,-93
1711449321011,599616056176806108,217
1711449321017,599616056184473720,409
1711449321025,599616056192141332,264
1711449321033,599616056199808944,-374
1711449321041,599616056207476556,-1116
1711449321049,599616056215144168,-980
1711449321057,599616056222811780,-318
1711449321064,599616056230479392,-154
1711449321072,599616056238147004,-264
1711449321080,599616056245814616,-180
1711449321087,599616056253482228,-81
1711449321095,599616056261149840,-79
1711449321103,599616056268817452,-39
1711449321110,599616056276485064,23
1711449321118,599616056284152676,30
1711449321126,599616056291820288,39
1711449321133,599616056299487900,70
1711449321141,599616056307155512,37
1711449321149,599616056314823124,11
1711449321156,599616056322490736,84
1711449321164,599616056330158348,149
1711449321172,599616056337825960,170
1711449321179,599616056345493572,222
1711449321187,599616056353161184,280
1711449321195,599616056360828796,325
1711449321201,599616056368496408,386
1711449321209,599616056376164020,435
1711449321217,599616056383831632,442
1711449321225,599616056391499244,423
1711449321233,599616056399166856,376
1711449321241,599616056406834468,329
1711449321248,599616056414502080,306
1711449321256,599616056422169692,194
1711449321264,599616056429837304,-42
1711449321271,599616056437504916,-217
1711449321279,599616056445172528,-231
1711449321287,599616056452840140,-212
1711449321294,599616056460507752,-210
1711449321302,599616056468175364,-166
1711449321310,599616056475842976,-128
1711449321317,599616056483510588,-145
1711449321325,599616056491178200,-154
1711449321333,599616056498845812,-121
1711449321340,599616056506513424,-65
1711449321348,599616056514181036,4
1711449321356,599616056521848648,44
1711449321363,599616056529546404,32
1711449321371,599616056537213598,28
1711449321379,599616056544880792,37
1711449321385,599616056552547986,-2
1711449321393,599616056560215180,-35
1711449321401,599616056567882374,-21
1711449321409,599616056575549568,-109
1711449321417,599616056583216762,-257
1711449321425,599616056590883956,-245
1711449321432,599616056598551150,-156
1711449321440,599616056606218344,-124
1711449321448,599616056613885538,-79
1711449321455,599616056621552732,-67
1711449321463,599616056629219926,-156
1711449321471,599616056636887120,-180
1711449321478,599616056644554314,-93
1711449321486,599616056652221508,-60
1711449321494,599616056659888702,-102
1711449321501,599616056667555896,-161
1711449321509,599616056675223090,-210
1711449321517,599616056682890284,-219
1711449321524,599616056690557478,-184
1711449321532,599616056698224672,-140
1711449321540,599616056705891866,-119
1711449321547,599616056713559060,-156
1711449321555,599616056721226254,-245
1711449321563,599616056728893448,-306
1711449321569,599616056736560642,-318
1711449321577,599616056744227836,-322
1711449321585,599616056751895030,-327
1711449321593,599616056759562224,-308
1711449321601,599616056767229418,-262
1711449321609,599616056774896612,-105
1711449321616,599616056782563806,154
1711449321624,599616056790231000,245
1711449321632,599616056797898194,-229
1711449321639,599616056805565388,-1167
1711449321647,599616056813232582,-1473
1711449321655,599616056820899776,-856
1711449321662,599616056828566970,-451
1711449321670,599616056836234164,-451
1711449321678,599616056843901358,-304
1711449321685,599616056851568552,-168
1711449321693,599616056859235746,-201
1711449321701,599616056866902940,-196
1711449321708,599616056874570134,-131
1711449321716,599616056882237328,-95
1711449321724,599616056889904522,-35
1711449321731,599616056897571716,39
1711449321739,599616056905238910,56
1711449321747,599616056912906104,67
1711449321753,599616056920573298,100
1711449321761,599616056928240492,53
1711449321769,599616056935907686,4
1711449321777,599616056943574880,65
1711449321785,599616056951242074,142
1711449321793,599616056958909268,156
1711449321800,599616056966576462,128
1711449321808,599616056974243656,107
1711449321816,599616056981910850,152
1711449321823,599616056989578044,184
1711449321831,599616056997245238,163
1711449321839,599616057004912432,163
1711449321846,599616057012579626,163
1711449321854,599616057020246820,102
1711449321862,599616057027914014,44
1711449321869,599616057035581208,4
1711449321877,599616057043248402,-93
1711449321885,599616057050915596,-194
1711449321892,599616057058582790,-191
1711449321900,599616057066249984,-175
1711449321908,599616057073917178,-182
1711449321915,599616057081584372,-138
1711449321923,599616057089221514,-88
1711449321931,599616057096889126,-79
1711449321937,599616057104556738,-79
1711449321945,599616057112224350,-133
1711449321953,599616057119891962,-208
1711449321961,599616057127559574,-194
1711449321969,599616057135227186,-154
1711449321977,599616057142894798,-140
1711449321984,599616057150562410,-98
1711449321992,599616057158230022,-93
1711449322000,599616057165897634,-163
1711449322007,599616057173565246,-182
1711449322015,599616057181232858,-142
1711449322023,599616057188900470,-116
1711449322030,599616057196568082,-70
1711449322038,599616057204235694,-16
1711449322046,599616057211903306,-7
1711449322053,599616057219570918,-2
1711449322061,599616057227238530,25
1711449322069,599616057234906142,70
1711449322076,599616057242573754,131
1711449322084,599616057250241366,161
1711449322092,599616057257908978,133
1711449322099,599616057265576590,93
1711449322107,599616057273244202,98
1711449322115,599616057280911814,102
1711449322121,599616057288579426,32
1711449322129,599616057296247038,-49
1711449322137,599616057303914650,-109
1711449322145,599616057311582262,-215
1711449322153,599616057319249874,-266
1711449322161,599616057326917486,-205
1711449322168,599616057334585098,-154
1711449322176,599616057342252710,-133
1711449322184,599616057349920322,-131
1711449322191,599616057357587934,-196
1711449322199,599616057365255546,-231
1711449322207,599616057372923158,-65
1711449322215,599616057380590770,231
1711449322222,599616057388258382,395
1711449322230,599616057395925994,191
1711449322238,599616057403593606,-608
1711449322245,599616057411261218,-1340
1711449322253,599616057418928830,-1006
1711449322261,599616057426596442,-393
1711449322268,599616057434264054,-416
1711449322276,599616057441931666,-474
1711449322284,599616057449599278,-313
1711449322291,599616057457266890,-327
1711449322299,599616057464934502,-395
1711449322307,599616057472602114,-304
1711449322313,599616057480269726,-203
1711449322321,599616057487937338,-168
1711449322329,599616057495604950,-152
1711449322337,599616057503272562,-198
1711449322345,599616057510940174,-248
1711449322353,599616057518607786,-182
1711449322360,599616057526275398,-102
1711449322368,599616057533943010,-107
1711449322376,599616057541610622,-109
1711449322383,599616057549278234,-84
1711449322391,599616057556945846,-63
1711449322399,599616057564613458,-9
1711449322406,599616057572281070,91
1711449322414,599616057579948682,166
1711449322422,599616057587616294,187
1711449322429,599616057595283906,168
1711449322437,599616057602951518,124
1711449322445,599616057610619130,95
1711449322452,599616057618286742,105
1711449322460,599616057625954354,116
1711449322468,599616057633621966,84
1711449322475,599616057641289578,-16
1711449322483,599616057648957238,-156
1711449322491,599616057656624850,-243
1711449322497,599616057664292462,-226
1711449322505,599616057671960074,-177
1711449322513,599616057679627686,-161
1711449322521,599616057687295298,-173
1711449322529,599616057694962910,-222
1711449322537,599616057702630522,-287
1711449322544,599616057710298134,-271
1711449322552,599616057717965746,-173
1711449322560,599616057725633358,-119
1711449322567,599616057733300970,-119
1711449322575,599616057740968582,-93
1711449322583,599616057748636194,-58
1711449322590,599616057756303806,-28
1711449322598,599616057763971418,21
1711449322606,599616057771639030,56
1711449322613,599616057779306642,16
1711449322621,599616057786974254,-53
1711449322629,599616057794641866,-63
1711449322636,599616057802309478,-28
1711449322644,599616057809977090,-2
1711449322652,599616057817644702,14
1711449322659,599616057825312314,35
1711449322667,599616057832979926,60
1711449322675,599616057840647538,23
1711449322681,599616057848315150,-77
1711449322689,599616057855982762,-112
1711449322697,599616057863650374,-74
1711449322705,599616057871317986,-63
1711449322713,599616057878985598,-58
1711449322721,599616057886653210,-32
1711449322728,599616057894320822,-16
1711449322736,599616057901988434,0
1711449322744,599616057909656046,37
1711449322751,599616057917323658,58
1711449322759,599616057924991270,44
1711449322767,599616057932658882,-28
1711449322774,599616057940326494,-135
1711449322782,599616057947994106,-175
1711449322790,599616057955661718,-135
1711449322797,599616057963329330,42
1711449322805,599616057970996942,376
1711449322813,599616057978664554,591
1711449322820,599616057986332166,353
1711449322828,599616057993999778,-514
1711449322836,599616058001667390,-1249
1711449322843,599616058009335002,-931
1711449322851,599616058017002614,-355
1711449322859,599616058024670226,-386
1711449322865,599616058032337838,-528
1711449322873,599616058040005450,-519
1711449322881,599616058047673062,-556
1711449322889,599616058055340674,-568
1711449322897,599616058063008286,-498
1711449322905,599616058070675898,-435
1711449322912,599616058078343510,-388
1711449322920,599616058086011122,-348
1711449322928,599616058093678734,-336
1711449322935,599616058101346346,-318
1711449322943,599616058109013958,-259
1711449322951,599616058116681570,-177
1711449322958,599616058124349182,-100
1711449322966,599616058132016794,-42
1711449322974,599616058139684406,0
1711449322981,599616058147352018,28
1711449322989,599616058155019630,67
1711449322997,599616058162687242,133
1711449323004,599616058170354854,182
1711449323012,599616058178022466,159
1711449323020,599616058185690078,39
1711449323027,599616058193357690,-84
1711449323035,599616058201025302,-100
1711449323043,599616058208718016,-79
1711449323049,599616058216385280,-100
1711449323057,599616058224052544,-114
1711449323065,599616058231719808,-138
1711449323073,599616058239387072,-203
1711449323081,599616058247054336,-217
1711449323089,599616058254721600,-168
1711449323096,599616058262388864,-124
1711449323104,599616058270056128,-116
1711449323112,599616058277723392,-196
1711449323119,599616058285390656,-327
1711449323127,599616058293057920,-348
1711449323135,599616058300725184,-262
1711449323142,599616058308392448,-191
1711449323150,599616058316059712,-135
1711449323158,599616058323726976,-86
1711449323165,599616058331394240,-86
1711449323173,599616058339061504,-93
1711449323181,599616058346728768,-56
1711449323188,599616058354396032,-18
1711449323196,599616058362063296,9
1711449323204,599616058369730560,42
1711449323211,599616058377397824,2
1711449323219,599616058385065088,-95
1711449323227,599616058392732352,-98
1711449323233,599616058400399616,-11
1711449323241,599616058408066880,51
1711449323249,599616058415734144,93
1711449323257,599616058423401408,93
1711449323265,599616058431068672,51
1711449323273,599616058438735936,-23
1711449323280,599616058446403200,-119
1711449323288,599616058454070464,-159
1711449323296,599616058461737728,-119
1711449323303,599616058469404992,-95
1711449323311,599616058477072256,-114
1711449323319,599616058484739520,-98
1711449323326,599616058492406784,-30
1711449323334,599616058500074048,35
1711449323342,599616058507741312,65
1711449323349,599616058515408576,49
1711449323357,599616058523075840,-25
1711449323365,599616058530743104,-79
1711449323372,599616058538410368,25
1711449323380,599616058546077632,334
1711449323388,599616058553744896,605
1711449323395,599616058561412160,582
1711449323403,599616058569079424,109
1711449323411,599616058576746688,-769
1711449323417,599616058584413952,-1144
1711449323425,599616058592081216,-561
1711449323433,599616058599748480,-109
1711449323441,599616058607415744,-152
1711449323449,599616058615083008,-112
1711449323457,599616058622750272,-56
1711449323464,599616058630417536,-173
1711449323472,599616058638084800,-231
1711449323480,599616058645752064,-208
1711449323487,599616058653419328,-250
1711449323495,599616058661086592,-297
1711449323503,599616058668753856,-292
1711449323510,599616058676421120,-280
1711449323518,599616058684088384,-252
1711449323526,599616058691755648,-205
1711449323533,599616058699422912,-189
1711449323541,599616058707090176,-173
1711449323549,599616058714757440,-154
1711449323556,599616058722424704,-187
1711449323564,599616058730091968,-208
1711449323572,599616058737759232,-145
1711449323579,599616058745426496,-93
1711449323587,599616058753093760,-77
1711449323595,599616058760761024,-56
1711449323601,599616058768428312,-84
1711449323609,599616058776095576,-138
1711449323617,599616058783762840,-161
1711449323625,599616058791430104,-189
1711449323633,599616058799097368,-222
1711449323641,599616058806764632,-219
1711449323648,599616058814431896,-264
1711449323656,599616058822099160,-383
1711449323664,599616058829766424,-446
1711449323671,599616058837433688,-425
1711449323679,599616058845100952,-397
1711449323687,599616058852768216,-343
1711449323694,599616058860435480,-276
1711449323702,599616058868102744,-257
1711449323710,599616058875770008,-252
1711449323717,599616058883437272,-226
1711449323725,599616058891104536,-198
1711449323733,599616058898771800,-156
1711449323740,599616058906439064,-107
1711449323748,599616058914106328,-121
1711449323756,599616058921773592,-196
1711449323763,599616058929440856,-222
1711449323771,599616058937108120,-170
1711449323779,599616058944775384,-138
1711449323785,599616058952442648,-189
1711449323793,599616058960109912,-266
1711449323801,599616058967777176,-276
1711449323809,599616058975444440,-238
1711449323817,599616058983111704,-170
1711449323825,599616058990778968,-98
1711449323832,599616058998446232,-56
1711449323840,599616059006113496,-32
1711449323848,599616059013780760,-56
1711449323855,599616059021448024,-131
1711449323863,599616059029115288,-145
1711449323871,599616059036782552,-93
1711449323878,599616059044449816,-51
1711449323886,599616059052117080,-21
1711449323894,599616059059784344,-7
1711449323901,599616059067451608,-46
1711449323909,599616059075118872,-63
1711449323917,599616059082786136,4
1711449323924,599616059090453400,67
1711449323932,599616059098120664,100
1711449323940,599616059105787928,105
1711449323947,599616059113455192,70
1711449323955,599616059121122456,196
1711449323963,599616059128789720,503
1711449323969,599616059136456984,610
1711449323977,599616059144124248,311
1711449323985,599616059151791512,-407
1711449323993,599616059159458776,-933
1711449324001,599616059167126040,-519
1711449324009,599616059174793304,100
1711449324016,599616059182460568,191
1711449324024,599616059190127832,212
1711449324032,599616059197795096,346
1711449324039,599616059205462360,348
1711449324047,599616059213129624,292
1711449324055,599616059220796888,313
1711449324062,599616059228464152,315
1711449324070,599616059236131416,269
1711449324078,599616059243798680,257
1711449324085,599616059251465944,238
1711449324093,599616059259133208,180
1711449324101,599616059266800472,135
1711449324108,599616059274467736,135
1711449324116,599616059282135000,131
1711449324124,599616059289802264,119
1711449324131,599616059297469528,81
1711449324139,599616059305136792,-11
1711449324147,599616059312804056,-74
1711449324153,599616059320471320,-46
1711449324161,599616059328123556,-7
1711449324169,599616059335791029,-18
1711449324177,599616059343458502,-42
1711449324185,599616059351125975,-74
1711449324193,599616059358793448,-128
1711449324200,599616059366460921,-168
1711449324208,599616059374128394,-177
1711449324216,599616059381795867,-198
1711449324223,599616059389463340,-243
1711449324231,599616059397130813,-301
1711449324239,599616059404798286,-397
1711449324246,599616059412465759,-477
1711449324254,599616059420133232,-463
1711449324262,599616059427800705,-432
1711449324269,599616059435468178,-430
1711449324277,599616059443135651,-388
1711449324285,599616059450803124,-353
1711449324292,599616059458470597,-407
1711449324300,599616059466138070,-444
1711449324308,599616059473805543,-381
1711449324315,599616059481473016,-327
1711449324323,599616059489140489,-299
1711449324331,599616059496807962,-240
1711449324337,599616059504475435,-226
1711449324345,599616059512142908,-259
1711449324353,599616059519810381,-231
1711449324361,599616059527477854,-175
1711449324369,599616059535145327,-140
1711449324377,599616059542812800,-119
1711449324384,599616059550480273,-161
1711449324392,599616059558147746,-198
1711449324400,599616059565815219,-152
1711449324407,599616059573482692,-114
1711449324415,599616059581150165,-112
1711449324423,599616059588817638,-84
1711449324430,599616059596485111,-77
1711449324438,599616059604152584,-107
1711449324446,599616059611820057,-105
1711449324453,599616059619487530,-74
1711449324461,599616059627155003,-42
1711449324469,599616059634822476,7
1711449324476,599616059642489949,14
1711449324484,599616059650157422,-65
1711449324492,599616059657824895,-126
1711449324499,599616059665492368,-98
1711449324507,599616059673159841,-49
1711449324515,599616059680827314,-4
1711449324521,599616059688494787,86
1711449324529,599616059696162260,278
1711449324537,599616059703829733,526
1711449324545,599616059711497206,622
1711449324553,599616059719164679,414
1711449324561,599616059726832152,-215
1711449324568,599616059734499625,-762
1711449324576,599616059742167098,-423
1711449324584,599616059749834571,163
1711449324591,599616059757502044,189
1711449324599,599616059765169517,138
1711449324607,599616059772836990,278
1711449324614,599616059780504463,304
