value,timestamp
-0.0,1711604698000000
-0.0,1711604698015625
-0.0,1711604698031250
-0.0,1711604698046875
-0.0,1711604698062500
-0.0,1711604698078125
-0.0,1711604698093750
-0.0,1711604698109375
-0.0,1711604698125000
-0.0,1711604698140625
0.0,1711604698156250
0.01,1711604698171875
0.01,1711604698187500
-0.0,1711604698203125
-0.03,1711604698218750
-0.05,1711604698234375
-0.05,1711604698250000
0.0,1711604698265625
0.13,1711604698281250
0.36,1711604698296875
0.66,1711604698312500
1.01,1711604698328125
1.37,1711604698343750
1.72,1711604698359375
2.06,1711604698375000
2.4,1711604698390625
2.79,1711604698406250
3.24,1711604698421875
3.8,1711604698437500
4.42,1711604698453125
5.06,1711604698468750
5.66,1711604698484375
6.2,1711604698500000
6.68,1711604698515625
7.15,1711604698531250
7.68,1711604698546875
8.31,1711604698562500
9.14,1711604698578125
10.09,1711604698593750
11.04,1711604698609375
11.88,1711604698625000
12.56,1711604698640625
13.14,1711604698656250
13.76,1711604698671875
14.65,1711604698687500
15.96,1711604698703125
17.91,1711604698718750
20.32,1711604698734375
22.9,1711604698750000
25.38,1711604698765625
27.58,1711604698781250
29.57,1711604698796875
31.68,1711604698812500
34.32,1711604698828125
37.81,1711604698843750
42.54,1711604698859375
48.15,1711604698875000
54.1,1711604698890625
59.83,1711604698906250
64.97,1711604698921875
69.58,1711604698937500
74.14,1711604698953125
79.34,1711604698968750
85.71,1711604698984375
93.76,1711604699000000
103.0,1711604699015625
112.62,1711604699031250
121.73,1711604699046875
129.77,1711604699062500
136.75,1711604699078125
143.3,1711604699093750
150.75,1711604699109375
157.77,1711604699125000
166.64,1711604699140625
177.95,1711604699156250
191.79,1711604699171875
206.97,1711604699187500
220.57,1711604699203125
228.25,1711604699218750
225.36,1711604699234375
208.53,1711604699250000
176.87,1711604699265625
132.76,1711604699281250
80.05,1711604699296875
23.07,1711604699312500
-34.94,1711604699328125
-92.44,1711604699343750
-149.16,1711604699359375
-205.23,1711604699375000
-260.37,1711604699390625
-313.74,1711604699406250
-363.87,1711604699421875
-409.83,1711604699437500
-450.91,1711604699453125
-486.5,1711604699468750
-515.74,1711604699484375
-537.23,1711604699500000
-549.22,1711604699515625
-549.96,1711604699531250
-538.37,1711604699546875
-514.21,1711604699562500
-478.67,1711604699578125
-433.88,1711604699593750
-382.45,1711604699609375
-327.02,1711604699625000
-269.84,1711604699640625
-212.63,1711604699656250
-156.66,1711604699671875
-102.95,1711604699687500
-52.37,1711604699703125
-5.9,1711604699718750
35.58,1711604699734375
71.43,1711604699750000
101.35,1711604699765625
125.5,1711604699781250
144.38,1711604699796875
158.69,1711604699812500
169.15,1711604699828125
176.37,1711604699843750
180.75,1711604699859375
182.57,1711604699875000
182.07,1711604699890625
179.51,1711604699906250
175.23,1711604699921875
169.65,1711604699937500
163.18,1711604699953125
156.15,1711604699968750
148.81,1711604699984375
141.3,1711604700000000
133.69,1711604700015625
126.02,1711604700031250
118.33,1711604700046875
110.69,1711604700062500
103.16,1711604700078125
95.8,1711604700093750
88.68,1711604700109375
81.83,1711604700125000
75.25,1711604700140625
68.95,1711604700156250
62.95,1711604700171875
57.25,1711604700187500
51.86,1711604700203125
46.78,1711604700218750
42.03,1711604700234375
37.59,1711604700250000
33.45,1711604700265625
29.61,1711604700281250
26.07,1711604700296875
22.81,1711604700312500
19.83,1711604700328125
17.11,1711604700343750
14.67,1711604700359375
12.48,1711604700375000
10.54,1711604700390625
8.83,1711604700406250
7.35,1711604700421875
6.07,1711604700437500
4.97,1711604700453125
4.05,1711604700468750
3.27,1711604700484375
2.62,1711604700500000
2.09,1711604700515625
1.65,1711604700531250
1.3,1711604700546875
1.01,1711604700562500
0.79,1711604700578125
0.61,1711604700593750
0.47,1711604700609375
0.37,1711604700625000
0.28,1711604700640625
0.22,1711604700656250
0.18,1711604700671875
0.14,1711604700687500
0.12,1711604700703125
0.1,1711604700718750
0.1,1711604700734375
0.1,1711604700750000
0.1,1711604700765625
0.12,1711604700781250
0.14,1711604700796875
0.16,1711604700812500
0.19,1711604700828125
0.22,1711604700843750
0.26,1711604700859375
0.3,1711604700875000
0.34,1711604700890625
0.38,1711604700906250
0.42,1711604700921875
0.46,1711604700937500
0.51,1711604700953125
0.55,1711604700968750
0.6,1711604700984375
0.66,1711604701000000
0.71,1711604701015625
0.77,1711604701031250
0.84,1711604701046875
0.92,1711604701062500
1.0,1711604701078125
1.09,1711604701093750
1.19,1711604701109375
1.3,1711604701125000
1.42,1711604701140625
1.56,1711604701156250
1.72,1711604701171875
1.9,1711604701187500
2.09,1711604701203125
2.31,1711604701218750
2.55,1711604701234375
2.81,1711604701250000
3.1,1711604701265625
3.42,1711604701281250
3.77,1711604701296875
4.15,1711604701312500
4.57,1711604701328125
5.02,1711604701343750
5.5,1711604701359375
6.02,1711604701375000
6.58,1711604701390625
7.17,1711604701406250
7.81,1711604701421875
8.49,1711604701437500
9.21,1711604701453125
9.97,1711604701468750
10.78,1711604701484375
11.63,1711604701500000
12.51,1711604701515625
13.46,1711604701531250
14.46,1711604701546875
15.52,1711604701562500
16.64,1711604701578125
17.81,1711604701593750
19.01,1711604701609375
20.19,1711604701625000
21.31,1711604701640625
22.26,1711604701656250
22.96,1711604701671875
23.28,1711604701687500
23.12,1711604701703125
22.36,1711604701718750
20.95,1711604701734375
18.85,1711604701750000
16.09,1711604701765625
12.75,1711604701781250
8.92,1711604701796875
4.8,1711604701812500
0.59,1711604701828125
-3.51,1711604701843750
-7.3,1711604701859375
-10.62,1711604701875000
-13.33,1711604701890625
-15.38,1711604701906250
-16.73,1711604701921875
-17.42,1711604701937500
-17.51,1711604701953125
-17.1,1711604701968750
-16.32,1711604701984375
-15.24,1711604702000000
-13.99,1711604702015625
-12.6,1711604702031250
-11.13,1711604702046875
-9.59,1711604702062500
-7.98,1711604702078125
-6.27,1711604702093750
-4.5,1711604702109375
-2.7,1711604702125000
-0.87,1711604702140625
0.97,1711604702156250
2.82,1711604702171875
4.68,1711604702187500
6.56,1711604702203125
8.5,1711604702218750
10.58,1711604702234375
12.75,1711604702250000
14.98,1711604702265625
17.29,1711604702281250
19.71,1711604702296875
22.27,1711604702312500
25.02,1711604702328125
28.02,1711604702343750
31.35,1711604702359375
35.12,1711604702375000
39.13,1711604702390625
43.28,1711604702406250
47.53,1711604702421875
51.86,1711604702437500
56.3,1711604702453125
60.92,1711604702468750
65.79,1711604702484375
71.06,1711604702500000
76.95,1711604702515625
83.13,1711604702531250
89.46,1711604702546875
95.85,1711604702562500
102.25,1711604702578125
108.66,1711604702593750
115.14,1711604702609375
121.79,1711604702625000
128.73,1711604702640625
136.17,1711604702656250
143.63,1711604702671875
150.77,1711604702687500
157.27,1711604702703125
162.83,1711604702718750
167.06,1711604702734375
169.45,1711604702750000
169.16,1711604702765625
164.68,1711604702781250
158.64,1711604702796875
151.48,1711604702812500
143.34,1711604702828125
134.23,1711604702843750
124.18,1711604702859375
113.34,1711604702875000
102.01,1711604702890625
90.53,1711604702906250
79.3,1711604702921875
68.65,1711604702937500
58.1,1711604702953125
47.26,1711604702968750
35.85,1711604702984375
23.74,1711604703000000
11.11,1711604703015625
-1.65,1711604703031250
-14.03,1711604703046875
-25.57,1711604703062500
-36.02,1711604703078125
-45.95,1711604703093750
-56.02,1711604703109375
-66.85,1711604703125000
-78.8,1711604703140625
-91.89,1711604703156250
-105.79,1711604703171875
-119.99,1711604703187500
-133.95,1711604703203125
-147.34,1711604703218750
-160.47,1711604703234375
-173.83,1711604703250000
-188.22,1711604703265625
-204.61,1711604703281250
-223.9,1711604703296875
-246.36,1711604703312500
-271.07,1711604703328125
-295.67,1711604703343750
-316.49,1711604703359375
-329.66,1711604703375000
-332.02,1711604703390625
-322.16,1711604703406250
-300.77,1711604703421875
-270.41,1711604703437500
-234.53,1711604703453125
-196.59,1711604703468750
-159.3,1711604703484375
-124.53,1711604703500000
-93.49,1711604703515625
-66.87,1711604703531250
-44.97,1711604703546875
-27.82,1711604703562500
-15.08,1711604703578125
-6.09,1711604703593750
-0.11,1711604703609375
3.63,1711604703625000
5.82,1711604703640625
6.98,1711604703656250
7.52,1711604703671875
7.72,1711604703687500
7.89,1711604703703125
8.26,1711604703718750
9.06,1711604703734375
10.35,1711604703750000
12.01,1711604703765625
13.8,1711604703781250
15.33,1711604703796875
16.29,1711604703812500
16.51,1711604703828125
15.97,1711604703843750
14.8,1711604703859375
13.16,1711604703875000
11.01,1711604703890625
8.22,1711604703906250
4.39,1711604703921875
-0.86,1711604703937500
-7.78,1711604703953125
-16.15,1711604703968750
-25.14,1711604703984375
-33.28,1711604704000000
-38.7,1711604704015625
-39.64,1711604704031250
-34.93,1711604704046875
-24.51,1711604704062500
-9.47,1711604704078125
8.27,1711604704093750
26.52,1711604704109375
43.43,1711604704125000
57.75,1711604704140625
68.94,1711604704156250
76.91,1711604704171875
81.68,1711604704187500
83.32,1711604704203125
81.89,1711604704218750
77.77,1711604704234375
71.7,1711604704250000
64.77,1711604704265625
58.28,1711604704281250
53.27,1711604704296875
50.33,1711604704312500
49.5,1711604704328125
50.25,1711604704343750
51.61,1711604704359375
52.35,1711604704375000
51.1,1711604704390625
46.69,1711604704406250
38.38,1711604704421875
26.04,1711604704437500
10.18,1711604704453125
-8.16,1711604704468750
-27.77,1711604704484375
-47.52,1711604704500000
-66.49,1711604704515625
-84.01,1711604704531250
-99.49,1711604704546875
-112.24,1711604704562500
-121.49,1711604704578125
-126.48,1711604704593750
-126.63,1711604704609375
-121.74,1711604704625000
-112.03,1711604704640625
-98.22,1711604704656250
-81.4,1711604704671875
-62.86,1711604704687500
-43.95,1711604704703125
-25.96,1711604704718750
-10.04,1711604704734375
2.92,1711604704750000
12.26,1711604704765625
17.73,1711604704781250
19.54,1711604704796875
18.47,1711604704812500
15.74,1711604704828125
12.86,1711604704843750
11.24,1711604704859375
11.79,1711604704875000
14.75,1711604704890625
19.69,1711604704906250
25.63,1711604704921875
31.47,1711604704937500
36.28,1711604704953125
39.51,1711604704968750
40.95,1711604704984375
40.59,1711604705000000
38.37,1711604705015625
34.17,1711604705031250
27.81,1711604705046875
19.18,1711604705062500
8.43,1711604705078125
-3.95,1711604705093750
-17.14,1711604705109375
-29.97,1711604705125000
-41.08,1711604705140625
-49.12,1711604705156250
-52.94,1711604705171875
-51.85,1711604705187500
-45.83,1711604705203125
-35.49,1711604705218750
-22.04,1711604705234375
-7.0,1711604705250000
8.04,1711604705265625
21.67,1711604705281250
32.69,1711604705296875
40.19,1711604705312500
43.57,1711604705328125
42.62,1711604705343750
37.66,1711604705359375
29.56,1711604705375000
19.65,1711604705390625
9.54,1711604705406250
0.71,1711604705421875
-6.11,1711604705437500
-11.04,1711604705453125
-15.19,1711604705468750
-20.28,1711604705484375
-27.91,1711604705500000
-38.94,1711604705515625
-53.14,1711604705531250
-69.26,1711604705546875
-85.52,1711604705562500
-100.27,1711604705578125
-112.32,1711604705593750
-121.18,1711604705609375
-126.86,1711604705625000
-129.65,1711604705640625
-129.98,1711604705656250
-128.23,1711604705671875
-124.7,1711604705687500
-119.37,1711604705703125
-111.88,1711604705718750
-101.56,1711604705734375
-87.73,1711604705750000
-70.1,1711604705765625
-49.08,1711604705781250
-25.87,1711604705796875
-2.2,1711604705812500
20.11,1711604705828125
39.53,1711604705843750
54.96,1711604705859375
65.8,1711604705875000
71.83,1711604705890625
73.18,1711604705906250
70.44,1711604705921875
64.69,1711604705937500
57.36,1711604705953125
49.91,1711604705968750
43.52,1711604705984375
38.69,1711604706000000
35.31,1711604706015625
32.72,1711604706031250
30.23,1711604706046875
27.27,1711604706062500
23.71,1711604706078125
19.69,1711604706093750
15.51,1711604706109375
11.4,1711604706125000
7.33,1711604706140625
3.1,1711604706156250
-1.66,1711604706171875
-7.33,1711604706187500
-14.29,1711604706203125
-22.76,1711604706218750
-32.8,1711604706234375
-44.03,1711604706250000
-55.46,1711604706265625
-65.48,1711604706281250
-72.12,1711604706296875
-73.56,1711604706312500
-68.7,1711604706328125
-57.62,1711604706343750
-41.57,1711604706359375
-22.6,1711604706375000
-2.92,1711604706390625
15.55,1711604706406250
31.42,1711604706421875
43.78,1711604706437500
52.06,1711604706453125
55.99,1711604706468750
55.7,1711604706484375
51.87,1711604706500000
45.72,1711604706515625
38.8,1711604706531250
32.61,1711604706546875
28.15,1711604706562500
25.66,1711604706578125
24.73,1711604706593750
24.45,1711604706609375
23.89,1711604706625000
22.43,1711604706640625
19.85,1711604706656250
16.38,1711604706671875
12.43,1711604706687500
8.28,1711604706703125
4.01,1711604706718750
-0.69,1711604706734375
-6.43,1711604706750000
-13.9,1711604706765625
-23.56,1711604706781250
-35.29,1711604706796875
-48.21,1711604706812500
-60.56,1711604706828125
-70.01,1711604706843750
-74.2,1711604706859375
-71.42,1711604706875000
-61.18,1711604706890625
-44.3,1711604706906250
-22.62,1711604706921875
1.41,1711604706937500
25.41,1711604706953125
47.37,1711604706968750
65.74,1711604706984375
79.39,1711604707000000
87.64,1711604707015625
90.37,1711604707031250
88.11,1711604707046875
82.08,1711604707062500
73.9,1711604707078125
65.3,1711604707093750
57.68,1711604707109375
51.77,1711604707125000
47.62,1711604707140625
44.67,1711604707156250
42.05,1711604707171875
38.91,1711604707187500
34.75,1711604707203125
29.44,1711604707218750
23.32,1711604707234375
16.87,1711604707250000
10.43,1711604707265625
3.9,1711604707281250
-3.27,1711604707296875
-11.95,1711604707312500
-22.92,1711604707328125
-36.37,1711604707343750
-51.5,1711604707359375
-66.3,1711604707375000
-77.94,1711604707390625
-83.53,1711604707406250
-81.0,1711604707421875
-69.91,1711604707437500
-51.56,1711604707453125
-28.63,1711604707468750
-4.3,1711604707484375
18.71,1711604707500000
38.54,1711604707515625
54.24,1711604707531250
65.39,1711604707546875
71.73,1711604707562500
73.14,1711604707578125
69.63,1711604707593750
61.6,1711604707609375
50.0,1711604707625000
36.28,1711604707640625
22.16,1711604707656250
9.29,1711604707671875
-1.04,1711604707687500
-8.2,1711604707703125
-12.32,1711604707718750
-14.1,1711604707734375
-14.56,1711604707750000
-14.55,1711604707765625
-14.53,1711604707781250
-14.54,1711604707796875
-14.41,1711604707812500
-14.09,1711604707828125
-13.89,1711604707843750
-14.44,1711604707859375
-16.55,1711604707875000
-20.94,1711604707890625
-27.99,1711604707906250
-37.49,1711604707921875
-48.47,1711604707937500
-59.16,1711604707953125
-67.2,1711604707968750
-70.12,1711604707984375
-65.98,1711604708000000
-54.05,1711604708015625
-35.0,1711604708031250
-10.79,1711604708046875
15.89,1711604708062500
42.37,1711604708078125
66.61,1711604708093750
87.35,1711604708109375
104.13,1711604708125000
116.75,1711604708140625
125.14,1711604708156250
129.17,1711604708171875
128.89,1711604708187500
124.74,1711604708203125
117.7,1711604708218750
109.1,1711604708234375
100.27,1711604708250000
92.15,1711604708265625
85.02,1711604708281250
78.58,1711604708296875
72.29,1711604708312500
65.6,1711604708328125
58.18,1711604708343750
49.96,1711604708359375
40.97,1711604708375000
31.34,1711604708390625
21.29,1711604708406250
11.18,1711604708421875
1.38,1711604708437500
-7.8,1711604708453125
-16.37,1711604708468750
-24.73,1711604708484375
-33.56,1711604708500000
-43.47,1711604708515625
-54.61,1711604708531250
-66.27,1711604708546875
-76.82,1711604708562500
-83.9,1711604708578125
-85.14,1711604708593750
-78.86,1711604708609375
-64.79,1711604708625000
-44.26,1711604708640625
-19.87,1711604708656250
5.25,1711604708671875
28.4,1711604708687500
47.8,1711604708703125
62.78,1711604708718750
73.4,1711604708734375
79.95,1711604708750000
82.69,1711604708765625
81.9,1711604708781250
78.1,1711604708796875
72.28,1711604708812500
65.85,1711604708828125
60.26,1711604708843750
56.58,1711604708859375
55.14,1711604708875000
55.5,1711604708890625
56.67,1711604708906250
57.47,1711604708921875
56.91,1711604708937500
54.45,1711604708953125
50.12,1711604708968750
44.46,1711604708984375
38.16,1711604709000000
31.85,1711604709015625
25.81,1711604709031250
19.91,1711604709046875
13.62,1711604709062500
6.34,1711604709078125
-2.47,1711604709093750
-13.04,1711604709109375
-25.12,1711604709125000
-37.98,1711604709140625
-50.2,1711604709156250
-59.82,1711604709171875
-64.68,1711604709187500
-62.91,1711604709203125
-53.6,1711604709218750
-37.2,1711604709234375
-15.47,1711604709250000
8.9,1711604709265625
33.08,1711604709281250
54.82,1711604709296875
72.77,1711604709312500
86.48,1711604709328125
96.13,1711604709343750
102.07,1711604709359375
104.66,1711604709375000
104.21,1711604709390625
101.2,1711604709406250
96.3,1711604709421875
90.5,1711604709437500
84.75,1711604709453125
79.68,1711604709468750
75.31,1711604709484375
71.03,1711604709500000
65.96,1711604709515625
59.39,1711604709531250
51.26,1711604709546875
42.17,1711604709562500
33.26,1711604709578125
25.43,1711604709593750
18.97,1711604709609375
13.35,1711604709625000
7.41,1711604709640625
-0.12,1711604709656250
-10.11,1711604709671875
-22.82,1711604709687500
-37.84,1711604709703125
-54.25,1711604709718750
-70.78,1711604709734375
-85.89,1711604709750000
-97.85,1711604709765625
-105.09,1711604709781250
-106.65,1711604709796875
-102.67,1711604709812500
-94.51,1711604709828125
-84.42,1711604709843750
-74.64,1711604709859375
-66.63,1711604709875000
-60.74,1711604709890625
-56.34,1711604709906250
-52.59,1711604709921875
-48.99,1711604709937500
-45.61,1711604709953125
-42.69,1711604709968750
-40.23,1711604709984375
-37.65,1711604710000000
-33.93,1711604710015625
-28.2,1711604710031250
-20.2,1711604710046875
-10.75,1711604710062500
-1.36,1711604710078125
6.38,1711604710093750
11.42,1711604710109375
13.62,1711604710125000
13.73,1711604710140625
12.86,1711604710156250
12.0,1711604710171875
11.56,1711604710187500
11.25,1711604710203125
10.24,1711604710218750
7.47,1711604710234375
1.91,1711604710250000
-7.06,1711604710265625
-19.43,1711604710281250
-34.34,1711604710296875
-50.03,1711604710312500
-63.97,1711604710328125
-73.57,1711604710343750
-76.75,1711604710359375
-72.59,1711604710375000
-61.52,1711604710390625
-45.06,1711604710406250
-25.32,1711604710421875
-4.42,1711604710437500
15.87,1711604710453125
34.15,1711604710468750
49.23,1711604710484375
60.19,1711604710500000
66.47,1711604710515625
67.99,1711604710531250
65.41,1711604710546875
60.05,1711604710562500
53.67,1711604710578125
47.94,1711604710593750
44.0,1711604710609375
42.03,1711604710625000
41.28,1711604710640625
40.4,1711604710656250
38.01,1711604710671875
33.28,1711604710687500
26.28,1711604710703125
17.86,1711604710718750
9.27,1711604710734375
1.75,1711604710750000
-3.98,1711604710765625
-7.93,1711604710781250
-10.89,1711604710796875
-14.34,1711604710812500
-20.12,1711604710828125
-29.8,1711604710843750
-43.94,1711604710859375
-61.52,1711604710875000
-79.72,1711604710890625
-94.49,1711604710906250
-101.63,1711604710921875
-98.15,1711604710937500
-83.26,1711604710953125
-58.65,1711604710968750
-27.87,1711604710984375
4.62,1711604711000000
34.79,1711604711015625
59.68,1711604711031250
77.82,1711604711046875
88.99,1711604711062500
93.87,1711604711078125
93.69,1711604711093750
90.0,1711604711109375
84.55,1711604711125000
79.13,1711604711140625
75.28,1711604711156250
74.02,1711604711171875
75.56,1711604711187500
79.21,1711604711203125
83.73,1711604711218750
87.8,1711604711234375
90.45,1711604711250000
91.52,1711604711265625
91.47,1711604711281250
91.13,1711604711296875
91.2,1711604711312500
91.92,1711604711328125
92.84,1711604711343750
93.06,1711604711359375
91.37,1711604711375000
86.71,1711604711390625
78.66,1711604711406250
67.6,1711604711421875
54.82,1711604711437500
42.19,1711604711453125
31.6,1711604711468750
24.21,1711604711484375
20.15,1711604711500000
18.46,1711604711515625
17.63,1711604711531250
16.21,1711604711546875
13.25,1711604711562500
8.5,1711604711578125
2.15,1711604711593750
-5.54,1711604711609375
-14.37,1711604711625000
-24.11,1711604711640625
-34.42,1711604711656250
-44.6,1711604711671875
-53.75,1711604711687500
-60.94,1711604711703125
-65.64,1711604711718750
-67.9,1711604711734375
-68.4,1711604711750000
-68.25,1711604711765625
-68.54,1711604711781250
-70.03,1711604711796875
-72.87,1711604711812500
-76.7,1711604711828125
-80.85,1711604711843750
-84.79,1711604711859375
-88.3,1711604711875000
-91.64,1711604711890625
-95.35,1711604711906250
-99.99,1711604711921875
-105.96,1711604711937500
-113.33,1711604711953125
-121.8,1711604711968750
-130.72,1711604711984375
-139.13,1711604712000000
-145.83,1711604712015625
-149.66,1711604712031250
-149.86,1711604712046875
-146.32,1711604712062500
-139.8,1711604712078125
-131.62,1711604712093750
-123.32,1711604712109375
-116.29,1711604712125000
-111.61,1711604712140625
-109.96,1711604712156250
-111.81,1711604712171875
-117.25,1711604712187500
-125.86,1711604712203125
-136.53,1711604712218750
-147.43,1711604712234375
-156.32,1711604712250000
-161.16,1711604712265625
-160.68,1711604712281250
-154.75,1711604712296875
-144.33,1711604712312500
-130.96,1711604712328125
-116.31,1711604712343750
-101.76,1711604712359375
-88.34,1711604712375000
-76.72,1711604712390625
-67.4,1711604712406250
-60.56,1711604712421875
-56.06,1711604712437500
-53.39,1711604712453125
-51.78,1711604712468750
-50.55,1711604712484375
-49.35,1711604712500000
-48.5,1711604712515625
-48.72,1711604712531250
-50.73,1711604712546875
-54.65,1711604712562500
-59.6,1711604712578125
-63.76,1711604712593750
-64.89,1711604712609375
-61.03,1711604712625000
-51.2,1711604712640625
-35.78,1711604712656250
-16.3,1711604712671875
5.11,1711604712687500
26.38,1711604712703125
45.87,1711604712718750
62.68,1711604712734375
76.42,1711604712750000
87.0,1711604712765625
94.45,1711604712781250
98.88,1711604712796875
100.48,1711604712812500
99.73,1711604712828125
97.36,1711604712843750
94.38,1711604712859375
91.82,1711604712875000
90.58,1711604712890625
91.18,1711604712906250
93.51,1711604712921875
96.91,1711604712937500
100.36,1711604712953125
102.83,1711604712968750
103.66,1711604712984375
102.62,1711604713000000
99.89,1711604713015625
95.72,1711604713031250
90.19,1711604713046875
83.09,1711604713062500
74.07,1711604713078125
62.94,1711604713093750
49.83,1711604713109375
35.21,1711604713125000
19.72,1711604713140625
4.16,1711604713156250
-10.62,1711604713171875
-23.46,1711604713187500
-32.88,1711604713203125
-37.3,1711604713218750
-35.47,1711604713234375
-27.08,1711604713250000
-13.06,1711604713265625
4.5,1711604713281250
22.93,1711604713296875
39.75,1711604713312500
53.26,1711604713328125
62.79,1711604713343750
68.47,1711604713359375
70.88,1711604713375000
70.61,1711604713390625
68.08,1711604713406250
63.51,1711604713421875
57.19,1711604713437500
49.69,1711604713453125
41.8,1711604713468750
34.52,1711604713484375
28.66,1711604713500000
24.52,1711604713515625
21.78,1711604713531250
19.64,1711604713546875
17.14,1711604713562500
13.62,1711604713578125
8.92,1711604713593750
3.36,1711604713609375
-2.55,1711604713625000
-8.48,1711604713640625
-14.42,1711604713656250
-20.8,1711604713671875
-28.17,1711604713687500
-37.04,1711604713703125
-47.69,1711604713718750
-59.94,1711604713734375
-73.08,1711604713750000
-85.77,1711604713765625
-96.2,1711604713781250
-102.32,1711604713796875
-102.43,1711604713812500
-95.7,1711604713828125
-82.45,1711604713843750
-64.2,1711604713859375
-43.08,1711604713875000
-21.3,1711604713890625
-0.68,1711604713906250
17.57,1711604713921875
32.8,1711604713937500
44.71,1711604713953125
53.21,1711604713968750
58.37,1711604713984375
60.47,1711604714000000
60.13,1711604714015625
58.27,1711604714031250
55.99,1711604714046875
54.29,1711604714062500
53.9,1711604714078125
55.02,1711604714093750
57.37,1711604714109375
60.29,1711604714125000
63.01,1711604714140625
65.0,1711604714156250
66.07,1711604714171875
66.42,1711604714187500
66.34,1711604714203125
65.9,1711604714218750
64.78,1711604714234375
62.16,1711604714250000
57.22,1711604714265625
49.27,1711604714281250
38.14,1711604714296875
24.13,1711604714312500
7.82,1711604714328125
-9.94,1711604714343750
-28.19,1711604714359375
-45.62,1711604714375000
-60.58,1711604714390625
-71.1,1711604714406250
-75.48,1711604714421875
-72.68,1711604714437500
-62.87,1711604714453125
-47.49,1711604714468750
-28.88,1711604714484375
-9.66,1711604714500000
7.89,1711604714515625
22.22,1711604714531250
32.63,1711604714546875
39.04,1711604714562500
41.82,1711604714578125
41.62,1711604714593750
39.31,1711604714609375
36.01,1711604714625000
33.1,1711604714640625
31.88,1711604714656250
33.31,1711604714671875
37.6,1711604714687500
44.14,1711604714703125
51.71,1711604714718750
59.18,1711604714734375
65.94,1711604714750000
72.27,1711604714765625
78.76,1711604714781250
85.72,1711604714796875
92.46,1711604714812500
97.13,1711604714828125
97.23,1711604714843750
90.61,1711604714859375
76.43,1711604714875000
55.63,1711604714890625
30.71,1711604714906250
4.98,1711604714921875
-18.31,1711604714937500
-36.56,1711604714953125
-48.15,1711604714968750
-52.43,1711604714984375
-49.66,1711604715000000
-40.84,1711604715015625
-27.72,1711604715031250
-12.39,1711604715046875
2.97,1711604715062500
16.64,1711604715078125
27.55,1711604715093750
35.38,1711604715109375
40.25,1711604715125000
42.59,1711604715140625
42.79,1711604715156250
41.28,1711604715171875
38.67,1711604715187500
35.75,1711604715203125
33.38,1711604715218750
32.18,1711604715234375
32.29,1711604715250000
33.32,1711604715265625
34.55,1711604715281250
35.33,1711604715296875
35.33,1711604715312500
34.67,1711604715328125
33.62,1711604715343750
32.42,1711604715359375
31.01,1711604715375000
29.14,1711604715390625
26.39,1711604715406250
22.41,1711604715421875
16.93,1711604715437500
9.64,1711604715453125
0.28,1711604715468750
-11.33,1711604715484375
-25.06,1711604715500000
-40.12,1711604715515625
-55.03,1711604715531250
-67.78,1711604715546875
-76.24,1711604715562500
-78.75,1711604715578125
-74.58,1711604715593750
-64.23,1711604715609375
-49.31,1711604715625000
-32.07,1711604715640625
-15.01,1711604715656250
-0.29,1711604715671875
10.68,1711604715687500
17.29,1711604715703125
19.7,1711604715718750
18.54,1711604715734375
14.69,1711604715750000
9.09,1711604715765625
2.71,1711604715781250
-3.48,1711604715796875
-8.57,1711604715812500
-11.82,1711604715828125
-12.99,1711604715843750
-12.38,1711604715859375
-10.88,1711604715875000
-9.59,1711604715890625
-9.42,1711604715906250
-10.77,1711604715921875
-13.51,1711604715937500
-17.09,1711604715953125
-20.95,1711604715968750
-24.71,1711604715984375
-28.35,1711604716000000
-32.15,1711604716015625
-36.52,1711604716031250
-41.95,1711604716046875
-48.87,1711604716062500
-57.58,1711604716078125
-67.87,1711604716093750
-78.81,1711604716109375
-88.63,1711604716125000
-94.9,1711604716140625
-95.22,1711604716156250
-88.07,1711604716171875
-73.44,1711604716187500
-53.0,1711604716203125
-29.63,1711604716218750
-6.53,1711604716234375
13.73,1711604716250000
29.65,1711604716265625
40.86,1711604716281250
47.7,1711604716296875
50.82,1711604716312500
50.79,1711604716328125
48.15,1711604716343750
43.44,1711604716359375
37.37,1711604716375000
30.69,1711604716390625
24.12,1711604716406250
18.18,1711604716421875
13.09,1711604716437500
8.85,1711604716453125
5.39,1711604716468750
2.66,1711604716484375
0.68,1711604716500000
-0.54,1711604716515625
-1.0,1711604716531250
-0.87,1711604716546875
-0.45,1711604716562500
-0.19,1711604716578125
-0.53,1711604716593750
-1.93,1711604716609375
-4.62,1711604716625000
-8.82,1711604716640625
-14.58,1711604716656250
-21.96,1711604716671875
-30.87,1711604716687500
-40.98,1711604716703125
-51.5,1711604716718750
-61.04,1711604716734375
-67.79,1711604716750000
-69.91,1711604716765625
-66.14,1711604716781250
-56.31,1711604716796875
-41.64,1711604716812500
-24.45,1711604716828125
-7.53,1711604716843750
6.6,1711604716859375
16.22,1711604716875000
20.66,1711604716890625
20.04,1711604716906250
15.03,1711604716921875
6.47,1711604716937500
-4.63,1711604716953125
-17.21,1711604716968750
-30.12,1711604716984375
-42.53,1711604717000000
-54.16,1711604717015625
-65.5,1711604717031250
-77.57,1711604717046875
-91.4,1711604717062500
-107.07,1711604717078125
-123.2,1711604717093750
-137.15,1711604717109375
-145.65,1711604717125000
-146.12,1711604717140625
-137.72,1711604717156250
-121.76,1711604717171875
-101.31,1711604717187500
-80.41,1711604717203125
-63.11,1711604717218750
-52.82,1711604717234375
-51.98,1711604717250000
-61.7,1711604717265625
-81.47,1711604717281250
-108.92,1711604717296875
-139.78,1711604717312500
-168.53,1711604717328125
-189.56,1711604717343750
-198.42,1711604717359375
-192.9,1711604717375000
-173.33,1711604717390625
-142.14,1711604717406250
-103.18,1711604717421875
-60.83,1711604717437500
-19.32,1711604717453125
17.82,1711604717468750
48.18,1711604717484375
70.68,1711604717500000
85.6,1711604717515625
94.33,1711604717531250
98.77,1711604717546875
100.63,1711604717562500
101.12,1711604717578125
100.83,1711604717593750
99.95,1711604717609375
98.51,1711604717625000
96.7,1711604717640625
94.7,1711604717656250
92.68,1711604717671875
90.6,1711604717687500
88.3,1711604717703125
85.55,1711604717718750
82.27,1711604717734375
78.49,1711604717750000
74.28,1711604717765625
69.7,1711604717781250
64.66,1711604717796875
59.0,1711604717812500
52.53,1711604717828125
45.07,1711604717843750
36.45,1711604717859375
26.48,1711604717875000
15.17,1711604717890625
2.86,1711604717906250
-9.51,1711604717921875
-20.35,1711604717937500
-27.7,1711604717953125
-29.7,1711604717968750
-25.2,1711604717984375
-14.18,1711604718000000
2.2,1711604718015625
22.08,1711604718031250
43.43,1711604718046875
64.59,1711604718062500
84.47,1711604718078125
102.34,1711604718093750
117.6,1711604718109375
129.45,1711604718125000
137.13,1711604718140625
140.15,1711604718156250
138.77,1711604718171875
134.07,1711604718187500
127.67,1711604718203125
121.22,1711604718218750
115.71,1711604718234375
111.34,1711604718250000
107.39,1711604718265625
102.77,1711604718281250
96.35,1711604718296875
87.36,1711604718312500
75.54,1711604718328125
61.04,1711604718343750
44.36,1711604718359375
26.18,1711604718375000
7.39,1711604718390625
-10.96,1711604718406250
-27.71,1711604718421875
-41.86,1711604718437500
-52.92,1711604718453125
-60.99,1711604718468750
-66.85,1711604718484375
-71.57,1711604718500000
-75.89,1711604718515625
-79.76,1711604718531250
-82.14,1711604718546875
-81.34,1711604718562500
-75.53,1711604718578125
-63.51,1711604718593750
-45.07,1711604718609375
-21.1,1711604718625000
6.67,1711604718640625
36.12,1711604718656250
65.06,1711604718671875
91.44,1711604718687500
113.46,1711604718703125
129.7,1711604718718750
139.28,1711604718734375
142.1,1711604718750000
138.76,1711604718765625
130.67,1711604718781250
119.58,1711604718796875
107.36,1711604718812500
95.56,1711604718828125
85.23,1711604718843750
76.9,1711604718859375
70.58,1711604718875000
65.96,1711604718890625
62.58,1711604718906250
60.0,1711604718921875
57.84,1711604718937500
55.82,1711604718953125
53.81,1711604718968750
51.71,1711604718984375
49.52,1711604719000000
47.25,1711604719015625
44.79,1711604719031250
41.91,1711604719046875
38.19,1711604719062500
33.04,1711604719078125
25.99,1711604719093750
16.97,1711604719109375
6.53,1711604719125000
-4.03,1711604719140625
-13.04,1711604719156250
-18.88,1711604719171875
-20.63,1711604719187500
-18.34,1711604719203125
-13.07,1711604719218750
-6.47,1711604719234375
-0.21,1711604719250000
4.48,1711604719265625
7.1,1711604719281250
7.73,1711604719296875
6.82,1711604719312500
4.79,1711604719328125
1.81,1711604719343750
-2.2,1711604719359375
-7.27,1711604719375000
-13.12,1711604719390625
-19.05,1711604719406250
-23.93,1711604719421875
-26.62,1711604719437500
-26.4,1711604719453125
-23.24,1711604719468750
-17.86,1711604719484375
-11.36,1711604719500000
-4.84,1711604719515625
1.0,1711604719531250
5.85,1711604719546875
9.69,1711604719562500
12.39,1711604719578125
13.62,1711604719593750
12.82,1711604719609375
9.33,1711604719625000
2.81,1711604719640625
-6.7,1711604719656250
-18.64,1711604719671875
-32.12,1711604719687500
-46.12,1711604719703125
-59.59,1711604719718750
-71.63,1711604719734375
-81.4,1711604719750000
-88.09,1711604719765625
-91.09,1711604719781250
-90.03,1711604719796875
-84.95,1711604719812500
-76.34,1711604719828125
-65.07,1711604719843750
-52.17,1711604719859375
-38.81,1711604719875000
-26.03,1711604719890625
-14.81,1711604719906250
-6.02,1711604719921875
-0.25,1711604719937500
2.27,1711604719953125
1.81,1711604719968750
-0.89,1711604719984375
-4.79,1711604720000000
-8.93,1711604720015625
-12.67,1711604720031250
-15.89,1711604720046875
-18.87,1711604720062500
-22.12,1711604720078125
-25.95,1711604720093750
-30.33,1711604720109375
-34.81,1711604720125000
-38.7,1711604720140625
-41.33,1711604720156250
-42.31,1711604720171875
-41.63,1711604720187500
-39.75,1711604720203125
-37.39,1711604720218750
-35.42,1711604720234375
-34.73,1711604720250000
-35.91,1711604720265625
-39.24,1711604720281250
-44.39,1711604720296875
-50.52,1711604720312500
-56.41,1711604720328125
-60.83,1711604720343750
-62.88,1711604720359375
-62.16,1711604720375000
-58.83,1711604720390625
-53.3,1711604720406250
-46.14,1711604720421875
-37.81,1711604720437500
-28.68,1711604720453125
-19.23,1711604720468750
-10.1,1711604720484375
-2.09,1711604720500000
3.96,1711604720515625
7.45,1711604720531250
8.29,1711604720546875
6.89,1711604720562500
4.04,1711604720578125
0.59,1711604720593750
-2.92,1711604720609375
-6.51,1711604720625000
-10.58,1711604720640625
-15.77,1711604720656250
-22.49,1711604720671875
-30.71,1711604720687500
-39.89,1711604720703125
-49.29,1711604720718750
-58.24,1711604720734375
-66.44,1711604720750000
-74.06,1711604720765625
-81.61,1711604720781250
-89.72,1711604720796875
-98.93,1711604720812500
-109.47,1711604720828125
-121.17,1711604720843750
-133.36,1711604720859375
-144.85,1711604720875000
-154.07,1711604720890625
-159.17,1711604720906250
-158.35,1711604720921875
-150.24,1711604720937500
-134.3,1711604720953125
-110.96,1711604720968750
-81.72,1711604720984375
-48.8,1711604721000000
-14.66,1711604721015625
18.35,1711604721031250
48.35,1711604721046875
73.94,1711604721062500
94.07,1711604721078125
107.99,1711604721093750
115.3,1711604721109375
116.2,1711604721125000
111.81,1711604721140625
104.3,1711604721156250
96.53,1711604721171875
91.36,1711604721187500
90.9,1711604721203125
95.89,1711604721218750
105.64,1711604721234375
118.44,1711604721250000
132.22,1711604721265625
145.07,1711604721281250
155.5,1711604721296875
162.36,1711604721312500
164.76,1711604721328125
161.99,1711604721343750
153.74,1711604721359375
140.35,1711604721375000
122.89,1711604721390625
103.07,1711604721406250
82.74,1711604721421875
63.55,1711604721437500
46.58,1711604721453125
32.52,1711604721468750
21.73,1711604721484375
14.56,1711604721500000
11.25,1711604721515625
11.85,1711604721531250
15.92,1711604721546875
22.42,1711604721562500
29.93,1711604721578125
36.91,1711604721593750
42.14,1711604721609375
44.86,1711604721625000
44.87,1711604721640625
42.35,1711604721656250
37.65,1711604721671875
31.24,1711604721687500
23.65,1711604721703125
15.57,1711604721718750
7.79,1711604721734375
1.02,1711604721750000
-4.36,1711604721765625
-8.44,1711604721781250
-11.99,1711604721796875
-16.09,1711604721812500
-21.91,1711604721828125
-30.15,1711604721843750
-40.84,1711604721859375
-53.31,1711604721875000
-66.46,1711604721890625
-79.19,1711604721906250
-90.64,1711604721921875
-100.47,1711604721937500
-108.65,1711604721953125
-115.34,1711604721968750
-120.81,1711604721984375
-125.47,1711604722000000
-130.04,1711604722015625
-135.38,1711604722031250
-142.18,1711604722046875
-150.39,1711604722062500
-158.8,1711604722078125
-165.04,1711604722093750
-166.14,1711604722109375
-159.53,1711604722125000
-143.9,1711604722140625
-119.79,1711604722156250
-89.32,1711604722171875
-55.71,1711604722187500
-22.34,1711604722203125
7.84,1711604722218750
32.67,1711604722234375
50.92,1711604722250000
62.2,1711604722265625
67.0,1711604722281250
66.58,1711604722296875
62.79,1711604722312500
57.59,1711604722328125
52.74,1711604722343750
49.31,1711604722359375
47.61,1711604722375000
47.25,1711604722390625
47.56,1711604722406250
47.91,1711604722421875
47.97,1711604722437500
47.69,1711604722453125
47.16,1711604722468750
46.34,1711604722484375
44.91,1711604722500000
42.34,1711604722515625
38.01,1711604722531250
31.52,1711604722546875
22.83,1711604722562500
12.27,1711604722578125
0.58,1711604722593750
-11.32,1711604722609375
-22.29,1711604722625000
-31.05,1711604722640625
-36.32,1711604722656250
-37.11,1711604722671875
-33.12,1711604722687500
-25.01,1711604722703125
-14.4,1711604722718750
-3.26,1711604722734375
6.58,1711604722750000
14.14,1711604722765625
19.36,1711604722781250
22.82,1711604722796875
25.15,1711604722812500
26.65,1711604722828125
27.17,1711604722843750
26.3,1711604722859375
23.88,1711604722875000
20.31,1711604722890625
16.5,1711604722906250
13.72,1711604722921875
13.13,1711604722937500
15.52,1711604722953125
21.05,1711604722968750
29.37,1711604722984375
39.65,1711604723000000
50.78,1711604723015625
61.34,1711604723031250
69.7,1711604723046875
73.91,1711604723062500
71.92,1711604723078125
62.05,1711604723093750
43.61,1711604723109375
17.38,1711604723125000
-14.22,1711604723140625
-47.74,1711604723156250
-79.65,1711604723171875
-107.47,1711604723187500
-130.27,1711604723203125
-148.48,1711604723218750
-162.81,1711604723234375
-173.14,1711604723250000
-178.02,1711604723265625
-174.95,1711604723281250
-161.79,1711604723296875
-138.1,1711604723312500
-105.87,1711604723328125
-69.16,1711604723343750
-32.91,1711604723359375
-1.47,1711604723375000
22.45,1711604723390625
37.97,1711604723406250
45.69,1711604723421875
47.05,1711604723437500
43.86,1711604723453125
38.15,1711604723468750
32.0,1711604723484375
27.3,1711604723500000
25.3,1711604723515625
26.23,1711604723531250
29.15,1711604723546875
32.34,1711604723562500
33.94,1711604723578125
32.71,1711604723593750
28.55,1711604723609375
22.44,1711604723625000
15.94,1711604723640625
10.61,1711604723656250
7.3,1711604723671875
5.81,1711604723687500
4.95,1711604723703125
2.95,1711604723718750
-2.0,1711604723734375
-10.97,1711604723750000
-23.85,1711604723765625
-39.12,1711604723781250
-54.13,1711604723796875
-65.77,1711604723812500
-71.35,1711604723828125
-69.32,1711604723843750
-59.77,1711604723859375
-44.27,1711604723875000
-25.27,1711604723890625
-5.39,1711604723906250
13.38,1711604723921875
29.87,1711604723937500
43.73,1711604723953125
55.02,1711604723968750
63.87,1711604723984375
70.27,1711604724000000
74.25,1711604724015625
76.04,1711604724031250
76.28,1711604724046875
75.98,1711604724062500
76.15,1711604724078125
77.45,1711604724093750
79.89,1711604724109375
83.0,1711604724125000
86.02,1711604724140625
88.32,1711604724156250
89.78,1711604724171875
90.72,1711604724187500
91.76,1711604724203125
93.44,1711604724218750
95.95,1711604724234375
98.95,1711604724250000
101.73,1711604724265625
103.49,1711604724281250
103.58,1711604724296875
101.64,1711604724312500
97.44,1711604724328125
90.82,1711604724343750
81.6,1711604724359375
69.9,1711604724375000
56.39,1711604724390625
42.57,1711604724406250
30.73,1711604724421875
23.23,1711604724437500
21.77,1711604724453125
26.8,1711604724468750
37.23,1711604724484375
50.93,1711604724500000
65.45,1711604724515625
78.67,1711604724531250
89.18,1711604724546875
96.26,1711604724562500
99.69,1711604724578125
99.56,1711604724593750
96.21,1711604724609375
90.3,1711604724625000
82.77,1711604724640625
74.63,1711604724656250
66.71,1711604724671875
59.43,1711604724687500
52.81,1711604724703125
46.66,1711604724718750
40.79,1711604724734375
35.1,1711604724750000
29.47,1711604724765625
23.66,1711604724781250
17.4,1711604724796875
10.45,1711604724812500
2.86,1711604724828125
-5.07,1711604724843750
-12.98,1711604724859375
-20.75,1711604724875000
-28.7,1711604724890625
-37.64,1711604724906250
-48.37,1711604724921875
-61.22,1711604724937500
-75.67,1711604724953125
-90.32,1711604724968750
-103.27,1711604724984375
-112.68,1711604725000000
-117.35,1711604725015625
-117.01,1711604725031250
-112.29,1711604725046875
-104.34,1711604725062500
-94.42,1711604725078125
-83.61,1711604725093750
-72.56,1711604725109375
-61.78,1711604725125000
-51.79,1711604725140625
-43.42,1711604725156250
-37.72,1711604725171875
-35.63,1711604725187500
-37.51,1711604725203125
-42.79,1711604725218750
-50.07,1711604725234375
-57.33,1711604725250000
-62.72,1711604725265625
-65.1,1711604725281250
-64.43,1711604725296875
-61.71,1711604725312500
-58.52,1711604725328125
-56.39,1711604725343750
-56.33,1711604725359375
-58.68,1711604725375000
-63.14,1711604725390625
-69.19,1711604725406250
-76.33,1711604725421875
-84.28,1711604725437500
-93.02,1711604725453125
-102.82,1711604725468750
-114.14,1711604725484375
-127.56,1711604725500000
-143.32,1711604725515625
-160.92,1711604725531250
-178.8,1711604725546875
-194.49,1711604725562500
-205.19,1711604725578125
-208.63,1711604725593750
-203.77,1711604725609375
-191.04,1711604725625000
-172.1,1711604725640625
-149.1,1711604725656250
-124.13,1711604725671875
-98.83,1711604725687500
-74.55,1711604725703125
-52.53,1711604725718750
-34.02,1711604725734375
-20.07,1711604725750000
-11.24,1711604725765625
-7.26,1711604725781250
-6.96,1711604725796875
-8.6,1711604725812500
-10.32,1711604725828125
-10.67,1711604725843750
-9.05,1711604725859375
-5.82,1711604725875000
-2.07,1711604725890625
0.89,1711604725906250
2.04,1711604725921875
1.09,1711604725937500
-1.66,1711604725953125
-5.48,1711604725968750
-9.6,1711604725984375
-13.41,1711604726000000
-16.64,1711604726015625
-19.43,1711604726031250
-22.17,1711604726046875
-25.42,1711604726062500
-29.7,1711604726078125
-35.35,1711604726093750
-42.34,1711604726109375
-50.06,1711604726125000
-57.24,1711604726140625
-62.02,1711604726156250
-62.26,1711604726171875
-56.16,1711604726187500
-42.89,1711604726203125
-22.9,1711604726218750
2.07,1711604726234375
29.52,1711604726250000
56.78,1711604726265625
81.62,1711604726281250
102.59,1711604726296875
118.89,1711604726312500
130.13,1711604726328125
136.06,1711604726343750
136.61,1711604726359375
132.09,1711604726375000
123.3,1711604726390625
111.54,1711604726406250
98.32,1711604726421875
85.08,1711604726437500
72.95,1711604726453125
62.67,1711604726468750
54.52,1711604726484375
48.41,1711604726500000
44.08,1711604726515625
41.08,1711604726531250
39.05,1711604726546875
37.69,1711604726562500
36.81,1711604726578125
36.13,1711604726593750
35.19,1711604726609375
33.32,1711604726625000
29.74,1711604726640625
23.89,1711604726656250
15.7,1711604726671875
6.0,1711604726687500
-3.56,1711604726703125
-10.81,1711604726718750
-13.64,1711604726734375
-10.65,1711604726750000
-1.65,1711604726765625
12.25,1711604726781250
29.11,1711604726796875
46.73,1711604726812500
63.4,1711604726828125
78.15,1711604726843750
90.76,1711604726859375
101.32,1711604726875000
109.73,1711604726890625
115.5,1711604726906250
117.9,1711604726921875
116.4,1711604726937500
111.16,1711604726953125
103.28,1711604726968750
94.49,1711604726984375
86.59,1711604727000000
80.74,1711604727015625
77.04,1711604727031250
74.58,1711604727046875
72.02,1711604727062500
68.28,1711604727078125
63.11,1711604727093750
57.0,1711604727109375
50.87,1711604727125000
45.45,1711604727140625
40.89,1711604727156250
36.66,1711604727171875
31.84,1711604727187500
25.53,1711604727203125
17.07,1711604727218750
6.26,1711604727234375
-6.59,1711604727250000
-20.52,1711604727265625
-33.83,1711604727281250
-44.2,1711604727296875
-49.27,1711604727312500
-47.3,1711604727328125
-38.0,1711604727343750
-22.82,1711604727359375
-4.62,1711604727375000
13.18,1711604727390625
27.69,1711604727406250
37.3,1711604727421875
41.98,1711604727437500
42.9,1711604727453125
41.83,1711604727468750
40.38,1711604727484375
39.5,1711604727500000
39.53,1711604727515625
40.3,1711604727531250
41.61,1711604727546875
43.43,1711604727562500
45.89,1711604727578125
49.07,1711604727593750
52.78,1711604727609375
56.45,1711604727625000
59.43,1711604727640625
61.31,1711604727656250
62.18,1711604727671875
62.49,1711604727687500
62.71,1711604727703125
62.89,1711604727718750
62.57,1711604727734375
61.1,1711604727750000
58.04,1711604727765625
53.59,1711604727781250
48.51,1711604727796875
43.68,1711604727812500
39.59,1711604727828125
36.02,1711604727843750
31.99,1711604727859375
26.24,1711604727875000
17.76,1711604727890625
6.24,1711604727906250
-7.79,1711604727921875
-23.08,1711604727937500
-38.06,1711604727953125
-51.34,1711604727968750
-62.02,1711604727984375
-69.97,1711604728000000
-75.74,1711604728015625
-80.32,1711604728031250
-84.74,1711604728046875
-89.67,1711604728062500
-95.18,1711604728078125
-100.72,1711604728093750
-105.23,1711604728109375
-107.48,1711604728125000
-106.18,1711604728140625
-100.22,1711604728156250
-88.79,1711604728171875
-71.47,1711604728187500
-48.33,1711604728203125
-19.92,1711604728218750
12.76,1711604728234375
48.39,1711604728250000
85.51,1711604728265625
122.52,1711604728281250
157.47,1711604728296875
187.87,1711604728312500
210.69,1711604728328125
222.91,1711604728343750
222.42,1711604728359375
209.13,1711604728375000
185.41,1711604728390625
155.93,1711604728406250
126.32,1711604728421875
101.58,1711604728437500
84.65,1711604728453125
75.98,1711604728468750
73.97,1711604728484375
76.1,1711604728500000
80.03,1711604728515625
84.08,1711604728531250
87.22,1711604728546875
88.56,1711604728562500
87.16,1711604728578125
82.14,1711604728593750
73.15,1711604728609375
60.71,1711604728625000
46.2,1711604728640625
31.42,1711604728656250
17.92,1711604728671875
6.58,1711604728687500
-2.58,1711604728703125
-10.08,1711604728718750
-16.59,1711604728734375
-22.54,1711604728750000
-28.08,1711604728765625
-33.0,1711604728781250
-36.9,1711604728796875
-39.36,1711604728812500
-40.04,1711604728828125
-38.98,1711604728843750
-36.71,1711604728859375
-34.29,1711604728875000
-33.08,1711604728890625
-34.35,1711604728906250
-38.79,1711604728921875
-46.25,1711604728937500
-55.82,1711604728953125
-66.01,1711604728968750
-75.2,1711604728984375
-82.01,1711604729000000
-85.51,1711604729015625
-85.32,1711604729031250
-81.62,1711604729046875
-75.03,1711604729062500
-66.59,1711604729078125
-57.49,1711604729093750
-48.95,1711604729109375
-41.91,1711604729125000
-36.88,1711604729140625
-33.9,1711604729156250
-32.54,1711604729171875
-32.09,1711604729187500
-31.88,1711604729203125
-31.37,1711604729218750
-30.38,1711604729234375
-29.1,1711604729250000
-28.05,1711604729265625
-27.75,1711604729281250
-28.61,1711604729296875
-30.68,1711604729312500
-33.62,1711604729328125
-36.75,1711604729343750
-39.41,1711604729359375
-41.24,1711604729375000
-42.4,1711604729390625
-43.6,1711604729406250
-45.81,1711604729421875
-49.88,1711604729437500
-56.15,1711604729453125
-64.22,1711604729468750
-72.85,1711604729484375
-80.21,1711604729500000
-84.33,1711604729515625
-83.49,1711604729531250
-76.81,1711604729546875
-64.41,1711604729562500
-47.5,1711604729578125
-28.1,1711604729593750
-8.61,1711604729609375
8.65,1711604729625000
21.92,1711604729640625
30.13,1711604729656250
32.99,1711604729671875
30.82,1711604729687500
24.48,1711604729703125
15.19,1711604729718750
4.43,1711604729734375
-6.27,1711604729750000
-15.75,1711604729765625
-23.38,1711604729781250
-29.28,1711604729796875
-34.14,1711604729812500
-38.99,1711604729828125
-44.71,1711604729843750
-51.8,1711604729859375
-60.16,1711604729875000
-69.27,1711604729890625
-78.4,1711604729906250
-86.81,1711604729921875
-94.06,1711604729937500
-100.06,1711604729953125
-105.14,1711604729968750
-109.88,1711604729984375
-114.79,1711604730000000
-119.88,1711604730015625
-124.35,1711604730031250
-126.63,1711604730046875
-124.81,1711604730062500
-117.34,1711604730078125
-103.66,1711604730093750
-84.63,1711604730109375
-62.27,1711604730125000
-39.19,1711604730140625
-17.98,1711604730156250
-0.54,1711604730171875
11.98,1711604730187500
19.22,1711604730203125
21.36,1711604730218750
19.04,1711604730234375
13.3,1711604730250000
5.59,1711604730265625
-2.43,1711604730281250
-9.29,1711604730296875
-14.04,1711604730312500
-16.6,1711604730328125
-17.69,1711604730343750
-18.61,1711604730359375
-20.63,1711604730375000
-24.56,1711604730390625
-30.49,1711604730406250
-37.9,1711604730421875
-46.01,1711604730437500
-54.29,1711604730453125
-62.68,1711604730468750
-71.72,1711604730484375
-82.34,1711604730500000
-95.39,1711604730515625
-111.2,1711604730531250
-129.21,1711604730546875
-147.77,1711604730562500
-164.4,1711604730578125
-176.41,1711604730593750
-181.58,1711604730609375
-178.85,1711604730625000
-168.63,1711604730640625
-152.53,1711604730656250
-132.9,1711604730671875
-112.19,1711604730687500
-92.4,1711604730703125
-74.9,1711604730718750
-60.37,1711604730734375
-48.96,1711604730750000
-40.35,1711604730765625
-33.9,1711604730781250
-28.84,1711604730796875
-24.48,1711604730812500
-20.51,1711604730828125
-17.01,1711604730843750
-14.47,1711604730859375
-13.3,1711604730875000
-13.62,1711604730890625
-15.03,1711604730906250
-16.77,1711604730921875
-18.01,1711604730937500
-18.35,1711604730953125
-17.95,1711604730968750
-17.52,1711604730984375
-18.19,1711604731000000
-21.1,1711604731015625
-27.01,1711604731031250
-36.12,1711604731046875
-47.67,1711604731062500
-59.85,1711604731078125
-69.95,1711604731093750
-74.84,1711604731109375
-71.93,1711604731125000
-60.05,1711604731140625
-39.87,1711604731156250
-13.74,1711604731171875
15.15,1711604731187500
43.72,1711604731203125
69.87,1711604731218750
92.45,1711604731234375
111.02,1711604731250000
125.22,1711604731265625
134.67,1711604731281250
139.0,1711604731296875
138.37,1711604731312500
133.69,1711604731328125
126.69,1711604731343750
119.46,1711604731359375
113.87,1711604731375000
111.04,1711604731390625
111.12,1711604731406250
113.43,1711604731421875
116.88,1711604731437500
120.44,1711604731453125
123.38,1711604731468750
125.47,1711604731484375
126.99,1711604731500000
128.75,1711604731515625
132.1,1711604731531250
138.69,1711604731546875
149.74,1711604731562500
165.35,1711604731578125
183.99,1711604731593750
202.75,1711604731609375
218.37,1711604731625000
228.55,1711604731640625
232.84,1711604731656250
232.62,1711604731671875
230.11,1711604731687500
227.0,1711604731703125
223.61,1711604731718750
218.91,1711604731734375
211.24,1711604731750000
199.47,1711604731765625
183.55,1711604731781250
164.46,1711604731796875
143.71,1711604731812500
122.75,1711604731828125
102.52,1711604731843750
83.43,1711604731859375
65.6,1711604731875000
49.03,1711604731890625
33.95,1711604731906250
20.54,1711604731921875
8.68,1711604731937500
-2.36,1711604731953125
-13.82,1711604731968750
-26.97,1711604731984375
-42.44,1711604732000000
-59.92,1711604732015625
-78.37,1711604732031250
-96.86,1711604732046875
-115.33,1711604732062500
-134.71,1711604732078125
-156.11,1711604732093750
-179.66,1711604732109375
-203.45,1711604732125000
-223.71,1711604732140625
-235.93,1711604732156250
-236.63,1711604732171875
-224.67,1711604732187500
-201.63,1711604732203125
-170.99,1711604732218750
-136.82,1711604732234375
-102.76,1711604732250000
-71.39,1711604732265625
-44.27,1711604732281250
-22.29,1711604732296875
-5.84,1711604732312500
5.13,1711604732328125
11.24,1711604732343750
13.76,1711604732359375
14.33,1711604732375000
14.56,1711604732390625
15.6,1711604732406250
17.86,1711604732421875
21.0,1711604732437500
24.38,1711604732453125
27.4,1711604732468750
29.87,1711604732484375
32.01,1711604732500000
34.26,1711604732515625
36.99,1711604732531250
40.18,1711604732546875
43.39,1711604732562500
45.82,1711604732578125
46.56,1711604732593750
44.97,1711604732609375
41.2,1711604732625000
36.47,1711604732640625
32.96,1711604732656250
33.34,1711604732671875
39.71,1711604732687500
52.72,1711604732703125
71.08,1711604732718750
91.89,1711604732734375
111.69,1711604732750000
127.58,1711604732765625
138.14,1711604732781250
143.45,1711604732796875
144.52,1711604732812500
142.54,1711604732828125
138.33,1711604732843750
132.34,1711604732859375
124.88,1711604732875000
116.43,1711604732890625
107.59,1711604732906250
98.7,1711604732921875
89.52,1711604732937500
79.19,1711604732953125
66.6,1711604732968750
50.95,1711604732984375
32.25,1711604733000000
11.51,1711604733015625
-9.53,1711604733031250
-28.97,1711604733046875
-45.4,1711604733062500
-58.31,1711604733078125
-68.25,1711604733093750
-76.51,1711604733109375
-84.69,1711604733125000
-94.16,1711604733140625
-105.49,1711604733156250
-118.19,1711604733171875
-130.64,1711604733187500
-140.41,1711604733203125
-144.83,1711604733218750
-141.9,1711604733234375
-130.8,1711604733250000
-112.3,1711604733265625
-88.58,1711604733281250
-62.67,1711604733296875
-37.73,1711604733312500
-16.39,1711604733328125
-0.26,1711604733343750
10.21,1711604733359375
15.54,1711604733375000
16.86,1711604733390625
15.6,1711604733406250
13.22,1711604733421875
10.91,1711604733437500
9.6,1711604733453125
9.79,1711604733468750
11.57,1711604733484375
14.6,1711604733500000
18.17,1711604733515625
21.38,1711604733531250
23.37,1711604733546875
23.61,1711604733562500
22.22,1711604733578125
20.09,1711604733593750
18.73,1711604733609375
19.84,1711604733625000
24.68,1711604733640625
33.57,1711604733656250
45.62,1711604733671875
59.08,1711604733687500
71.87,1711604733703125
82.11,1711604733718750
88.59,1711604733734375
90.78,1711604733750000
88.6,1711604733765625
82.29,1711604733781250
72.21,1711604733796875
59.12,1711604733812500
44.09,1711604733828125
28.41,1711604733843750
13.27,1711604733859375
-0.71,1711604733875000
-13.64,1711604733890625
-26.11,1711604733906250
-38.64,1711604733921875
-51.32,1711604733937500
-63.62,1711604733953125
-74.7,1711604733968750
-83.83,1711604733984375
-90.75,1711604734000000
-95.73,1711604734015625
-99.32,1711604734031250
-102.1,1711604734046875
-104.6,1711604734062500
-107.24,1711604734078125
-110.38,1711604734093750
-114.25,1711604734109375
-118.86,1711604734125000
-123.97,1711604734140625
-129.22,1711604734156250
-134.46,1711604734171875
-139.69,1711604734187500
-144.9,1711604734203125
-149.55,1711604734218750
-152.3,1711604734234375
-151.02,1711604734250000
-143.48,1711604734265625
-128.07,1711604734281250
-104.48,1711604734296875
-73.87,1711604734312500
-38.52,1711604734328125
-1.23,1711604734343750
35.21,1711604734359375
68.58,1711604734375000
97.29,1711604734390625
120.59,1711604734406250
138.55,1711604734421875
151.88,1711604734437500
161.58,1711604734453125
168.54,1711604734468750
173.03,1711604734484375
174.43,1711604734500000
171.27,1711604734515625
161.81,1711604734531250
144.8,1711604734546875
120.33,1711604734562500
90.18,1711604734578125
57.6,1711604734593750
26.44,1711604734609375
0.02,1711604734625000
-19.58,1711604734640625
-31.73,1711604734656250
-36.88,1711604734671875
-35.8,1711604734687500
-28.98,1711604734703125
-16.42,1711604734718750
2.08,1711604734734375
26.39,1711604734750000
55.29,1711604734765625
86.23,1711604734781250
115.53,1711604734796875
139.01,1711604734812500
153.17,1711604734828125
156.11,1711604734843750
148.15,1711604734859375
131.64,1711604734875000
109.97,1711604734890625
86.38,1711604734906250
62.9,1711604734921875
40.33,1711604734937500
18.83,1711604734953125
-1.16,1711604734968750
-18.46,1711604734984375
-31.46,1711604735000000
-38.94,1711604735015625
-40.86,1711604735031250
-38.7,1711604735046875
-35.0,1711604735062500
-32.71,1711604735078125
-34.32,1711604735093750
-41.37,1711604735109375
-54.35,1711604735125000
-72.82,1711604735140625
-95.68,1711604735156250
-121.49,1711604735171875
-148.76,1711604735187500
-176.12,1711604735203125
-202.38,1711604735218750
-226.42,1711604735234375
-246.96,1711604735250000
-262.78,1711604735265625
-273.07,1711604735281250
-277.97,1711604735296875
-278.81,1711604735312500
-277.57,1711604735328125
-275.89,1711604735343750
-274.11,1711604735359375
-271.23,1711604735375000
-265.68,1711604735390625
-256.71,1711604735406250
-245.4,1711604735421875
-234.59,1711604735437500
-227.86,1711604735453125
-227.75,1711604735468750
-234.43,1711604735484375
-245.32,1711604735500000
-256.03,1711604735515625
-262.03,1711604735531250
-260.16,1711604735546875
-249.41,1711604735562500
-230.62,1711604735578125
-205.37,1711604735593750
-174.7,1711604735609375
-138.54,1711604735625000
-95.94,1711604735640625
-46.0,1711604735656250
11.13,1711604735671875
73.72,1711604735687500
138.56,1711604735703125
201.59,1711604735718750
258.73,1711604735734375
306.43,1711604735750000
342.19,1711604735765625
364.82,1711604735781250
374.75,1711604735796875
374.17,1711604735812500
366.46,1711604735828125
355.32,1711604735843750
343.72,1711604735859375
333.11,1711604735875000
323.43,1711604735890625
313.62,1711604735906250
302.39,1711604735921875
288.9,1711604735937500
272.86,1711604735953125
254.51,1711604735968750
234.34,1711604735984375
213.11,1711604736000000
191.69,1711604736015625
170.83,1711604736031250
150.83,1711604736046875
131.39,1711604736062500
111.61,1711604736078125
90.5,1711604736093750
67.67,1711604736109375
43.72,1711604736125000
20.08,1711604736140625
-1.5,1711604736156250
-19.72,1711604736171875
-34.21,1711604736187500
-45.53,1711604736203125
-54.67,1711604736218750
-62.43,1711604736234375
-68.96,1711604736250000
-73.64,1711604736265625
-75.49,1711604736281250
-73.72,1711604736296875
-68.13,1711604736312500
-59.26,1711604736328125
-48.17,1711604736343750
-36.04,1711604736359375
-23.77,1711604736375000
-11.83,1711604736390625
-0.42,1711604736406250
10.25,1711604736421875
19.81,1711604736437500
27.69,1711604736453125
33.48,1711604736468750
37.16,1711604736484375
39.33,1711604736500000
41.0,1711604736515625
43.24,1711604736531250
46.67,1711604736546875
51.37,1711604736562500
56.82,1711604736578125
62.26,1711604736593750
67.11,1711604736609375
71.16,1711604736625000
74.69,1711604736640625
78.02,1711604736656250
81.28,1711604736671875
84.15,1711604736687500
85.83,1711604736703125
85.32,1711604736718750
81.72,1711604736734375
74.59,1711604736750000
64.05,1711604736765625
50.92,1711604736781250
36.69,1711604736796875
23.3,1711604736812500
12.85,1711604736828125
7.0,1711604736843750
6.44,1711604736859375
10.66,1711604736875000
18.04,1711604736890625
26.4,1711604736906250
33.77,1711604736921875
38.95,1711604736937500
41.62,1711604736953125
42.21,1711604736968750
41.26,1711604736984375
39.17,1711604737000000
35.96,1711604737015625
31.54,1711604737031250
25.94,1711604737046875
19.55,1711604737062500
12.99,1711604737078125
6.94,1711604737093750
1.78,1711604737109375
-2.52,1711604737125000
-6.34,1711604737140625
-10.1,1711604737156250
-14.08,1711604737171875
-18.29,1711604737187500
-22.59,1711604737203125
-26.93,1711604737218750
-31.61,1711604737234375
-37.24,1711604737250000
-44.65,1711604737265625
-54.47,1711604737281250
-66.84,1711604737296875
-81.25,1711604737312500
-96.61,1711604737328125
-111.41,1711604737343750
-123.97,1711604737359375
-132.81,1711604737375000
-136.83,1711604737390625
-135.55,1711604737406250
-129.19,1711604737421875
-118.56,1711604737437500
-104.89,1711604737453125
-89.42,1711604737468750
-73.19,1711604737484375
-56.93,1711604737500000
-41.22,1711604737515625
-26.71,1711604737531250
-14.2,1711604737546875
-4.63,1711604737562500
1.27,1711604737578125
3.33,1711604737593750
2.12,1711604737609375
-1.12,1711604737625000
-5.0,1711604737640625
-8.37,1711604737656250
-10.73,1711604737671875
-12.25,1711604737687500
-13.55,1711604737703125
-15.33,1711604737718750
-17.98,1711604737734375
-21.5,1711604737750000
-25.47,1711604737765625
-29.38,1711604737781250
-32.81,1711604737796875
-35.7,1711604737812500
-38.34,1711604737828125
-41.24,1711604737843750
-45.0,1711604737859375
-50.05,1711604737875000
-56.59,1711604737890625
-64.36,1711604737906250
-72.6,1711604737921875
-80.0,1711604737937500
-84.92,1711604737953125
-85.66,1711604737968750
-81.01,1711604737984375
-70.62,1711604738000000
-55.14,1711604738015625
-36.15,1711604738031250
-15.71,1711604738046875
4.09,1711604738062500
21.55,1711604738078125
35.47,1711604738093750
45.3,1711604738109375
50.96,1711604738125000
52.83,1711604738140625
51.59,1711604738156250
48.21,1711604738171875
43.85,1711604738187500
39.51,1711604738203125
35.94,1711604738218750
33.48,1711604738234375
32.07,1711604738250000
31.27,1711604738265625
30.53,1711604738281250
29.43,1711604738296875
27.79,1711604738312500
25.73,1711604738328125
23.47,1711604738343750
21.24,1711604738359375
19.0,1711604738375000
16.39,1711604738390625
12.82,1711604738406250
7.62,1711604738421875
0.38,1711604738437500
-8.82,1711604738453125
-19.13,1711604738468750
-29.12,1711604738484375
-37.0,1711604738500000
-41.15,1711604738515625
-40.51,1711604738531250
-34.89,1711604738546875
-25.09,1711604738562500
-12.54,1711604738578125
1.03,1711604738593750
14.08,1711604738609375
25.38,1711604738625000
34.15,1711604738640625
39.93,1711604738656250
42.45,1711604738671875
41.76,1711604738687500
38.17,1711604738703125
32.47,1711604738718750
25.7,1711604738734375
18.96,1711604738750000
13.09,1711604738765625
8.34,1711604738781250
4.49,1711604738796875
0.97,1711604738812500
-2.71,1711604738828125
-6.77,1711604738843750
-11.03,1711604738859375
-15.14,1711604738875000
-18.8,1711604738890625
-21.98,1711604738906250
-24.93,1711604738921875
-28.11,1711604738937500
-32.05,1711604738953125
-37.22,1711604738968750
-43.88,1711604738984375
-51.9,1711604739000000
-60.78,1711604739015625
-69.39,1711604739031250
-76.17,1711604739046875
-79.41,1711604739062500
-77.7,1711604739078125
-70.32,1711604739093750
-57.48,1711604739109375
-40.3,1711604739125000
-20.49,1711604739140625
-0.04,1711604739156250
19.14,1711604739171875
35.48,1711604739187500
47.77,1711604739203125
55.3,1711604739218750
57.88,1711604739234375
55.87,1711604739250000
50.2,1711604739265625
42.17,1711604739281250
33.17,1711604739296875
24.48,1711604739312500
16.93,1711604739328125
10.84,1711604739343750
5.96,1711604739359375
1.75,1711604739375000
-2.45,1711604739390625
-7.07,1711604739406250
-12.16,1711604739421875
-17.48,1711604739437500
-22.61,1711604739453125
-27.29,1711604739468750
-31.6,1711604739484375
-36.02,1711604739500000
-41.35,1711604739515625
-48.39,1711604739531250
-57.58,1711604739546875
-68.7,1711604739562500
-80.7,1711604739578125
-91.82,1711604739593750
-99.93,1711604739609375
-103.14,1711604739625000
-100.26,1711604739640625
-91.14,1711604739656250
-76.64,1711604739671875
-58.47,1711604739687500
-38.61,1711604739703125
-19.0,1711604739718750
-1.24,1711604739734375
13.43,1711604739750000
24.29,1711604739765625
31.0,1711604739781250
33.64,1711604739796875
32.78,1711604739812500
29.28,1711604739828125
24.27,1711604739843750
18.85,1711604739859375
13.94,1711604739875000
10.0,1711604739890625
7.09,1711604739906250
4.96,1711604739921875
3.23,1711604739937500
1.63,1711604739953125
0.01,1711604739968750
-1.59,1711604739984375
-3.16,1711604740000000
-4.76,1711604740015625
-6.59,1711604740031250
-8.95,1711604740046875
-12.17,1711604740062500
-16.54,1711604740078125
-22.27,1711604740093750
-29.39,1711604740109375
-37.56,1711604740125000
-46.01,1711604740140625
-53.43,1711604740156250
-58.16,1711604740171875
-58.42,1711604740187500
-52.9,1711604740203125
-41.05,1711604740218750
-23.46,1711604740234375
-1.79,1711604740250000
21.59,1711604740265625
44.05,1711604740281250
63.28,1711604740296875
77.63,1711604740312500
86.36,1711604740328125
89.69,1711604740343750
88.64,1711604740359375
84.87,1711604740375000
80.46,1711604740390625
77.48,1711604740406250
77.44,1711604740421875
80.93,1711604740437500
87.28,1711604740453125
94.73,1711604740468750
100.93,1711604740484375
103.72,1711604740500000
101.8,1711604740515625
95.02,1711604740531250
84.36,1711604740546875
71.35,1711604740562500
57.58,1711604740578125
44.05,1711604740593750
31.01,1711604740609375
17.97,1711604740625000
4.25,1711604740640625
-10.45,1711604740656250
-25.62,1711604740671875
-39.72,1711604740687500
-50.64,1711604740703125
-56.32,1711604740718750
-55.49,1711604740734375
-48.04,1711604740750000
-34.91,1711604740765625
-17.61,1711604740781250
2.31,1711604740796875
23.51,1711604740812500
44.82,1711604740828125
64.92,1711604740843750
82.21,1711604740859375
94.86,1711604740875000
101.47,1711604740890625
101.48,1711604740906250
95.54,1711604740921875
85.25,1711604740937500
72.72,1711604740953125
59.88,1711604740968750
48.06,1711604740984375
37.89,1711604741000000
29.42,1711604741015625
22.48,1711604741031250
16.81,1711604741046875
12.12,1711604741062500
8.13,1711604741078125
4.44,1711604741093750
0.59,1711604741109375
-3.98,1711604741125000
-9.75,1711604741140625
-17.11,1711604741156250
-26.2,1711604741171875
-36.68,1711604741187500
-47.74,1711604741203125
-57.9,1711604741218750
-65.4,1711604741234375
-68.52,1711604741250000
-66.24,1711604741265625
-58.53,1711604741281250
-46.61,1711604741296875
-32.43,1711604741312500
-18.19,1711604741328125
-5.64,1711604741343750
4.18,1711604741359375
10.92,1711604741375000
14.63,1711604741390625
15.41,1711604741406250
13.45,1711604741421875
8.97,1711604741437500
2.59,1711604741453125
-4.68,1711604741468750
-11.59,1711604741484375
-17.02,1711604741500000
-20.36,1711604741515625
-21.64,1711604741531250
-21.57,1711604741546875
-21.24,1711604741562500
-21.65,1711604741578125
-23.42,1711604741593750
-26.64,1711604741609375
-30.88,1711604741625000
-35.44,1711604741640625
-39.67,1711604741656250
-43.3,1711604741671875
-46.49,1711604741687500
-49.75,1711604741703125
-53.66,1711604741718750
-58.49,1711604741734375
-63.96,1711604741750000
-69.07,1711604741765625
-72.36,1711604741781250
-72.28,1711604741796875
-67.68,1711604741812500
-58.34,1711604741828125
-45.29,1711604741843750
-30.31,1711604741859375
-15.2,1711604741875000
-1.4,1711604741890625
10.2,1711604741906250
19.17,1711604741921875
25.35,1711604741937500
28.72,1711604741953125
29.18,1711604741968750
26.53,1711604741984375
21.01,1711604742000000
13.64,1711604742015625
5.96,1711604742031250
-0.5,1711604742046875
-4.71,1711604742062500
-6.54,1711604742078125
-6.58,1711604742093750
-5.91,1711604742109375
-6.27,1711604742125000
-8.7,1711604742140625
-13.07,1711604742156250
-18.39,1711604742171875
-23.57,1711604742187500
-28.14,1711604742203125
-32.28,1711604742218750
-36.56,1711604742234375
-41.83,1711604742250000
-50.63,1711604742265625
-64.18,1711604742281250
-81.45,1711604742296875
-99.39,1711604742312500
-114.62,1711604742328125
-124.6,1711604742343750
-127.99,1711604742359375
-124.37,1711604742375000
-114.85,1711604742390625
-105.22,1711604742406250
-100.01,1711604742421875
-100.2,1711604742437500
-103.56,1711604742453125
-107.48,1711604742468750
-110.88,1711604742484375
-114.15,1711604742500000
-117.79,1711604742515625
-123.08,1711604742531250
-136.75,1711604742546875
-162.03,1711604742562500
-195.99,1711604742578125
-231.22,1711604742593750
-261.0,1711604742609375
-282.59,1711604742625000
-296.63,1711604742640625
-304.79,1711604742656250
-310.54,1711604742671875
-324.94,1711604742687500
-355.05,1711604742703125
-400.01,1711604742718750
-452.31,1711604742734375
-503.66,1711604742750000
-548.83,1711604742765625
-585.57,1711604742781250
-612.73,1711604742796875
-582.05,1711604742812500
-475.07,1711604742828125
-313.89,1711604742843750
-146.45,1711604742859375
-9.61,1711604742875000
86.28,1711604742890625
148.39,1711604742906250
181.73,1711604742921875
201.68,1711604742937500
215.85,1711604742953125
219.47,1711604742968750
209.34,1711604742984375
189.05,1711604743000000
167.77,1711604743015625
154.24,1711604743031250
151.08,1711604743046875
156.43,1711604743062500
167.53,1711604743078125
179.79,1711604743093750
184.07,1711604743109375
175.56,1711604743125000
156.49,1711604743140625
134.06,1711604743156250
115.12,1711604743171875
102.75,1711604743187500
96.85,1711604743203125
96.57,1711604743218750
99.42,1711604743234375
99.77,1711604743250000
94.36,1711604743265625
83.86,1711604743281250
71.74,1711604743296875
61.21,1711604743312500
53.45,1711604743328125
48.23,1711604743343750
45.35,1711604743359375
43.82,1711604743375000
41.1,1711604743390625
35.73,1711604743406250
28.15,1711604743421875
20.33,1711604743437500
14.5,1711604743453125
12.06,1711604743468750
13.65,1711604743484375
19.44,1711604743500000
28.57,1711604743515625
39.12,1711604743531250
49.4,1711604743546875
58.62,1711604743562500
66.95,1711604743578125
75.13,1711604743593750
83.94,1711604743609375
94.07,1711604743625000
106.0,1711604743640625
119.71,1711604743656250
134.78,1711604743671875
150.65,1711604743687500
166.74,1711604743703125
182.66,1711604743718750
198.36,1711604743734375
214.06,1711604743750000
230.16,1711604743765625
247.29,1711604743781250
266.34,1711604743796875
288.32,1711604743812500
313.77,1711604743828125
341.98,1711604743843750
370.3,1711604743859375
394.29,1711604743875000
408.81,1711604743890625
409.78,1711604743906250
395.79,1711604743921875
368.64,1711604743937500
332.6,1711604743953125
292.79,1711604743968750
253.57,1711604743984375
217.74,1711604744000000
186.73,1711604744015625
161.26,1711604744031250
141.88,1711604744046875
128.82,1711604744062500
121.64,1711604744078125
118.8,1711604744093750
117.9,1711604744109375
116.36,1711604744125000
112.27,1711604744140625
104.87,1711604744156250
94.44,1711604744171875
82.03,1711604744187500
68.77,1711604744203125
55.55,1711604744218750
42.88,1711604744234375
30.99,1711604744250000
19.98,1711604744265625
9.89,1711604744281250
0.85,1711604744296875
-7.01,1711604744312500
-13.58,1711604744328125
-18.86,1711604744343750
-23.0,1711604744359375
-26.31,1711604744375000
-29.27,1711604744390625
-32.35,1711604744406250
-35.99,1711604744421875
-40.36,1711604744437500
-45.46,1711604744453125
-51.11,1711604744468750
-57.12,1711604744484375
-63.4,1711604744500000
-69.97,1711604744515625
-76.81,1711604744531250
-83.64,1711604744546875
-89.8,1711604744562500
-94.21,1711604744578125
-95.65,1711604744593750
-93.21,1711604744609375
-86.6,1711604744625000
-76.4,1711604744640625
-63.92,1711604744656250
-50.81,1711604744671875
-38.74,1711604744687500
-29.02,1711604744703125
-22.52,1711604744718750
-19.65,1711604744734375
-20.45,1711604744750000
-24.59,1711604744765625
-31.37,1711604744781250
-39.82,1711604744796875
-48.76,1711604744812500
-57.22,1711604744828125
-64.69,1711604744843750
-71.29,1711604744859375
-77.69,1711604744875000
-84.7,1711604744890625
-92.83,1711604744906250
-102.02,1711604744921875
-111.74,1711604744937500
-121.19,1711604744953125
-129.79,1711604744968750
-137.5,1711604744984375
-144.69,1711604745000000
-152.21,1711604745015625
-161.15,1711604745031250
-172.78,1711604745046875
-188.21,1711604745062500
-207.7,1711604745078125
-230.02,1711604745093750
-252.0,1711604745109375
-269.09,1711604745125000
-276.64,1711604745140625
-271.67,1711604745156250
-254.18,1711604745171875
-227.13,1711604745187500
-195.2,1711604745203125
-162.83,1711604745218750
-132.69,1711604745234375
-105.2,1711604745250000
-79.37,1711604745265625
-54.06,1711604745281250
-29.03,1711604745296875
-4.98,1711604745312500
17.0,1711604745328125
36.29,1711604745343750
53.12,1711604745359375
68.24,1711604745375000
82.33,1711604745390625
95.46,1711604745406250
107.05,1711604745421875
116.2,1711604745437500
122.4,1711604745453125
125.91,1711604745468750
127.64,1711604745484375
128.7,1711604745500000
129.72,1711604745515625
130.52,1711604745531250
130.13,1711604745546875
127.31,1711604745562500
121.07,1711604745578125
111.18,1711604745593750
98.23,1711604745609375
83.3,1711604745625000
67.58,1711604745640625
51.89,1711604745656250
36.53,1711604745671875
21.38,1711604745687500
6.27,1711604745703125
-8.62,1711604745718750
-22.49,1711604745734375
-33.84,1711604745750000
-40.87,1711604745765625
-42.07,1711604745781250
-36.84,1711604745796875
-25.92,1711604745812500
-11.31,1711604745828125
4.25,1711604745843750
18.09,1711604745859375
28.35,1711604745875000
34.31,1711604745890625
36.23,1711604745906250
34.94,1711604745921875
31.26,1711604745937500
25.82,1711604745953125
19.05,1711604745968750
11.47,1711604745984375
3.82,1711604746000000
-2.92,1711604746015625
-7.81,1711604746031250
-10.28,1711604746046875
-10.32,1711604746062500
-8.44,1711604746078125
-5.38,1711604746093750
-1.82,1711604746109375
1.81,1711604746125000
5.26,1711604746140625
8.38,1711604746156250
10.85,1711604746171875
12.18,1711604746187500
11.72,1711604746203125
8.95,1711604746218750
3.64,1711604746234375
-4.0,1711604746250000
-13.3,1711604746265625
-23.12,1711604746281250
-32.04,1711604746296875
-38.52,1711604746312500
-41.15,1711604746328125
-39.06,1711604746343750
-32.17,1711604746359375
-21.32,1711604746375000
-8.15,1711604746390625
5.36,1711604746406250
17.47,1711604746421875
27.26,1711604746437500
34.89,1711604746453125
41.47,1711604746468750
48.45,1711604746484375
56.92,1711604746500000
67.04,1711604746515625
77.9,1711604746531250
87.94,1711604746546875
95.66,1711604746562500
100.28,1711604746578125
101.98,1711604746593750
101.66,1711604746609375
100.31,1711604746625000
98.47,1711604746640625
96.02,1711604746656250
92.34,1711604746671875
86.78,1711604746687500
78.96,1711604746703125
68.93,1711604746718750
57.07,1711604746734375
43.87,1711604746750000
29.68,1711604746765625
14.7,1711604746781250
-1.11,1711604746796875
-17.93,1711604746812500
-35.94,1711604746828125
-55.08,1711604746843750
-74.8,1711604746859375
-93.9,1711604746875000
-110.38,1711604746890625
-121.92,1711604746906250
-126.18,1711604746921875
-121.5,1711604746937500
-107.33,1711604746953125
-84.36,1711604746968750
-54.57,1711604746984375
-20.88,1711604747000000
13.22,1711604747015625
44.32,1711604747031250
69.6,1711604747046875
87.41,1711604747062500
97.47,1711604747078125
100.86,1711604747093750
99.69,1711604747109375
96.46,1711604747125000
93.61,1711604747140625
92.82,1711604747156250
94.79,1711604747171875
99.01,1711604747187500
103.96,1711604747203125
107.56,1711604747218750
107.87,1711604747234375
103.81,1711604747250000
95.47,1711604747265625
84.1,1711604747281250
71.6,1711604747296875
59.81,1711604747312500
49.92,1711604747328125
42.29,1711604747343750
36.54,1711604747359375
31.85,1711604747375000
27.34,1711604747390625
22.22,1711604747406250
16.04,1711604747421875
8.7,1711604747437500
0.64,1711604747453125
-7.15,1711604747468750
-13.33,1711604747484375
-16.43,1711604747500000
-15.38,1711604747515625
-9.78,1711604747531250
-0.1,1711604747546875
12.45,1711604747562500
26.16,1711604747578125
39.22,1711604747593750
49.92,1711604747609375
56.91,1711604747625000
59.42,1711604747640625
57.42,1711604747656250
51.67,1711604747671875
43.64,1711604747687500
35.19,1711604747703125
28.01,1711604747718750
23.15,1711604747734375
20.75,1711604747750000
20.08,1711604747765625
20.02,1711604747781250
19.5,1711604747796875
17.92,1711604747812500
15.26,1711604747828125
11.93,1711604747843750
8.45,1711604747859375
5.16,1711604747875000
2.14,1711604747890625
-0.76,1711604747906250
-3.82,1711604747921875
-7.32,1711604747937500
-11.48,1711604747953125
-16.32,1711604747968750
-21.65,1711604747984375
-26.92,1711604748000000
-31.2,1711604748015625
-33.35,1711604748031250
-32.21,1711604748046875
-27.06,1711604748062500
-17.93,1711604748078125
-5.69,1711604748093750
8.12,1711604748109375
21.68,1711604748125000
33.36,1711604748140625
42.12,1711604748156250
47.61,1711604748171875
50.02,1711604748187500
49.85,1711604748203125
47.61,1711604748218750
43.74,1711604748234375
38.66,1711604748250000
32.88,1711604748265625
27.04,1711604748281250
21.81,1711604748296875
17.63,1711604748312500
14.57,1711604748328125
12.26,1711604748343750
10.09,1711604748359375
7.52,1711604748375000
4.29,1711604748390625
0.54,1711604748406250
-3.37,1711604748421875
-6.99,1711604748437500
-10.07,1711604748453125
-12.62,1711604748468750
-14.88,1711604748484375
-17.29,1711604748500000
-20.28,1711604748515625
-24.21,1711604748531250
-29.19,1711604748546875
-34.99,1711604748562500
-40.89,1711604748578125
-45.8,1711604748593750
-48.54,1711604748609375
-48.13,1711604748625000
-44.27,1711604748640625
-37.34,1711604748656250
-28.38,1711604748671875
-18.63,1711604748687500
-9.19,1711604748703125
-0.78,1711604748718750
6.21,1711604748734375
11.57,1711604748750000
15.14,1711604748765625
16.77,1711604748781250
16.53,1711604748796875
14.77,1711604748812500
12.17,1711604748828125
9.55,1711604748843750
7.6,1711604748859375
6.64,1711604748875000
6.64,1711604748890625
7.29,1711604748906250
8.13,1711604748921875
8.76,1711604748937500
8.76,1711604748953125
7.83,1711604748968750
5.75,1711604748984375
2.53,1711604749000000
-1.63,1711604749015625
-6.34,1711604749031250
-11.23,1711604749046875
-16.12,1711604749062500
-21.06,1711604749078125
-26.38,1711604749093750
-32.4,1711604749109375
-39.2,1711604749125000
-46.39,1711604749140625
-53.02,1711604749156250
-57.76,1711604749171875
-59.21,1711604749187500
-56.41,1711604749203125
-49.12,1711604749218750
-37.93,1711604749234375
-24.05,1711604749250000
-8.91,1711604749265625
6.2,1711604749281250
20.35,1711604749296875
32.88,1711604749312500
43.24,1711604749328125
50.85,1711604749343750
55.17,1711604749359375
55.9,1711604749375000
53.25,1711604749390625
47.96,1711604749406250
41.16,1711604749421875
33.97,1711604749437500
27.17,1711604749453125
21.04,1711604749468750
15.49,1711604749484375
10.3,1711604749500000
5.37,1711604749515625
0.86,1711604749531250
-2.93,1711604749546875
-5.76,1711604749562500
-7.64,1711604749578125
-8.89,1711604749593750
-10.14,1711604749609375
-12.15,1711604749625000
-15.58,1711604749640625
-20.97,1711604749656250
-28.52,1711604749671875
-38.05,1711604749687500
-48.9,1711604749703125
-59.89,1711604749718750
-69.36,1711604749734375
-75.52,1711604749750000
-76.84,1711604749765625
-72.54,1711604749781250
-62.81,1711604749796875
-48.83,1711604749812500
-32.43,1711604749828125
-15.56,1711604749843750
0.04,1711604749859375
13.14,1711604749875000
22.93,1711604749890625
29.03,1711604749906250
31.36,1711604749921875
30.18,1711604749937500
26.16,1711604749953125
20.35,1711604749968750
13.99,1711604749984375
8.2,1711604750000000
3.7,1711604750015625
0.62,1711604750031250
-1.4,1711604750046875
-2.93,1711604750062500
-4.49,1711604750078125
-6.32,1711604750093750
-8.46,1711604750109375
-10.79,1711604750125000
-13.24,1711604750140625
-15.93,1711604750156250
-19.06,1711604750171875
-22.85,1711604750187500
-27.37,1711604750203125
-32.52,1711604750218750
-38.06,1711604750234375
-43.83,1711604750250000
-49.73,1711604750265625
-55.81,1711604750281250
-62.0,1711604750296875
-67.99,1711604750312500
-73.14,1711604750328125
-76.61,1711604750343750
-77.65,1711604750359375
-75.76,1711604750375000
-70.81,1711604750390625
-62.91,1711604750406250
-52.25,1711604750421875
-39.04,1711604750437500
-23.65,1711604750453125
-6.9,1711604750468750
9.87,1711604750484375
24.93,1711604750500000
36.58,1711604750515625
43.64,1711604750531250
45.82,1711604750546875
43.72,1711604750562500
38.54,1711604750578125
31.7,1711604750593750
24.45,1711604750609375
17.68,1711604750625000
11.85,1711604750640625
7.13,1711604750656250
3.42,1711604750671875
0.51,1711604750687500
-1.87,1711604750703125
-3.99,1711604750718750
-6.09,1711604750734375
-8.32,1711604750750000
-10.79,1711604750765625
-13.53,1711604750781250
-16.53,1711604750796875
-19.86,1711604750812500
-23.57,1711604750828125
-27.77,1711604750843750
-32.53,1711604750859375
-37.69,1711604750875000
-42.77,1711604750890625
-46.89,1711604750906250
-49.0,1711604750921875
-48.11,1711604750937500
-43.8,1711604750953125
-36.35,1711604750968750
-26.78,1711604750984375
-16.5,1711604751000000
-6.85,1711604751015625
1.27,1711604751031250
7.49,1711604751046875
11.84,1711604751062500
14.46,1711604751078125
15.49,1711604751093750
15.0,1711604751109375
13.15,1711604751125000
10.29,1711604751140625
7.0,1711604751156250
3.94,1711604751171875
1.63,1711604751187500
0.23,1711604751203125
-0.41,1711604751218750
-0.75,1711604751234375
-1.22,1711604751250000
-2.17,1711604751265625
-3.69,1711604751281250
-5.66,1711604751296875
-7.82,1711604751312500
-9.89,1711604751328125
-11.67,1711604751343750
-13.15,1711604751359375
-14.53,1711604751375000
-16.16,1711604751390625
-18.47,1711604751406250
-21.78,1711604751421875
-26.09,1711604751437500
-30.94,1711604751453125
-35.38,1711604751468750
-38.16,1711604751484375
-38.1,1711604751500000
-34.5,1711604751515625
-27.39,1711604751531250
-17.64,1711604751546875
-6.58,1711604751562500
4.33,1711604751578125
13.95,1711604751593750
21.54,1711604751609375
26.78,1711604751625000
29.55,1711604751640625
29.89,1711604751656250
27.98,1711604751671875
24.19,1711604751687500
19.18,1711604751703125
13.82,1711604751718750
8.94,1711604751734375
5.16,1711604751750000
2.7,1711604751765625
1.36,1711604751781250
0.64,1711604751796875
-0.0,1711604751812500
-0.98,1711604751828125
-2.41,1711604751843750
-4.16,1711604751859375
-5.92,1711604751875000
-7.46,1711604751890625
-8.7,1711604751906250
-9.82,1711604751921875
-11.23,1711604751937500
-13.41,1711604751953125
-16.77,1711604751968750
-21.51,1711604751984375
-27.37,1711604752000000
-33.57,1711604752015625
-38.85,1711604752031250
-41.75,1711604752046875
-41.04,1711604752062500
-36.22,1711604752078125
-27.71,1711604752093750
-16.8,1711604752109375
-5.14,1711604752125000
5.73,1711604752140625
14.77,1711604752156250
21.5,1711604752171875
25.84,1711604752187500
27.89,1711604752203125
27.79,1711604752218750
25.81,1711604752234375
22.4,1711604752250000
18.25,1711604752265625
14.15,1711604752281250
10.77,1711604752296875
8.42,1711604752312500
7.01,1711604752328125
6.07,1711604752343750
5.03,1711604752359375
3.41,1711604752375000
1.06,1711604752390625
-1.85,1711604752406250
-4.91,1711604752421875
-7.72,1711604752437500
-10.11,1711604752453125
-12.2,1711604752468750
-14.46,1711604752484375
-17.48,1711604752500000
-21.75,1711604752515625
-27.43,1711604752531250
-34.25,1711604752546875
-41.36,1711604752562500
-47.47,1711604752578125
-51.1,1711604752593750
-51.04,1711604752609375
-46.65,1711604752625000
-38.25,1711604752640625
-26.99,1711604752656250
-14.53,1711604752671875
-2.53,1711604752687500
7.8,1711604752703125
15.86,1711604752718750
21.51,1711604752734375
24.86,1711604752750000
26.03,1711604752765625
25.2,1711604752781250
22.71,1711604752796875
19.1,1711604752812500
15.1,1711604752828125
11.37,1711604752843750
8.34,1711604752859375
6.05,1711604752875000
4.29,1711604752890625
2.69,1711604752906250
0.98,1711604752921875
-0.95,1711604752937500
-3.12,1711604752953125
-5.46,1711604752968750
-7.9,1711604752984375
-10.37,1711604753000000
-12.88,1711604753015625
-15.49,1711604753031250
-18.42,1711604753046875
-22.0,1711604753062500
-26.58,1711604753078125
-32.43,1711604753093750
-39.38,1711604753109375
-46.76,1711604753125000
-53.36,1711604753140625
-57.61,1711604753156250
-58.12,1711604753171875
-54.08,1711604753187500
-45.65,1711604753203125
-33.9,1711604753218750
-20.52,1711604753234375
-7.22,1711604753250000
4.65,1711604753265625
14.37,1711604753281250
21.71,1711604753296875
26.73,1711604753312500
29.5,1711604753328125
30.12,1711604753343750
28.77,1711604753359375
25.85,1711604753375000
22.07,1711604753390625
18.25,1711604753406250
15.12,1711604753421875
13.08,1711604753437500
12.08,1711604753453125
11.69,1711604753468750
11.36,1711604753484375
10.64,1711604753500000
9.33,1711604753515625
7.55,1711604753531250
5.61,1711604753546875
3.77,1711604753562500
2.12,1711604753578125
0.49,1711604753593750
-1.48,1711604753609375
-4.21,1711604753625000
-8.03,1711604753640625
-13.14,1711604753656250
-19.46,1711604753671875
-26.63,1711604753687500
-33.85,1711604753703125
-39.98,1711604753718750
-43.61,1711604753734375
-43.53,1711604753750000
-39.07,1711604753765625
-30.46,1711604753781250
-18.8,1711604753796875
-5.7,1711604753812500
7.21,1711604753828125
18.69,1711604753843750
28.04,1711604753859375
35.04,1711604753875000
39.66,1711604753890625
41.97,1711604753906250
42.06,1711604753921875
40.21,1711604753937500
36.91,1711604753953125
32.9,1711604753968750
28.96,1711604753984375
25.72,1711604754000000
23.49,1711604754015625
22.16,1711604754031250
21.42,1711604754046875
20.78,1711604754062500
19.89,1711604754078125
18.58,1711604754093750
16.89,1711604754109375
15.0,1711604754125000
13.03,1711604754140625
11.0,1711604754156250
8.69,1711604754171875
5.76,1711604754187500
1.78,1711604754203125
-3.53,1711604754218750
-10.18,1711604754234375
-17.74,1711604754250000
-25.32,1711604754265625
-31.64,1711604754281250
-35.3,1711604754296875
-35.16,1711604754312500
-30.73,1711604754328125
-22.36,1711604754343750
-11.2,1711604754359375
1.16,1711604754375000
13.07,1711604754390625
23.3,1711604754406250
31.11,1711604754421875
36.27,1711604754437500
38.85,1711604754453125
39.1,1711604754468750
37.32,1711604754484375
33.93,1711604754500000
29.54,1711604754515625
24.91,1711604754531250
20.8,1711604754546875
17.75,1711604754562500
15.89,1711604754578125
14.92,1711604754593750
14.2,1711604754609375
13.15,1711604754625000
11.39,1711604754640625
8.99,1711604754656250
6.29,1711604754671875
3.66,1711604754687500
1.31,1711604754703125
-0.83,1711604754718750
-3.09,1711604754734375
-5.88,1711604754750000
-9.59,1711604754765625
-14.52,1711604754781250
-20.71,1711604754796875
-27.91,1711604754812500
-35.36,1711604754828125
-41.84,1711604754843750
-45.84,1711604754859375
-46.03,1711604754875000
-41.74,1711604754890625
-33.24,1711604754906250
-21.69,1711604754921875
-8.78,1711604754937500
3.85,1711604754953125
14.89,1711604754968750
23.64,1711604754984375
29.8,1711604755000000
33.34,1711604755015625
34.38,1711604755031250
33.2,1711604755046875
30.21,1711604755062500
26.06,1711604755078125
21.54,1711604755093750
17.41,1711604755109375
14.24,1711604755125000
12.24,1711604755140625
11.23,1711604755156250
10.72,1711604755171875
10.15,1711604755187500
9.08,1711604755203125
7.41,1711604755218750
5.37,1711604755234375
3.4,1711604755250000
1.83,1711604755265625
0.74,1711604755281250
-0.12,1711604755296875
-1.23,1711604755312500
-3.19,1711604755328125
-6.54,1711604755343750
-11.57,1711604755359375
-18.21,1711604755375000
-25.87,1711604755390625
-33.46,1711604755406250
-39.45,1711604755421875
-42.36,1711604755437500
-41.07,1711604755453125
-35.32,1711604755468750
-25.78,1711604755484375
-13.81,1711604755500000
-1.09,1711604755515625
10.94,1711604755531250
21.28,1711604755546875
29.46,1711604755562500
35.35,1711604755578125
38.99,1711604755593750
40.47,1711604755609375
39.95,1711604755625000
37.74,1711604755640625
34.32,1711604755656250
30.36,1711604755671875
26.53,1711604755687500
23.42,1711604755703125
21.32,1711604755718750
20.17,1711604755734375
19.6,1711604755750000
19.09,1711604755765625
18.17,1711604755781250
16.6,1711604755796875
14.45,1711604755812500
11.97,1711604755828125
9.49,1711604755843750
7.12,1711604755859375
4.79,1711604755875000
2.19,1711604755890625
-1.07,1711604755906250
-5.37,1711604755921875
-10.98,1711604755937500
-17.86,1711604755953125
-25.62,1711604755968750
-33.37,1711604755984375
-39.81,1711604756000000
-43.5,1711604756015625
-43.31,1711604756031250
-38.8,1711604756046875
-30.39,1711604756062500
-19.28,1711604756078125
-7.0,1711604756093750
5.01,1711604756109375
15.69,1711604756125000
24.46,1711604756140625
31.09,1711604756156250
35.47,1711604756171875
37.65,1711604756187500
37.76,1711604756203125
36.13,1711604756218750
33.29,1711604756234375
29.88,1711604756250000
26.57,1711604756265625
23.88,1711604756281250
22.04,1711604756296875
21.02,1711604756312500
20.47,1711604756328125
19.92,1711604756343750
18.9,1711604756359375
17.14,1711604756375000
14.63,1711604756390625
11.6,1711604756406250
8.4,1711604756421875
5.33,1711604756437500
2.48,1711604756453125
-0.2,1711604756468750
-2.9,1711604756484375
-5.84,1711604756500000
-9.21,1711604756515625
-13.23,1711604756531250
-18.08,1711604756546875
-23.78,1711604756562500
-30.01,1711604756578125
-35.96,1711604756593750
-40.34,1711604756609375
-41.71,1711604756625000
-39.0,1711604756640625
-31.92,1711604756656250
-21.19,1711604756671875
-8.37,1711604756687500
4.66,1711604756703125
16.21,1711604756718750
25.21,1711604756734375
31.34,1711604756750000
34.83,1711604756765625
36.18,1711604756781250
35.94,1711604756796875
34.55,1711604756812500
32.38,1711604756828125
29.81,1711604756843750
27.2,1711604756859375
24.9,1711604756875000
23.12,1711604756890625
21.88,1711604756906250
21.0,1711604756921875
20.25,1711604756937500
19.42,1711604756953125
18.45,1711604756968750
17.4,1711604756984375
16.35,1711604757000000
15.3,1711604757015625
14.16,1711604757031250
12.75,1711604757046875
10.91,1711604757062500
8.6,1711604757078125
5.82,1711604757093750
2.61,1711604757109375
-0.99,1711604757125000
-5.09,1711604757140625
-9.77,1711604757156250
-14.97,1711604757171875
-20.38,1711604757187500
-25.31,1711604757203125
-28.76,1711604757218750
-29.74,1711604757234375
-27.51,1711604757250000
-21.97,1711604757265625
-13.65,1711604757281250
-3.58,1711604757296875
7.09,1711604757312500
17.44,1711604757328125
26.95,1711604757343750
35.39,1711604757359375
42.57,1711604757375000
48.16,1711604757390625
51.66,1711604757406250
52.63,1711604757421875
50.95,1711604757437500
47.09,1711604757453125
41.95,1711604757468750
36.67,1711604757484375
32.22,1711604757500000
29.16,1711604757515625
27.47,1711604757531250
26.75,1711604757546875
26.34,1711604757562500
25.63,1711604757578125
24.21,1711604757593750
21.87,1711604757609375
18.62,1711604757625000
14.62,1711604757640625
10.02,1711604757656250
5.0,1711604757671875
-0.23,1711604757687500
-5.49,1711604757703125
-10.68,1711604757718750
-15.79,1711604757734375
-20.98,1711604757750000
-26.4,1711604757765625
-31.92,1711604757781250
-36.97,1711604757796875
-40.57,1711604757812500
-41.58,1711604757828125
-39.28,1711604757843750
-33.69,1711604757859375
-25.68,1711604757875000
-16.68,1711604757890625
-8.09,1711604757906250
-0.9,1711604757921875
4.44,1711604757937500
7.91,1711604757953125
9.6,1711604757968750
9.55,1711604757984375
7.81,1711604758000000
4.6,1711604758015625
0.37,1711604758031250
-4.15,1711604758046875
-8.2,1711604758062500
-11.22,1711604758078125
-12.95,1711604758093750
-13.52,1711604758109375
-13.33,1711604758125000
-12.9,1711604758140625
-12.72,1711604758156250
-13.15,1711604758171875
-14.25,1711604758187500
-15.91,1711604758203125
-17.84,1711604758218750
-19.74,1711604758234375
-21.44,1711604758250000
-22.92,1711604758265625
-24.36,1711604758281250
-25.97,1711604758296875
-28.02,1711604758312500
-30.69,1711604758328125
-34.04,1711604758343750
-37.88,1711604758359375
-41.65,1711604758375000
-44.46,1711604758390625
-45.26,1711604758406250
-43.19,1711604758421875
-37.92,1711604758437500
-29.87,1711604758453125
-20.08,1711604758468750
-9.89,1711604758484375
-0.52,1711604758500000
7.22,1711604758515625
13.0,1711604758531250
16.77,1711604758546875
18.58,1711604758562500
18.42,1711604758578125
16.33,1711604758593750
12.49,1711604758609375
7.42,1711604758625000
1.96,1711604758640625
-2.92,1711604758656250
-6.42,1711604758671875
-8.17,1711604758687500
-8.36,1711604758703125
-7.61,1711604758718750
-6.72,1711604758734375
-6.36,1711604758750000
-6.86,1711604758765625
-8.16,1711604758781250
-9.93,1711604758796875
-11.76,1711604758812500
-13.33,1711604758828125
-14.59,1711604758843750
-15.69,1711604758859375
-16.99,1711604758875000
-18.92,1711604758890625
-21.86,1711604758906250
-25.98,1711604758921875
-31.1,1711604758937500
-36.6,1711604758953125
-41.43,1711604758968750
-44.33,1711604758984375
-44.19,1711604759000000
-40.41,1711604759015625
-33.14,1711604759031250
-23.28,1711604759046875
-12.18,1711604759062500
-1.28,1711604759078125
8.26,1711604759093750
15.76,1711604759109375
20.9,1711604759125000
23.65,1711604759140625
24.05,1711604759156250
22.26,1711604759171875
18.63,1711604759187500
13.81,1711604759203125
8.69,1711604759218750
4.23,1711604759234375
1.1,1711604759250000
-0.49,1711604759265625
-0.89,1711604759281250
-0.76,1711604759296875
-0.8,1711604759312500
-1.53,1711604759328125
-3.07,1711604759343750
-5.23,1711604759359375
-7.64,1711604759375000
-9.93,1711604759390625
-11.89,1711604759406250
-13.55,1711604759421875
-15.15,1711604759437500
-17.09,1711604759453125
-19.82,1711604759468750
-23.64,1711604759484375
-28.55,1711604759500000
-34.14,1711604759515625
-39.61,1711604759531250
-43.89,1711604759546875
-45.89,1711604759562500
-44.77,1711604759578125
-40.21,1711604759593750
-32.51,1711604759609375
-22.49,1711604759625000
-11.33,1711604759640625
-0.29,1711604759656250
9.55,1711604759671875
17.45,1711604759687500
22.98,1711604759703125
26.01,1711604759718750
26.61,1711604759734375
25.07,1711604759750000
21.89,1711604759765625
17.69,1711604759781250
13.27,1711604759796875
9.32,1711604759812500
6.36,1711604759828125
4.52,1711604759843750
3.52,1711604759859375
2.81,1711604759875000
1.75,1711604759890625
-0.09,1711604759906250
-2.77,1711604759921875
-5.92,1711604759937500
-9.02,1711604759953125
-11.63,1711604759968750
-13.67,1711604759984375
-15.51,1711604760000000
-17.82,1711604760015625
-21.25,1711604760031250
-26.16,1711604760046875
-32.39,1711604760062500
-39.16,1711604760078125
-45.33,1711604760093750
-49.59,1711604760109375
-50.78,1711604760125000
-48.19,1711604760140625
-41.72,1711604760156250
-31.96,1711604760171875
-20.01,1711604760187500
-7.26,1711604760203125
4.95,1711604760218750
15.55,1711604760234375
23.82,1711604760250000
29.38,1711604760265625
32.06,1711604760281250
31.88,1711604760296875
29.13,1711604760312500
24.42,1711604760328125
18.61,1711604760343750
12.76,1711604760359375
7.78,1711604760375000
4.21,1711604760390625
2.1,1711604760406250
1.05,1711604760421875
0.43,1711604760437500
-0.39,1711604760453125
-1.77,1711604760468750
-3.81,1711604760484375
-6.3,1711604760500000
-8.94,1711604760515625
-11.5,1711604760531250
-13.94,1711604760546875
-16.51,1711604760562500
-19.66,1711604760578125
-23.91,1711604760593750
-29.55,1711604760609375
-36.51,1711604760625000
-44.11,1711604760640625
-51.17,1711604760656250
-56.23,1711604760671875
-57.86,1711604760687500
-55.1,1711604760703125
-47.8,1711604760718750
-36.65,1711604760734375
-23.09,1711604760750000
-8.87,1711604760765625
4.33,1711604760781250
15.27,1711604760796875
23.26,1711604760812500
28.08,1711604760828125
29.81,1711604760843750
28.75,1711604760859375
25.36,1711604760875000
20.26,1711604760890625
14.23,1711604760906250
8.08,1711604760921875
2.49,1711604760937500
-2.21,1711604760953125
-6.07,1711604760968750
-9.43,1711604760984375
-12.76,1711604761000000
-16.42,1711604761015625
-20.65,1711604761031250
-25.47,1711604761046875
-30.86,1711604761062500
-36.8,1711604761078125
-43.34,1711604761093750
-50.53,1711604761109375
-58.46,1711604761125000
-67.18,1711604761140625
-76.73,1711604761156250
-87.19,1711604761171875
-98.59,1711604761187500
-110.81,1711604761203125
-123.43,1711604761218750
-135.59,1711604761234375
-145.98,1711604761250000
-153.21,1711604761265625
-156.27,1711604761281250
-154.9,1711604761296875
-149.85,1711604761312500
-142.63,1711604761328125
-135.04,1711604761343750
-128.68,1711604761359375
-124.88,1711604761375000
-124.77,1711604761390625
-129.51,1711604761406250
-139.82,1711604761421875
-155.08,1711604761437500
-172.44,1711604761453125
-186.84,1711604761468750
-192.05,1711604761484375
-182.85,1711604761500000
-157.0,1711604761515625
-116.25,1711604761531250
-65.83,1711604761546875
-12.68,1711604761562500
36.63,1711604761578125
77.27,1711604761593750
106.65,1711604761609375
124.0,1711604761625000
129.79,1711604761640625
125.42,1711604761656250
113.19,1711604761671875
96.24,1711604761687500
78.07,1711604761703125
61.81,1711604761718750
49.18,1711604761734375
39.95,1711604761750000
32.0,1711604761765625
22.4,1711604761781250
8.98,1711604761796875
-8.22,1711604761812500
-26.66,1711604761828125
-42.43,1711604761843750
-52.31,1711604761859375
-55.62,1711604761875000
-54.63,1711604761890625
-53.33,1711604761906250
-55.09,1711604761921875
-60.63,1711604761937500
-67.54,1711604761953125
-71.38,1711604761968750
-67.86,1711604761984375
-54.65,1711604762000000
-32.11,1711604762015625
-2.74,1711604762031250
30.03,1711604762046875
63.08,1711604762062500
94.2,1711604762078125
122.3,1711604762093750
147.2,1711604762109375
169.42,1711604762125000
190.06,1711604762140625
210.7,1711604762156250
233.23,1711604762171875
259.21,1711604762187500
289.1,1711604762203125
321.57,1711604762218750
353.34,1711604762234375
379.99,1711604762250000
397.45,1711604762265625
403.62,1711604762281250
399.26,1711604762296875
387.49,1711604762312500
372.25,1711604762328125
356.41,1711604762343750
340.72,1711604762359375
324.08,1711604762375000
304.9,1711604762390625
282.56,1711604762406250
257.88,1711604762421875
232.57,1711604762437500
208.14,1711604762453125
184.86,1711604762468750
161.85,1711604762484375
137.66,1711604762500000
111.23,1711604762515625
82.27,1711604762531250
51.2,1711604762546875
18.57,1711604762562500
-15.38,1711604762578125
-50.84,1711604762593750
-88.0,1711604762609375
-126.69,1711604762625000
-166.14,1711604762640625
-205.07,1711604762656250
-241.96,1711604762671875
-275.4,1711604762687500
-304.27,1711604762703125
-327.89,1711604762718750
-346.29,1711604762734375
-360.23,1711604762750000
-371.02,1711604762765625
-379.83,1711604762781250
-387.01,1711604762796875
-391.61,1711604762812500
-391.57,1711604762828125
-384.49,1711604762843750
-368.5,1711604762859375
-343.08,1711604762875000
-309.11,1711604762890625
-268.8,1711604762906250
-225.37,1711604762921875
-182.77,1711604762937500
-145.4,1711604762953125
-117.41,1711604762968750
-101.53,1711604762984375
-97.83,1711604763000000
-103.06,1711604763015625
-111.27,1711604763031250
-115.58,1711604763046875
-110.3,1711604763062500
-92.64,1711604763078125
-63.18,1711604763093750
-25.2,1711604763109375
16.49,1711604763125000
56.86,1711604763140625
91.63,1711604763156250
118.0,1711604763171875
135.02,1711604763187500
143.43,1711604763203125
145.3,1711604763218750
143.28,1711604763234375
140.02,1711604763250000
137.85,1711604763265625
139.14,1711604763281250
146.43,1711604763296875
161.95,1711604763312500
186.62,1711604763328125
218.84,1711604763343750
254.21,1711604763359375
286.45,1711604763375000
309.26,1711604763390625
318.26,1711604763406250
312.02,1711604763421875
292.03,1711604763437500
262.0,1711604763453125
227.03,1711604763468750
192.58,1711604763484375
163.32,1711604763500000
141.57,1711604763515625
126.12,1711604763531250
112.45,1711604763546875
94.72,1711604763562500
68.78,1711604763578125
34.56,1711604763593750
-3.65,1711604763609375
-39.3,1711604763625000
-66.82,1711604763640625
-84.06,1711604763656250
-92.52,1711604763671875
-95.52,1711604763687500
-95.81,1711604763703125
-94.06,1711604763718750
-89.07,1711604763734375
-79.23,1711604763750000
-64.28,1711604763765625
-45.98,1711604763781250
-27.63,1711604763796875
-12.81,1711604763812500
-4.07,1711604763828125
-2.25,1711604763843750
-6.57,1711604763859375
-15.41,1711604763875000
-26.95,1711604763890625
-39.62,1711604763906250
-52.13,1711604763921875
-63.12,1711604763937500
-71.02,1711604763953125
-74.33,1711604763968750
-72.2,1711604763984375
-64.98,1711604764000000
-54.37,1711604764015625
-43.0,1711604764031250
-33.63,1711604764046875
-28.3,1711604764062500
-27.77,1711604764078125
-31.48,1711604764093750
-37.73,1711604764109375
-44.07,1711604764125000
-47.95,1711604764140625
-47.65,1711604764156250
-43.08,1711604764171875
-36.29,1711604764187500
-30.95,1711604764203125
-30.85,1711604764218750
-38.16,1711604764234375
-51.97,1711604764250000
-68.23,1711604764265625
-81.05,1711604764281250
-84.89,1711604764296875
-76.8,1711604764312500
-57.54,1711604764328125
-31.3,1711604764343750
-4.05,1711604764359375
18.53,1711604764375000
32.84,1711604764390625
38.23,1711604764406250
36.64,1711604764421875
31.48,1711604764437500
26.09,1711604764453125
22.57,1711604764468750
21.34,1711604764484375
21.56,1711604764500000
22.1,1711604764515625
22.57,1711604764531250
23.86,1711604764546875
27.74,1711604764562500
35.89,1711604764578125
48.7,1711604764593750
64.69,1711604764609375
80.75,1711604764625000
93.35,1711604764640625
99.82,1711604764656250
99.21,1711604764671875
92.34,1711604764687500
81.02,1711604764703125
67.29,1711604764718750
53.25,1711604764734375
41.28,1711604764750000
34.21,1711604764765625
34.9,1711604764781250
44.81,1711604764796875
62.51,1711604764812500
83.09,1711604764828125
99.29,1711604764843750
104.18,1711604764859375
93.95,1711604764875000
69.29,1711604764890625
34.83,1711604764906250
-3.16,1711604764921875
-39.17,1711604764937500
-69.81,1711604764953125
-93.7,1711604764968750
-110.39,1711604764984375
-119.43,1711604765000000
-120.14,1711604765015625
-112.32,1711604765031250
-96.85,1711604765046875
-76.01,1711604765062500
-53.1,1711604765078125
-31.41,1711604765093750
-13.37,1711604765109375
-0.01,1711604765125000
8.86,1711604765140625
14.02,1711604765156250
16.06,1711604765171875
14.84,1711604765187500
9.33,1711604765203125
-1.89,1711604765218750
-19.82,1711604765234375
-44.24,1711604765250000
-73.28,1711604765265625
-103.68,1711604765281250
-131.5,1711604765296875
-153.15,1711604765312500
-166.11,1711604765328125
-169.24,1711604765343750
-162.57,1711604765359375
-146.72,1711604765375000
-122.47,1711604765390625
-90.76,1711604765406250
-53.16,1711604765421875
-12.44,1711604765437500
27.34,1711604765453125
61.54,1711604765468750
86.25,1711604765484375
99.69,1711604765500000
102.93,1711604765515625
99.39,1711604765531250
93.45,1711604765546875
88.81,1711604765562500
87.44,1711604765578125
89.49,1711604765593750
93.8,1711604765609375
98.86,1711604765625000
103.34,1711604765640625
106.34,1711604765656250
107.33,1711604765671875
106.1,1711604765687500
102.77,1711604765703125
97.73,1711604765718750
91.36,1711604765734375
83.79,1711604765750000
74.8,1711604765765625
63.92,1711604765781250
50.88,1711604765796875
35.97,1711604765812500
20.27,1711604765828125
5.45,1711604765843750
-6.65,1711604765859375
-14.47,1711604765875000
-17.05,1711604765890625
-14.09,1711604765906250
-6.0,1711604765921875
6.21,1711604765937500
20.93,1711604765953125
36.13,1711604765968750
49.67,1711604765984375
59.69,1711604766000000
65.01,1711604766015625
65.45,1711604766031250
61.76,1711604766046875
55.39,1711604766062500
48.01,1711604766078125
41.09,1711604766093750
35.53,1711604766109375
31.54,1711604766125000
28.61,1711604766140625
25.91,1711604766156250
22.62,1711604766171875
18.42,1711604766187500
13.7,1711604766203125
9.6,1711604766218750
7.56,1711604766234375
8.74,1711604766250000
13.49,1711604766265625
20.96,1711604766281250
29.13,1711604766296875
35.03,1711604766312500
35.3,1711604766328125
26.97,1711604766343750
8.51,1711604766359375
-19.4,1711604766375000
-53.44,1711604766390625
-88.22,1711604766406250
-117.63,1711604766421875
-136.72,1711604766437500
-143.09,1711604766453125
-137.24,1711604766468750
-121.91,1711604766484375
-100.65,1711604766500000
-76.58,1711604766515625
-52.0,1711604766531250
-28.63,1711604766546875
-8.26,1711604766562500
6.92,1711604766578125
14.73,1711604766593750
13.72,1711604766609375
3.87,1711604766625000
-13.17,1711604766640625
-34.44,1711604766656250
-56.54,1711604766671875
-76.37,1711604766687500
-91.78,1711604766703125
-101.71,1711604766718750
-105.94,1711604766734375
-104.64,1711604766750000
-97.93,1711604766765625
-85.57,1711604766781250
-66.86,1711604766796875
-40.81,1711604766812500
-6.79,1711604766828125
34.83,1711604766843750
82.15,1711604766859375
131.9,1711604766875000
180.2,1711604766890625
223.62,1711604766906250
260.08,1711604766921875
289.07,1711604766937500
311.28,1711604766953125
327.88,1711604766968750
339.87,1711604766984375
347.62,1711604767000000
350.83,1711604767015625
348.6,1711604767031250
339.5,1711604767046875
321.82,1711604767062500
294.07,1711604767078125
255.7,1711604767093750
208.03,1711604767109375
154.61,1711604767125000
100.82,1711604767140625
52.52,1711604767156250
14.44,1711604767171875
-11.09,1711604767187500
-24.85,1711604767203125
-30.67,1711604767218750
-34.5,1711604767234375
-42.97,1711604767250000
-61.37,1711604767265625
-91.73,1711604767281250
-131.73,1711604767296875
-175.14,1711604767312500
-213.81,1711604767328125
-240.74,1711604767343750
-252.67,1711604767359375
-251.15,1711604767375000
-241.63,1711604767390625
-231.04,1711604767406250
-225.2,1711604767421875
-227.19,1711604767437500
-237.12,1711604767453125
-253.02,1711604767468750
-271.93,1711604767484375
-290.53,1711604767500000
-305.28,1711604767515625
-312.48,1711604767531250
-308.68,1711604767546875
-291.47,1711604767562500
-260.18,1711604767578125
-216.38,1711604767593750
-163.51,1711604767609375
-106.08,1711604767625000
-48.63,1711604767640625
5.05,1711604767656250
52.19,1711604767671875
91.14,1711604767687500
121.13,1711604767703125
142.22,1711604767718750
155.24,1711604767734375
161.7,1711604767750000
163.54,1711604767765625
162.61,1711604767781250
160.29,1711604767796875
157.22,1711604767812500
153.53,1711604767828125
149.11,1711604767843750
144.05,1711604767859375
138.64,1711604767875000
133.16,1711604767890625
127.38,1711604767906250
120.44,1711604767921875
111.08,1711604767937500
98.13,1711604767953125
81.26,1711604767968750
61.19,1711604767984375
39.59,1711604768000000
18.63,1711604768015625
0.4,1711604768031250
-13.43,1711604768046875
-21.74,1711604768062500
-23.87,1711604768078125
-19.75,1711604768093750
-9.97,1711604768109375
4.17,1711604768125000
20.76,1711604768140625
37.67,1711604768156250
52.97,1711604768171875
65.28,1711604768187500
73.82,1711604768203125
78.41,1711604768218750
79.32,1711604768234375
77.24,1711604768250000
73.15,1711604768265625
68.19,1711604768281250
63.3,1711604768296875
58.95,1711604768312500
55.03,1711604768328125
50.96,1711604768343750
46.05,1711604768359375
39.78,1711604768375000
31.98,1711604768390625
22.81,1711604768406250
12.55,1711604768421875
1.59,1711604768437500
-9.65,1711604768453125
-20.76,1711604768468750
-31.42,1711604768484375
-41.51,1711604768500000
-51.24,1711604768515625
-61.05,1711604768531250
-71.37,1711604768546875
-82.22,1711604768562500
-93.01,1711604768578125
-102.51,1711604768593750
-109.19,1711604768609375
-111.74,1711604768625000
-109.44,1711604768640625
-102.43,1711604768656250
-91.49,1711604768671875
-77.83,1711604768687500
-62.69,1711604768703125
-47.23,1711604768718750
-32.37,1711604768734375
-18.95,1711604768750000
-7.71,1711604768765625
0.74,1711604768781250
6.04,1711604768796875
8.22,1711604768812500
7.83,1711604768828125
5.87,1711604768843750
3.58,1711604768859375
2.13,1711604768875000
2.22,1711604768890625
3.85,1711604768906250
6.39,1711604768921875
8.89,1711604768937500
10.47,1711604768953125
10.65,1711604768968750
9.53,1711604768984375
7.57,1711604769000000
5.37,1711604769015625
3.33,1711604769031250
1.46,1711604769046875
-0.59,1711604769062500
-3.45,1711604769078125
-7.73,1711604769093750
-13.82,1711604769109375
-21.55,1711604769125000
-30.13,1711604769140625
-38.1,1711604769156250
-43.62,1711604769171875
-44.97,1711604769187500
-41.1,1711604769203125
-31.96,1711604769218750
-18.5,1711604769234375
-2.25,1711604769250000
15.14,1711604769265625
32.29,1711604769281250
48.2,1711604769296875
62.19,1711604769312500
73.71,1711604769328125
82.33,1711604769343750
87.92,1711604769359375
90.81,1711604769375000
91.79,1711604769390625
91.8,1711604769406250
91.58,1711604769421875
91.29,1711604769437500
90.61,1711604769453125
88.9,1711604769468750
85.61,1711604769484375
80.44,1711604769500000
73.33,1711604769515625
64.41,1711604769531250
53.86,1711604769546875
41.97,1711604769562500
29.27,1711604769578125
16.51,1711604769593750
4.35,1711604769609375
-7.05,1711604769625000
-18.28,1711604769640625
-30.59,1711604769656250
-45.27,1711604769671875
-62.67,1711604769687500
-81.53,1711604769703125
-98.93,1711604769718750
-111.14,1711604769734375
-115.03,1711604769750000
-109.42,1711604769765625
-95.63,1711604769781250
-76.97,1711604769796875
-57.48,1711604769812500
-40.43,1711604769828125
-27.42,1711604769843750
-18.39,1711604769859375
-12.35,1711604769875000
-8.28,1711604769890625
-5.68,1711604769906250
-4.46,1711604769921875
-4.49,1711604769937500
-5.14,1711604769953125
-5.35,1711604769968750
-4.03,1711604769984375
-0.76,1711604770000000
3.99,1711604770015625
9.0,1711604770031250
12.87,1711604770046875
14.68,1711604770062500
14.26,1711604770078125
12.11,1711604770093750
8.83,1711604770109375
4.71,1711604770125000
-0.64,1711604770140625
-8.03,1711604770156250
-18.38,1711604770171875
-32.34,1711604770187500
-50.04,1711604770203125
-71.08,1711604770218750
-94.48,1711604770234375
-118.68,1711604770250000
-141.64,1711604770265625
-161.03,1711604770281250
-174.72,1711604770296875
-181.44,1711604770312500
-181.22,1711604770328125
-175.5,1711604770343750
-166.66,1711604770359375
-157.15,1711604770375000
-148.63,1711604770390625
-141.77,1711604770406250
-136.39,1711604770421875
-132.18,1711604770437500
-129.09,1711604770453125
-127.41,1711604770468750
-127.45,1711604770484375
-129.05,1711604770500000
-131.29,1711604770515625
-132.69,1711604770531250
-131.56,1711604770546875
-126.32,1711604770562500
-115.72,1711604770578125
-99.09,1711604770593750
-76.75,1711604770609375
-50.21,1711604770625000
-22.09,1711604770640625
4.62,1711604770656250
27.69,1711604770671875
46.46,1711604770687500
61.86,1711604770703125
75.52,1711604770718750
88.68,1711604770734375
101.38,1711604770750000
112.61,1711604770765625
121.14,1711604770781250
126.41,1711604770796875
128.87,1711604770812500
129.6,1711604770828125
129.62,1711604770843750
129.33,1711604770859375
128.74,1711604770875000
127.87,1711604770890625
127.2,1711604770906250
127.73,1711604770921875
130.35,1711604770937500
135.31,1711604770953125
141.95,1711604770968750
148.86,1711604770984375
154.36,1711604771000000
157.2,1711604771015625
156.8,1711604771031250
153.12,1711604771046875
146.24,1711604771062500
136.3,1711604771078125
123.95,1711604771093750
111.12,1711604771109375
101.28,1711604771125000
98.68,1711604771140625
106.46,1711604771156250
124.62,1711604771171875
149.28,1711604771187500
173.87,1711604771203125
191.93,1711604771218750
200.09,1711604771234375
199.37,1711604771250000
194.02,1711604771265625
188.7,1711604771281250
185.63,1711604771296875
183.42,1711604771312500
178.26,1711604771328125
166.45,1711604771343750
146.82,1711604771359375
121.52,1711604771375000
95.04,1711604771390625
72.08,1711604771406250
55.77,1711604771421875
46.71,1711604771437500
43.28,1711604771453125
42.72,1711604771468750
42.34,1711604771484375
40.21,1711604771500000
35.33,1711604771515625
27.39,1711604771531250
16.45,1711604771546875
2.72,1711604771562500
-13.37,1711604771578125
-30.9,1711604771593750
-48.29,1711604771609375
-63.53,1711604771625000
-74.97,1711604771640625
-82.05,1711604771656250
-85.73,1711604771671875
-88.22,1711604771687500
-92.1,1711604771703125
-99.35,1711604771718750
-110.63,1711604771734375
-125.46,1711604771750000
-142.75,1711604771765625
-161.54,1711604771781250
-181.24,1711604771796875
-201.45,1711604771812500
-221.88,1711604771828125
-242.24,1711604771843750
-262.45,1711604771859375
-282.67,1711604771875000
-302.98,1711604771890625
-322.97,1711604771906250
-341.34,1711604771921875
-356.06,1711604771937500
-365.2,1711604771953125
-367.95,1711604771968750
-365.13,1711604771984375
-358.85,1711604772000000
-351.41,1711604772015625
-344.16,1711604772031250
-336.72,1711604772046875
-327.19,1711604772062500
-313.03,1711604772078125
-292.1,1711604772093750
-263.5,1711604772109375
-227.98,1711604772125000
-187.76,1711604772140625
-146.1,1711604772156250
-106.43,1711604772171875
-71.27,1711604772187500
-41.61,1711604772203125
-16.59,1711604772218750
6.08,1711604772234375
29.11,1711604772250000
54.63,1711604772265625
83.48,1711604772281250
115.05,1711604772296875
147.96,1711604772312500
180.86,1711604772328125
212.95,1711604772343750
244.01,1711604772359375
273.77,1711604772375000
301.38,1711604772390625
325.09,1711604772406250
342.71,1711604772421875
352.28,1711604772437500
352.9,1711604772453125
345.05,1711604772468750
330.32,1711604772484375
310.93,1711604772500000
289.06,1711604772515625
266.52,1711604772531250
244.65,1711604772546875
224.39,1711604772562500
206.24,1711604772578125
190.19,1711604772593750
175.64,1711604772609375
161.4,1711604772625000
145.94,1711604772640625
127.86,1711604772656250
106.32,1711604772671875
81.46,1711604772687500
54.38,1711604772703125
26.87,1711604772718750
0.9,1711604772734375
-21.93,1711604772750000
-40.74,1711604772765625
-55.49,1711604772781250
-66.64,1711604772796875
-74.79,1711604772812500
-80.3,1711604772828125
-83.17,1711604772843750
-83.19,1711604772859375
-80.31,1711604772875000
-74.85,1711604772890625
-67.54,1711604772906250
-59.34,1711604772921875
-51.11,1711604772937500
-43.51,1711604772953125
-36.89,1711604772968750
-31.53,1711604772984375
-27.6,1711604773000000
-25.18,1711604773015625
-23.99,1711604773031250
-23.3,1711604773046875
-21.94,1711604773062500
-18.64,1711604773078125
-12.42,1711604773093750
-3.07,1711604773109375
8.78,1711604773125000
21.78,1711604773140625
34.36,1711604773156250
45.23,1711604773171875
53.73,1711604773187500
59.85,1711604773203125
64.06,1711604773218750
66.82,1711604773234375
68.32,1711604773250000
68.35,1711604773265625
66.43,1711604773281250
62.26,1711604773296875
55.86,1711604773312500
47.75,1711604773328125
38.67,1711604773343750
29.36,1711604773359375
20.32,1711604773375000
11.66,1711604773390625
3.26,1711604773406250
-5.22,1711604773421875
-14.11,1711604773437500
-23.72,1711604773453125
-34.24,1711604773468750
-45.61,1711604773484375
-57.56,1711604773500000
-69.56,1711604773515625
-81.05,1711604773531250
-91.57,1711604773546875
-100.85,1711604773562500
-108.68,1711604773578125
-114.8,1711604773593750
-118.69,1711604773609375
-119.67,1711604773625000
-117.13,1711604773640625
-110.86,1711604773656250
-101.23,1711604773671875
-89.21,1711604773687500
-76.13,1711604773703125
-63.33,1711604773718750
-51.83,1711604773734375
-42.15,1711604773750000
-34.34,1711604773765625
-28.18,1711604773781250
-23.4,1711604773796875
-19.82,1711604773812500
-17.43,1711604773828125
-16.35,1711604773843750
-16.63,1711604773859375
-18.11,1711604773875000
-20.4,1711604773890625
-22.92,1711604773906250
-25.03,1711604773921875
-26.3,1711604773937500
-26.66,1711604773953125
-26.45,1711604773968750
-26.35,1711604773984375
-27.11,1711604774000000
-29.22,1711604774015625
-32.76,1711604774031250
-37.27,1711604774046875
-42.07,1711604774062500
-46.43,1711604774078125
-49.91,1711604774093750
-52.26,1711604774109375
-53.42,1711604774125000
-53.29,1711604774140625
-51.74,1711604774156250
-48.57,1711604774171875
-43.54,1711604774187500
-36.23,1711604774203125
-25.84,1711604774218750
-11.15,1711604774234375
9.01,1711604774250000
34.92,1711604774265625
65.07,1711604774281250
95.61,1711604774296875
121.21,1711604774312500
136.71,1711604774328125
139.22,1711604774343750
129.42,1711604774359375
111.3,1711604774375000
90.55,1711604774390625
72.27,1711604774406250
59.31,1711604774421875
51.83,1711604774437500
48.2,1711604774453125
46.48,1711604774468750
45.48,1711604774484375
44.9,1711604774500000
44.8,1711604774515625
44.75,1711604774531250
43.39,1711604774546875
38.87,1711604774562500
29.63,1711604774578125
15.29,1711604774593750
-3.07,1711604774609375
-23.12,1711604774625000
-42.13,1711604774640625
-57.69,1711604774656250
-68.21,1711604774671875
-73.03,1711604774687500
-72.12,1711604774703125
-66.01,1711604774718750
-55.71,1711604774734375
-42.8,1711604774750000
-29.23,1711604774765625
-16.92,1711604774781250
-7.35,1711604774796875
-1.18,1711604774812500
1.44,1711604774828125
0.62,1711604774843750
-3.73,1711604774859375
-11.74,1711604774875000
-23.26,1711604774890625
-37.3,1711604774906250
-52.02,1711604774921875
-65.14,1711604774937500
-74.69,1711604774953125
-79.51,1711604774968750
-79.38,1711604774984375
-74.66,1711604775000000
-65.79,1711604775015625
-52.97,1711604775031250
-36.24,1711604775046875
-15.72,1711604775062500
8.1,1711604775078125
34.2,1711604775093750
61.05,1711604775109375
86.71,1711604775125000
109.04,1711604775140625
125.95,1711604775156250
135.64,1711604775171875
136.79,1711604775187500
128.84,1711604775203125
112.2,1711604775218750
88.45,1711604775234375
60.11,1711604775250000
30.33,1711604775265625
2.36,1711604775281250
-20.97,1711604775296875
-37.58,1711604775312500
-46.36,1711604775328125
-47.16,1711604775343750
-40.8,1711604775359375
-29.08,1711604775375000
-14.57,1711604775390625
-0.13,1711604775406250
11.69,1711604775421875
19.22,1711604775437500
21.96,1711604775453125
20.22,1711604775468750
14.62,1711604775484375
5.62,1711604775500000
-6.38,1711604775515625
-20.63,1711604775531250
-35.66,1711604775546875
-49.65,1711604775562500
-61.16,1711604775578125
-69.98,1711604775593750
-77.29,1711604775609375
-84.93,1711604775625000
-94.22,1711604775640625
-105.04,1711604775656250
-115.85,1711604775671875
-124.49,1711604775687500
-129.46,1711604775703125
-130.53,1711604775718750
-128.63,1711604775734375
-125.0,1711604775750000
-120.24,1711604775765625
-114.09,1711604775781250
-105.81,1711604775796875
-94.89,1711604775812500
-81.62,1711604775828125
-67.01,1711604775843750
-52.21,1711604775859375
-37.91,1711604775875000
-24.11,1711604775890625
-10.38,1711604775906250
3.63,1711604775921875
17.74,1711604775937500
31.13,1711604775953125
42.7,1711604775968750
51.51,1711604775984375
57.03,1711604776000000
59.18,1711604776015625
58.15,1711604776031250
54.35,1711604776046875
48.45,1711604776062500
41.52,1711604776078125
34.88,1711604776093750
29.88,1711604776109375
27.34,1711604776125000
27.19,1711604776140625
28.57,1711604776156250
30.25,1711604776171875
31.18,1711604776187500
30.83,1711604776203125
29.11,1711604776218750
26.1,1711604776234375
21.84,1711604776250000
16.45,1711604776265625
10.39,1711604776281250
4.66,1711604776296875
0.53,1711604776312500
-1.16,1711604776328125
-0.51,1711604776343750
1.34,1711604776359375
2.87,1711604776375000
3.12,1711604776390625
2.47,1711604776406250
2.51,1711604776421875
5.25,1711604776437500
11.92,1711604776453125
22.24,1711604776468750
34.49,1711604776484375
46.36,1711604776500000
55.99,1711604776515625
62.57,1711604776531250
66.38,1711604776546875
68.08,1711604776562500
68.17,1711604776578125
66.64,1711604776593750
63.2,1711604776609375
57.78,1711604776625000
50.81,1711604776640625
43.29,1711604776656250
36.37,1711604776671875
30.98,1711604776687500
27.4,1711604776703125
25.24,1711604776718750
23.61,1711604776734375
21.37,1711604776750000
17.5,1711604776765625
11.24,1711604776781250
2.25,1711604776796875
-9.24,1711604776812500
-22.48,1711604776828125
-36.11,1711604776843750
-48.36,1711604776859375
-57.36,1711604776875000
-61.47,1711604776890625
-59.77,1711604776906250
-52.2,1711604776921875
-39.7,1711604776937500
-23.85,1711604776953125
-6.62,1711604776968750
10.11,1711604776984375
24.8,1711604777000000
36.4,1711604777015625
44.38,1711604777031250
48.72,1711604777046875
49.82,1711604777062500
48.37,1711604777078125
45.25,1711604777093750
41.3,1711604777109375
37.24,1711604777125000
33.49,1711604777140625
30.2,1711604777156250
27.25,1711604777171875
24.46,1711604777187500
21.63,1711604777203125
18.65,1711604777218750
15.53,1711604777234375
12.29,1711604777250000
9.02,1711604777265625
5.7,1711604777281250
2.27,1711604777296875
-1.41,1711604777312500
-5.53,1711604777328125
-10.33,1711604777343750
-16.01,1711604777359375
-22.56,1711604777375000
-29.72,1711604777390625
-36.77,1711604777406250
-42.67,1711604777421875
-46.2,1711604777437500
-46.31,1711604777453125
-42.38,1711604777468750
-34.48,1711604777484375
-23.31,1711604777500000
-10.09,1711604777515625
3.66,1711604777531250
16.43,1711604777546875
26.96,1711604777562500
34.33,1711604777578125
38.12,1711604777593750
38.42,1711604777609375
35.79,1711604777625000
31.1,1711604777640625
25.37,1711604777656250
19.48,1711604777671875
14.06,1711604777687500
9.33,1711604777703125
5.26,1711604777718750
1.65,1711604777734375
-1.76,1711604777750000
-5.12,1711604777765625
-8.45,1711604777781250
-11.61,1711604777796875
-14.47,1711604777812500
-16.98,1711604777828125
-19.27,1711604777843750
-21.68,1711604777859375
-24.71,1711604777875000
-28.77,1711604777890625
-34.09,1711604777906250
-40.48,1711604777921875
-47.26,1711604777937500
-53.3,1711604777953125
-57.27,1711604777968750
-57.95,1711604777984375
-54.5,1711604778000000
-46.82,1711604778015625
-35.49,1711604778031250
-21.74,1711604778046875
-7.17,1711604778062500
