value,timestamp
-0.0,1712819484000000
-0.0,1712819484015625
-0.0,1712819484031250
-0.0,1712819484046875
-0.0,1712819484062500
-0.0,1712819484078125
-0.0,1712819484093750
-0.0,1712819484109375
-0.0,1712819484125000
-0.0,1712819484140625
0.0,1712819484156250
0.01,1712819484171875
0.01,1712819484187500
-0.0,1712819484203125
-0.03,1712819484218750
-0.05,1712819484234375
-0.05,1712819484250000
0.0,1712819484265625
0.13,1712819484281250
0.36,1712819484296875
0.66,1712819484312500
1.01,1712819484328125
1.37,1712819484343750
1.72,1712819484359375
2.06,1712819484375000
2.4,1712819484390625
2.79,1712819484406250
3.24,1712819484421875
3.8,1712819484437500
4.42,1712819484453125
5.06,1712819484468750
5.66,1712819484484375
6.2,1712819484500000
6.68,1712819484515625
7.15,1712819484531250
7.68,1712819484546875
8.31,1712819484562500
9.14,1712819484578125
10.09,1712819484593750
11.04,1712819484609375
11.88,1712819484625000
12.56,1712819484640625
13.14,1712819484656250
13.76,1712819484671875
14.65,1712819484687500
15.96,1712819484703125
17.91,1712819484718750
20.32,1712819484734375
22.9,1712819484750000
25.38,1712819484765625
27.58,1712819484781250
29.57,1712819484796875
31.68,1712819484812500
34.32,1712819484828125
37.81,1712819484843750
42.54,1712819484859375
48.15,1712819484875000
54.1,1712819484890625
59.83,1712819484906250
64.97,1712819484921875
69.58,1712819484937500
74.14,1712819484953125
79.34,1712819484968750
85.71,1712819484984375
93.76,1712819485000000
103.0,1712819485015625
112.62,1712819485031250
121.73,1712819485046875
129.77,1712819485062500
136.75,1712819485078125
143.3,1712819485093750
150.75,1712819485109375
157.77,1712819485125000
166.64,1712819485140625
177.95,1712819485156250
191.79,1712819485171875
206.97,1712819485187500
220.57,1712819485203125
228.25,1712819485218750
225.36,1712819485234375
208.53,1712819485250000
176.87,1712819485265625
132.76,1712819485281250
80.05,1712819485296875
23.07,1712819485312500
-34.94,1712819485328125
-92.44,1712819485343750
-149.16,1712819485359375
-205.23,1712819485375000
-260.37,1712819485390625
-313.74,1712819485406250
-363.87,1712819485421875
-409.83,1712819485437500
-450.91,1712819485453125
-486.5,1712819485468750
-515.74,1712819485484375
-537.23,1712819485500000
-549.22,1712819485515625
-549.96,1712819485531250
-538.37,1712819485546875
-514.21,1712819485562500
-478.67,1712819485578125
-433.88,1712819485593750
-382.45,1712819485609375
-327.02,1712819485625000
-269.84,1712819485640625
-212.63,1712819485656250
-156.66,1712819485671875
-102.95,1712819485687500
-52.37,1712819485703125
-5.9,1712819485718750
35.58,1712819485734375
71.43,1712819485750000
101.35,1712819485765625
125.5,1712819485781250
144.38,1712819485796875
158.69,1712819485812500
169.15,1712819485828125
176.37,1712819485843750
180.75,1712819485859375
182.57,1712819485875000
182.07,1712819485890625
179.51,1712819485906250
175.23,1712819485921875
169.65,1712819485937500
163.18,1712819485953125
156.15,1712819485968750
148.81,1712819485984375
141.3,1712819486000000
133.69,1712819486015625
126.02,1712819486031250
118.33,1712819486046875
110.69,1712819486062500
103.16,1712819486078125
95.8,1712819486093750
88.68,1712819486109375
81.83,1712819486125000
75.25,1712819486140625
68.95,1712819486156250
62.95,1712819486171875
57.25,1712819486187500
51.86,1712819486203125
46.78,1712819486218750
42.03,1712819486234375
37.59,1712819486250000
33.45,1712819486265625
29.61,1712819486281250
26.07,1712819486296875
22.81,1712819486312500
19.83,1712819486328125
17.11,1712819486343750
14.67,1712819486359375
12.48,1712819486375000
10.54,1712819486390625
8.83,1712819486406250
7.35,1712819486421875
6.07,1712819486437500
4.97,1712819486453125
4.05,1712819486468750
3.27,1712819486484375
2.62,1712819486500000
2.09,1712819486515625
1.65,1712819486531250
1.3,1712819486546875
1.01,1712819486562500
0.79,1712819486578125
0.61,1712819486593750
0.48,1712819486609375
0.37,1712819486625000
0.29,1712819486640625
0.22,1712819486656250
0.18,1712819486671875
0.14,1712819486687500
0.11,1712819486703125
0.09,1712819486718750
0.08,1712819486734375
0.07,1712819486750000
0.06,1712819486765625
0.05,1712819486781250
0.05,1712819486796875
0.05,1712819486812500
0.06,1712819486828125
0.07,1712819486843750
0.08,1712819486859375
0.1,1712819486875000
0.12,1712819486890625
0.14,1712819486906250
0.17,1712819486921875
0.21,1712819486937500
0.25,1712819486953125
0.29,1712819486968750
0.33,1712819486984375
0.37,1712819487000000
0.42,1712819487015625
0.46,1712819487031250
0.51,1712819487046875
0.56,1712819487062500
0.61,1712819487078125
0.67,1712819487093750
0.72,1712819487109375
0.79,1712819487125000
0.85,1712819487140625
0.93,1712819487156250
1.01,1712819487171875
1.1,1712819487187500
1.2,1712819487203125
1.32,1712819487218750
1.44,1712819487234375
1.59,1712819487250000
1.74,1712819487265625
1.92,1712819487281250
2.12,1712819487296875
2.34,1712819487312500
2.58,1712819487328125
2.85,1712819487343750
3.15,1712819487359375
3.47,1712819487375000
3.83,1712819487390625
4.22,1712819487406250
4.64,1712819487421875
5.1,1712819487437500
5.59,1712819487453125
6.12,1712819487468750
6.69,1712819487484375
7.3,1712819487500000
7.95,1712819487515625
8.65,1712819487531250
9.38,1712819487546875
10.17,1712819487562500
10.99,1712819487578125
11.86,1712819487593750
12.77,1712819487609375
13.74,1712819487625000
14.77,1712819487640625
15.85,1712819487656250
17.01,1712819487671875
18.21,1712819487687500
19.44,1712819487703125
20.68,1712819487718750
21.85,1712819487734375
22.88,1712819487750000
23.66,1712819487765625
24.09,1712819487781250
24.03,1712819487796875
23.4,1712819487812500
22.1,1712819487828125
20.09,1712819487843750
17.4,1712819487859375
14.08,1712819487875000
10.22,1712819487890625
6.01,1712819487906250
1.64,1712819487921875
-2.7,1712819487937500
-6.79,1712819487953125
-10.46,1712819487968750
-13.56,1712819487984375
-15.97,1712819488000000
-17.67,1712819488015625
-18.65,1712819488031250
-18.93,1712819488046875
-18.63,1712819488062500
-17.85,1712819488078125
-16.67,1712819488093750
-15.25,1712819488109375
-13.64,1712819488125000
-11.94,1712819488140625
-10.18,1712819488156250
-8.39,1712819488171875
-6.56,1712819488187500
-4.73,1712819488203125
-2.91,1712819488218750
-1.1,1712819488234375
0.72,1712819488250000
2.58,1712819488265625
4.5,1712819488281250
6.51,1712819488296875
8.69,1712819488312500
11.09,1712819488328125
13.64,1712819488343750
16.3,1712819488359375
19.05,1712819488375000
21.9,1712819488390625
24.84,1712819488406250
27.92,1712819488421875
31.17,1712819488437500
34.67,1712819488453125
38.59,1712819488468750
42.71,1712819488484375
46.98,1712819488500000
51.37,1712819488515625
55.88,1712819488531250
60.54,1712819488546875
65.41,1712819488562500
70.54,1712819488578125
76.08,1712819488593750
82.24,1712819488609375
88.73,1712819488625000
95.4,1712819488640625
102.2,1712819488656250
109.1,1712819488671875
116.06,1712819488687500
123.09,1712819488703125
130.2,1712819488718750
137.45,1712819488734375
145.06,1712819488750000
152.51,1712819488765625
159.5,1712819488781250
165.81,1712819488796875
171.12,1712819488812500
175.04,1712819488828125
176.91,1712819488843750
175.7,1712819488859375
169.65,1712819488875000
161.71,1712819488890625
152.62,1712819488906250
142.84,1712819488921875
132.7,1712819488937500
122.46,1712819488953125
112.3,1712819488968750
102.33,1712819488984375
92.64,1712819489000000
83.39,1712819489015625
74.89,1712819489031250
66.81,1712819489046875
59.1,1712819489062500
51.85,1712819489078125
45.11,1712819489093750
38.84,1712819489109375
32.89,1712819489125000
27.05,1712819489140625
21.18,1712819489156250
15.37,1712819489171875
9.39,1712819489187500
3.36,1712819489203125
-2.42,1712819489218750
-7.76,1712819489234375
-12.66,1712819489250000
-17.41,1712819489265625
-22.5,1712819489281250
-28.33,1712819489296875
-34.96,1712819489312500
-42.41,1712819489328125
-50.25,1712819489343750
-57.8,1712819489359375
-64.64,1712819489375000
-70.77,1712819489390625
-76.72,1712819489406250
-83.35,1712819489421875
-91.46,1712819489437500
-101.43,1712819489453125
-113.12,1712819489468750
-125.87,1712819489484375
-138.72,1712819489500000
-150.97,1712819489515625
-162.42,1712819489531250
-173.48,1712819489546875
-184.95,1712819489562500
-197.92,1712819489578125
-213.56,1712819489593750
-232.88,1712819489609375
-256.21,1712819489625000
-282.33,1712819489640625
-308.27,1712819489656250
-329.46,1712819489671875
-340.95,1712819489687500
-339.15,1712819489703125
-323.23,1712819489718750
-295.62,1712819489734375
-261.05,1712819489750000
-224.81,1712819489765625
-190.96,1712819489781250
-161.47,1712819489796875
-136.36,1712819489812500
-114.57,1712819489828125
-95.01,1712819489843750
-77.04,1712819489859375
-60.42,1712819489875000
-45.06,1712819489890625
-30.75,1712819489906250
-17.22,1712819489921875
-4.38,1712819489937500
7.57,1712819489953125
18.13,1712819489968750
26.72,1712819489984375
32.84,1712819490000000
36.36,1712819490015625
37.49,1712819490031250
36.79,1712819490046875
34.87,1712819490062500
32.24,1712819490078125
29.04,1712819490093750
25.06,1712819490109375
19.97,1712819490125000
13.55,1712819490140625
5.97,1712819490156250
-2.27,1712819490171875
-10.38,1712819490187500
-17.7,1712819490203125
-23.89,1712819490218750
-29.16,1712819490234375
-34.23,1712819490250000
-40.05,1712819490265625
-47.27,1712819490281250
-55.89,1712819490296875
-64.95,1712819490312500
-72.62,1712819490328125
-76.73,1712819490343750
-75.48,1712819490359375
-68.09,1712819490375000
-55.07,1712819490390625
-38.04,1712819490406250
-19.2,1712819490421875
-0.6,1712819490437500
16.25,1712819490453125
30.55,1712819490468750
41.99,1712819490484375
50.54,1712819490500000
56.24,1712819490515625
59.18,1712819490531250
59.73,1712819490546875
58.44,1712819490562500
56.08,1712819490578125
53.39,1712819490593750
50.89,1712819490609375
48.76,1712819490625000
46.91,1712819490640625
45.17,1712819490656250
43.23,1712819490671875
41.17,1712819490687500
39.46,1712819490703125
38.65,1712819490718750
38.89,1712819490734375
39.84,1712819490750000
40.83,1712819490765625
41.2,1712819490781250
40.56,1712819490796875
38.51,1712819490812500
34.96,1712819490828125
30.14,1712819490843750
24.44,1712819490859375
18.23,1712819490875000
11.77,1712819490890625
5.3,1712819490906250
-0.98,1712819490921875
-7.01,1712819490937500
-13.67,1712819490953125
-21.67,1712819490968750
-31.14,1712819490984375
-41.7,1712819491000000
-53.01,1712819491015625
-64.99,1712819491031250
-77.78,1712819491046875
-91.4,1712819491062500
-105.48,1712819491078125
-121.01,1712819491093750
-137.43,1712819491109375
-151.93,1712819491125000
-160.63,1712819491140625
-160.76,1712819491156250
-151.94,1712819491171875
-135.93,1712819491187500
-115.82,1712819491203125
-94.89,1712819491218750
-79.86,1712819491234375
-74.27,1712819491250000
-76.61,1712819491265625
-82.17,1712819491281250
-86.85,1712819491296875
-89.38,1712819491312500
-90.76,1712819491328125
-92.87,1712819491343750
-97.15,1712819491359375
-110.45,1712819491375000
-135.28,1712819491390625
-167.52,1712819491406250
-199.29,1712819491421875
-224.52,1712819491437500
-241.75,1712819491453125
-252.83,1712819491468750
-260.91,1712819491484375
-268.96,1712819491500000
-287.97,1712819491515625
-324.39,1712819491531250
-375.91,1712819491546875
-433.88,1712819491562500
-488.92,1712819491578125
-534.54,1712819491593750
-567.08,1712819491609375
-585.23,1712819491625000
-536.76,1712819491640625
-405.85,1712819491656250
-222.61,1712819491671875
-41.43,1712819491687500
99.28,1712819491703125
191.26,1712819491718750
243.92,1712819491734375
270.78,1712819491750000
282.6,1712819491765625
286.15,1712819491781250
276.8,1712819491796875
250.76,1712819491812500
214.37,1712819491828125
178.07,1712819491843750
150.15,1712819491859375
133.19,1712819491875000
125.53,1712819491890625
123.88,1712819491906250
125.32,1712819491921875
121.61,1712819491937500
109.02,1712819491953125
91.53,1712819491968750
74.78,1712819491984375
63.97,1712819492000000
60.67,1712819492015625
63.64,1712819492031250
70.55,1712819492046875
79.25,1712819492062500
84.11,1712819492078125
82.16,1712819492093750
74.95,1712819492109375
66.66,1712819492125000
61.34,1712819492140625
60.78,1712819492156250
64.86,1712819492171875
72.5,1712819492187500
82.32,1712819492203125
90.97,1712819492218750
96.3,1712819492234375
98.61,1712819492250000
99.76,1712819492265625
102.11,1712819492281250
107.24,1712819492296875
115.8,1712819492312500
127.67,1712819492328125
142.07,1712819492343750
157.11,1712819492359375
171.1,1712819492375000
183.37,1712819492390625
194.18,1712819492406250
204.53,1712819492421875
215.56,1712819492437500
228.5,1712819492453125
244.62,1712819492468750
264.94,1712819492484375
289.56,1712819492500000
316.98,1712819492515625
343.66,1712819492531250
364.48,1712819492546875
374.13,1712819492562500
369.02,1712819492578125
348.66,1712819492593750
315.97,1712819492609375
276.16,1712819492625000
234.77,1712819492640625
195.77,1712819492656250
160.65,1712819492671875
128.92,1712819492687500
99.19,1712819492703125
70.4,1712819492718750
42.42,1712819492734375
15.98,1712819492750000
-7.83,1712819492765625
-27.91,1712819492781250
-43.41,1712819492796875
-53.69,1712819492812500
-58.37,1712819492828125
-57.51,1712819492843750
-51.52,1712819492859375
-41.35,1712819492875000
-28.33,1712819492890625
-13.95,1712819492906250
0.33,1712819492921875
13.23,1712819492937500
23.74,1712819492953125
31.28,1712819492968750
35.7,1712819492984375
37.29,1712819493000000
36.68,1712819493015625
34.69,1712819493031250
32.06,1712819493046875
29.37,1712819493062500
26.98,1712819493078125
25.02,1712819493093750
23.54,1712819493109375
22.54,1712819493125000
21.93,1712819493140625
21.56,1712819493156250
21.18,1712819493171875
20.47,1712819493187500
19.13,1712819493203125
16.97,1712819493218750
13.87,1712819493234375
9.91,1712819493250000
5.17,1712819493265625
-0.16,1712819493281250
-5.96,1712819493296875
-12.11,1712819493312500
-18.6,1712819493328125
-25.44,1712819493343750
-32.66,1712819493359375
-40.29,1712819493375000
-48.22,1712819493390625
-56.27,1712819493406250
-64.09,1712819493421875
-71.4,1712819493437500
-78.15,1712819493453125
-84.61,1712819493468750
-91.49,1712819493484375
-99.59,1712819493500000
-109.48,1712819493515625
-120.9,1712819493531250
-132.71,1712819493546875
-142.82,1712819493562500
-148.86,1712819493578125
-148.72,1712819493593750
-141.24,1712819493609375
-126.48,1712819493625000
-105.68,1712819493640625
-80.95,1712819493656250
-54.63,1712819493671875
-28.85,1712819493687500
-5.18,1712819493703125
15.48,1712819493718750
32.76,1712819493734375
46.63,1712819493750000
57.18,1712819493765625
64.64,1712819493781250
69.41,1712819493796875
72.09,1712819493812500
73.46,1712819493828125
74.29,1712819493843750
75.11,1712819493859375
76.1,1712819493875000
77.11,1712819493890625
77.88,1712819493906250
78.26,1712819493921875
78.28,1712819493937500
78.11,1712819493953125
77.94,1712819493968750
77.78,1712819493984375
77.4,1712819494000000
76.39,1712819494015625
74.31,1712819494031250
70.83,1712819494046875
65.95,1712819494062500
60.02,1712819494078125
53.69,1712819494093750
47.61,1712819494109375
42.31,1712819494125000
37.83,1712819494140625
33.78,1712819494156250
29.53,1712819494171875
24.58,1712819494187500
18.87,1712819494203125
12.88,1712819494218750
7.42,1712819494234375
3.23,1712819494250000
0.64,1712819494265625
-0.6,1712819494281250
-1.23,1712819494296875
-2.15,1712819494312500
-4.16,1712819494328125
-7.64,1712819494343750
-12.49,1712819494359375
-17.95,1712819494375000
-22.73,1712819494390625
-25.02,1712819494406250
-22.67,1712819494421875
-13.64,1712819494437500
3.45,1712819494453125
28.72,1712819494468750
60.86,1712819494484375
97.36,1712819494500000
135.29,1712819494515625
172.3,1712819494531250
207.12,1712819494546875
239.49,1712819494562500
269.22,1712819494578125
295.24,1712819494593750
315.03,1712819494609375
325.24,1712819494625000
323.01,1712819494640625
307.52,1712819494656250
280.82,1712819494671875
247.27,1712819494687500
212.12,1712819494703125
179.6,1712819494718750
151.76,1712819494734375
128.51,1712819494750000
108.54,1712819494765625
90.56,1712819494781250
74.12,1712819494796875
59.47,1712819494812500
46.86,1712819494828125
35.81,1712819494843750
25.07,1712819494859375
13.51,1712819494875000
1.15,1712819494890625
-10.27,1712819494906250
-18.0,1712819494921875
-19.78,1712819494937500
-15.46,1712819494953125
-7.64,1712819494968750
-0.77,1712819494984375
0.61,1712819495000000
-6.19,1712819495015625
-21.38,1712819495031250
-43.33,1712819495046875
-69.93,1712819495062500
-99.63,1712819495078125
-131.32,1712819495093750
-163.39,1712819495109375
-192.8,1712819495125000
-215.14,1712819495140625
-225.85,1712819495156250
-222.09,1712819495171875
-204.0,1712819495187500
-174.81,1712819495203125
-139.51,1712819495218750
-103.27,1712819495234375
-69.93,1712819495250000
-41.48,1712819495265625
-18.59,1712819495281250
-1.51,1712819495296875
9.21,1712819495312500
12.58,1712819495328125
7.61,1712819495343750
-6.11,1712819495359375
-27.94,1712819495375000
-56.23,1712819495390625
-88.75,1712819495406250
-123.3,1712819495421875
-158.06,1712819495437500
-191.8,1712819495453125
-223.39,1712819495468750
-251.52,1712819495484375
-274.46,1712819495500000
-290.31,1712819495515625
-297.65,1712819495531250
-296.26,1712819495546875
-287.68,1712819495562500
-275.05,1712819495578125
-262.31,1712819495593750
-252.89,1712819495609375
-248.49,1712819495625000
-248.47,1712819495640625
-250.06,1712819495656250
-249.5,1712819495671875
-243.47,1712819495687500
-230.38,1712819495703125
-210.79,1712819495718750
-186.99,1712819495734375
-161.9,1712819495750000
-137.96,1712819495765625
-116.47,1712819495781250
-97.55,1712819495796875
-80.7,1712819495812500
-65.26,1712819495828125
-50.8,1712819495843750
-37.01,1712819495859375
-23.57,1712819495875000
-10.0,1712819495890625
4.2,1712819495906250
19.27,1712819495921875
34.89,1712819495937500
50.23,1712819495953125
64.08,1712819495968750
75.35,1712819495984375
83.43,1712819496000000
88.29,1712819496015625
90.53,1712819496031250
91.04,1712819496046875
90.57,1712819496062500
89.42,1712819496078125
87.24,1712819496093750
83.25,1712819496109375
76.55,1712819496125000
66.77,1712819496140625
54.38,1712819496156250
40.83,1712819496171875
27.99,1712819496187500
17.66,1712819496203125
10.76,1712819496218750
7.15,1712819496234375
5.86,1712819496250000
5.63,1712819496265625
5.66,1712819496281250
5.81,1712819496296875
6.52,1712819496312500
8.25,1712819496328125
11.0,1712819496343750
14.17,1712819496359375
16.88,1712819496375000
18.62,1712819496390625
19.6,1712819496406250
20.72,1712819496421875
23.07,1712819496437500
27.21,1712819496453125
32.79,1712819496468750
38.76,1712819496484375
43.95,1712819496500000
47.73,1712819496515625
50.28,1712819496531250
52.38,1712819496546875
54.8,1712819496562500
57.86,1712819496578125
61.22,1712819496593750
64.22,1712819496609375
66.26,1712819496625000
67.2,1712819496640625
67.35,1712819496656250
67.25,1712819496671875
67.32,1712819496687500
67.75,1712819496703125
68.46,1712819496718750
69.22,1712819496734375
69.84,1712819496750000
70.19,1712819496765625
70.17,1712819496781250
69.63,1712819496796875
68.4,1712819496812500
66.37,1712819496828125
63.63,1712819496843750
60.48,1712819496859375
57.42,1712819496875000
54.87,1712819496890625
53.07,1712819496906250
51.88,1712819496921875
50.87,1712819496937500
49.4,1712819496953125
46.81,1712819496968750
42.61,1712819496984375
36.47,1712819497000000
28.37,1712819497015625
18.62,1712819497031250
7.93,1712819497046875
-2.71,1712819497062500
-12.13,1712819497078125
-19.33,1712819497093750
-23.91,1712819497109375
-26.17,1712819497125000
-27.08,1712819497140625
-27.89,1712819497156250
-29.6,1712819497171875
-32.55,1712819497187500
-36.41,1712819497203125
-40.33,1712819497218750
-43.51,1712819497234375
-45.5,1712819497250000
-46.31,1712819497265625
-46.19,1712819497281250
-45.34,1712819497296875
-43.66,1712819497312500
-40.83,1712819497328125
-36.55,1712819497343750
-30.86,1712819497359375
-24.24,1712819497375000
-17.5,1712819497390625
-11.45,1712819497406250
-6.68,1712819497421875
-3.33,1712819497437500
-1.27,1712819497453125
-0.13,1712819497468750
0.44,1712819497484375
0.68,1712819497500000
0.79,1712819497515625
0.9,1712819497531250
1.22,1712819497546875
1.95,1712819497562500
3.25,1712819497578125
5.1,1712819497593750
7.2,1712819497609375
8.89,1712819497625000
9.39,1712819497640625
8.1,1712819497656250
4.84,1712819497671875
0.13,1712819497687500
-4.98,1712819497703125
-9.26,1712819497718750
-11.83,1712819497734375
-12.49,1712819497750000
-11.84,1712819497765625
-11.01,1712819497781250
-11.04,1712819497796875
-12.59,1712819497812500
-15.54,1712819497828125
-19.28,1712819497843750
-23.01,1712819497859375
-26.22,1712819497875000
-28.85,1712819497890625
-31.25,1712819497906250
-33.95,1712819497921875
-37.36,1712819497937500
-41.75,1712819497953125
-47.25,1712819497968750
-54.0,1712819497984375
-62.12,1712819498000000
-71.6,1712819498015625
-82.09,1712819498031250
-92.73,1712819498046875
-102.26,1712819498062500
-109.35,1712819498078125
-113.12,1712819498093750
-113.43,1712819498109375
-110.92,1712819498125000
-106.8,1712819498140625
-102.2,1712819498156250
-97.82,1712819498171875
-93.7,1712819498187500
-89.28,1712819498203125
-83.76,1712819498218750
-76.5,1712819498234375
-67.13,1712819498250000
-55.71,1712819498265625
-42.51,1712819498281250
-27.99,1712819498296875
-12.73,1712819498312500
2.56,1712819498328125
17.14,1712819498343750
30.33,1712819498359375
41.69,1712819498375000
51.15,1712819498390625
58.95,1712819498406250
65.43,1712819498421875
70.9,1712819498437500
75.49,1712819498453125
79.21,1712819498468750
82.1,1712819498484375
84.3,1712819498500000
86.01,1712819498515625
87.31,1712819498531250
88.02,1712819498546875
87.64,1712819498562500
85.58,1712819498578125
81.47,1712819498593750
75.5,1712819498609375
68.49,1712819498625000
61.58,1712819498640625
55.82,1712819498656250
51.71,1712819498671875
48.99,1712819498687500
46.83,1712819498703125
44.18,1712819498718750
40.33,1712819498734375
35.17,1712819498750000
29.31,1712819498765625
23.78,1712819498781250
19.73,1712819498796875
17.86,1712819498812500
18.23,1712819498828125
20.13,1712819498843750
22.31,1712819498859375
23.41,1712819498875000
22.38,1712819498890625
18.71,1712819498906250
12.39,1712819498921875
3.93,1712819498937500
-5.98,1712819498953125
-16.51,1712819498968750
-26.7,1712819498984375
-35.61,1712819499000000
-42.33,1712819499015625
-46.25,1712819499031250
-47.15,1712819499046875
-45.34,1712819499062500
-41.48,1712819499078125
-36.27,1712819499093750
-30.27,1712819499109375
-23.66,1712819499125000
-16.34,1712819499140625
-8.15,1712819499156250
0.95,1712819499171875
10.78,1712819499187500
20.9,1712819499203125
30.77,1712819499218750
39.87,1712819499234375
47.64,1712819499250000
53.61,1712819499265625
57.37,1712819499281250
58.66,1712819499296875
57.49,1712819499312500
54.19,1712819499328125
49.37,1712819499343750
43.74,1712819499359375
37.79,1712819499375000
31.73,1712819499390625
25.57,1712819499406250
19.28,1712819499421875
13.01,1712819499437500
7.19,1712819499453125
2.31,1712819499468750
-1.3,1712819499484375
-3.73,1712819499500000
-5.47,1712819499515625
-7.26,1712819499531250
-9.67,1712819499546875
-12.93,1712819499562500
-16.89,1712819499578125
-21.05,1712819499593750
-24.89,1712819499609375
-27.88,1712819499625000
-29.55,1712819499640625
-29.54,1712819499656250
-27.64,1712819499671875
-23.86,1712819499687500
-18.64,1712819499703125
-12.88,1712819499718750
-7.76,1712819499734375
-4.4,1712819499750000
-3.4,1712819499765625
-4.67,1712819499781250
-7.41,1712819499796875
-10.55,1712819499812500
-13.07,1712819499828125
-14.3,1712819499843750
-14.06,1712819499859375
-12.44,1712819499875000
-9.77,1712819499890625
-6.47,1712819499906250
-3.17,1712819499921875
-0.62,1712819499937500
0.43,1712819499953125
-0.48,1712819499968750
-3.26,1712819499984375
-7.25,1712819500000000
-11.42,1712819500015625
-14.75,1712819500031250
-16.58,1712819500046875
-16.74,1712819500062500
-15.51,1712819500078125
-13.39,1712819500093750
-10.94,1712819500109375
-8.69,1712819500125000
-7.03,1712819500140625
-6.1,1712819500156250
-5.79,1712819500171875
-5.69,1712819500187500
-5.32,1712819500203125
-4.32,1712819500218750
-2.65,1712819500234375
-0.7,1712819500250000
0.96,1712819500265625
1.87,1712819500281250
1.89,1712819500296875
1.3,1712819500312500
0.57,1712819500328125
0.22,1712819500343750
0.55,1712819500359375
1.64,1712819500375000
3.36,1712819500390625
5.52,1712819500406250
7.8,1712819500421875
9.87,1712819500437500
11.41,1712819500453125
12.24,1712819500468750
12.44,1712819500484375
12.37,1712819500500000
12.53,1712819500515625
13.32,1712819500531250
14.75,1712819500546875
16.39,1712819500562500
17.52,1712819500578125
17.49,1712819500593750
16.01,1712819500609375
13.32,1712819500625000
10.01,1712819500640625
6.69,1712819500656250
3.74,1712819500671875
1.21,1712819500687500
-1.02,1712819500703125
-3.06,1712819500718750
-4.9,1712819500734375
-6.59,1712819500750000
-8.36,1712819500765625
-10.71,1712819500781250
-14.19,1712819500796875
-19.18,1712819500812500
-25.55,1712819500828125
-32.74,1712819500843750
-40.08,1712819500859375
-47.05,1712819500875000
-53.54,1712819500890625
-59.79,1712819500906250
-66.08,1712819500921875
-72.46,1712819500937500
-78.63,1712819500953125
-84.02,1712819500968750
-87.99,1712819500984375
-90.0,1712819501000000
-89.59,1712819501015625
-86.43,1712819501031250
-80.32,1712819501046875
-71.37,1712819501062500
-60.11,1712819501078125
-47.49,1712819501093750
-34.62,1712819501109375
-22.48,1712819501125000
-11.57,1712819501140625
-1.89,1712819501156250
6.89,1712819501171875
15.14,1712819501187500
22.99,1712819501203125
30.35,1712819501218750
36.99,1712819501234375
42.77,1712819501250000
47.71,1712819501265625
51.95,1712819501281250
55.61,1712819501296875
58.73,1712819501312500
61.18,1712819501328125
62.8,1712819501343750
63.43,1712819501359375
62.89,1712819501375000
61.12,1712819501390625
58.11,1712819501406250
54.03,1712819501421875
49.31,1712819501437500
44.52,1712819501453125
40.28,1712819501468750
37.0,1712819501484375
34.77,1712819501500000
33.3,1712819501515625
32.18,1712819501531250
31.03,1712819501546875
29.61,1712819501562500
27.82,1712819501578125
25.62,1712819501593750
22.89,1712819501609375
19.61,1712819501625000
15.83,1712819501640625
11.83,1712819501656250
7.94,1712819501671875
4.43,1712819501687500
1.27,1712819501703125
-1.8,1712819501718750
-5.13,1712819501734375
-8.94,1712819501750000
-13.18,1712819501765625
-17.58,1712819501781250
-21.86,1712819501796875
-25.82,1712819501812500
-29.42,1712819501828125
-32.68,1712819501843750
-35.54,1712819501859375
-37.93,1712819501875000
-39.7,1712819501890625
-40.83,1712819501906250
-41.38,1712819501921875
-41.36,1712819501937500
-40.66,1712819501953125
-39.03,1712819501968750
-36.23,1712819501984375
-32.16,1712819502000000
-26.96,1712819502015625
-21.01,1712819502031250
-14.71,1712819502046875
-8.41,1712819502062500
-2.37,1712819502078125
3.11,1712819502093750
7.47,1712819502109375
9.91,1712819502125000
9.47,1712819502140625
5.42,1712819502156250
-2.46,1712819502171875
-13.62,1712819502187500
-26.89,1712819502203125
-40.74,1712819502218750
-53.79,1712819502234375
-65.24,1712819502250000
-75.25,1712819502265625
-84.82,1712819502281250
-95.38,1712819502296875
-108.04,1712819502312500
-122.9,1712819502328125
-138.75,1712819502343750
-153.3,1712819502359375
-163.8,1712819502375000
-167.97,1712819502390625
-164.6,1712819502406250
-153.81,1712819502421875
-137.04,1712819502437500
-116.86,1712819502453125
-96.72,1712819502468750
-80.81,1712819502484375
-73.56,1712819502500000
-78.8,1712819502515625
-98.6,1712819502531250
-132.27,1712819502546875
-175.91,1712819502562500
-223.08,1712819502578125
-266.36,1712819502593750
-299.21,1712819502609375
-317.67,1712819502625000
-321.04,1712819502640625
-311.59,1712819502656250
-293.47,1712819502671875
-271.35,1712819502687500
-249.34,1712819502703125
-230.34,1712819502718750
-215.97,1712819502734375
-206.81,1712819502750000
-202.68,1712819502765625
-202.84,1712819502781250
-206.23,1712819502796875
-211.46,1712819502812500
-217.07,1712819502828125
-221.62,1712819502843750
-223.99,1712819502859375
-223.44,1712819502875000
-219.64,1712819502890625
-212.57,1712819502906250
-202.3,1712819502921875
-188.94,1712819502937500
-172.53,1712819502953125
-153.05,1712819502968750
-130.54,1712819502984375
-105.17,1712819503000000
-77.26,1712819503015625
-47.34,1712819503031250
-16.12,1712819503046875
15.57,1712819503062500
46.81,1712819503078125
76.69,1712819503093750
104.47,1712819503109375
129.65,1712819503125000
152.08,1712819503140625
171.89,1712819503156250
189.54,1712819503171875
205.67,1712819503187500
221.02,1712819503203125
236.32,1712819503218750
252.06,1712819503234375
268.26,1712819503250000
284.26,1712819503265625
298.8,1712819503281250
310.39,1712819503296875
317.93,1712819503312500
321.26,1712819503328125
321.43,1712819503343750
320.38,1712819503359375
320.2,1712819503375000
322.28,1712819503390625
326.73,1712819503406250
332.37,1712819503421875
337.06,1712819503437500
338.44,1712819503453125
334.36,1712819503468750
323.3,1712819503484375
304.42,1712819503500000
277.63,1712819503515625
243.55,1712819503531250
203.58,1712819503546875
159.79,1712819503562500
114.66,1712819503578125
70.75,1712819503593750
30.13,1712819503609375
-5.92,1712819503625000
-37.0,1712819503640625
-63.48,1712819503656250
-86.22,1712819503671875
-106.13,1712819503687500
-123.92,1712819503703125
-139.79,1712819503718750
-153.28,1712819503734375
-163.23,1712819503750000
-168.08,1712819503765625
-166.31,1712819503781250
-157.03,1712819503796875
-140.4,1712819503812500
-117.7,1712819503828125
-90.79,1712819503843750
-61.52,1712819503859375
-31.19,1712819503875000
-0.54,1712819503890625
29.92,1712819503906250
59.44,1712819503921875
86.76,1712819503937500
110.45,1712819503953125
129.42,1712819503968750
143.44,1712819503984375
153.29,1712819504000000
160.42,1712819504015625
166.31,1712819504031250
172.09,1712819504046875
178.36,1712819504062500
185.28,1712819504078125
192.84,1712819504093750
200.94,1712819504109375
209.39,1712819504125000
217.75,1712819504140625
225.35,1712819504156250
231.37,1712819504171875
235.05,1712819504187500
236.0,1712819504203125
234.25,1712819504218750
230.3,1712819504234375
224.96,1712819504250000
219.12,1712819504265625
213.63,1712819504281250
209.22,1712819504296875
206.41,1712819504312500
205.45,1712819504328125
206.18,1712819504343750
207.9,1712819504359375
209.54,1712819504375000
210.0,1712819504390625
208.53,1712819504406250
205.05,1712819504421875
200.05,1712819504437500
194.29,1712819504453125
188.33,1712819504468750
182.31,1712819504484375
176.07,1712819504500000
169.54,1712819504515625
163.16,1712819504531250
157.91,1712819504546875
154.93,1712819504562500
154.93,1712819504578125
157.61,1712819504593750
161.67,1712819504609375
165.29,1712819504625000
166.7,1712819504640625
164.7,1712819504656250
158.71,1712819504671875
148.47,1712819504687500
133.79,1712819504703125
114.37,1712819504718750
89.97,1712819504734375
60.65,1712819504750000
26.89,1712819504765625
-10.56,1712819504781250
-50.9,1712819504796875
-93.43,1712819504812500
-137.35,1712819504828125
-181.28,1712819504843750
-222.92,1712819504859375
-259.25,1712819504875000
-287.22,1712819504890625
-304.76,1712819504906250
-311.52,1712819504921875
-308.91,1712819504937500
-299.4,1712819504953125
-285.56,1712819504968750
-269.2,1712819504984375
-251.08,1712819505000000
-231.19,1712819505015625
-209.3,1712819505031250
-185.39,1712819505046875
-159.89,1712819505062500
-133.52,1712819505078125
-107.2,1712819505093750
-81.85,1712819505109375
-58.41,1712819505125000
-37.71,1712819505140625
-20.4,1712819505156250
-6.85,1712819505171875
2.87,1712819505187500
9.01,1712819505203125
12.0,1712819505218750
12.26,1712819505234375
10.2,1712819505250000
6.17,1712819505265625
0.49,1712819505281250
-6.49,1712819505296875
-14.43,1712819505312500
-22.98,1712819505328125
-31.84,1712819505343750
-40.66,1712819505359375
-49.21,1712819505375000
-57.39,1712819505390625
-65.32,1712819505406250
-73.3,1712819505421875
-81.72,1712819505437500
-90.84,1712819505453125
-100.54,1712819505468750
-110.35,1712819505484375
-119.56,1712819505500000
-127.58,1712819505515625
-134.14,1712819505531250
-139.51,1712819505546875
-144.39,1712819505562500
-149.79,1712819505578125
-156.63,1712819505593750
-165.4,1712819505609375
-175.82,1712819505625000
-186.59,1712819505640625
-195.47,1712819505656250
-199.68,1712819505671875
-196.64,1712819505687500
-184.69,1712819505703125
-163.61,1712819505718750
-134.66,1712819505734375
-100.18,1712819505750000
-62.85,1712819505765625
-25.09,1712819505781250
11.2,1712819505796875
44.7,1712819505812500
74.28,1712819505828125
98.96,1712819505843750
117.88,1712819505859375
130.59,1712819505875000
137.27,1712819505890625
138.75,1712819505906250
136.42,1712819505921875
131.88,1712819505937500
126.62,1712819505953125
121.79,1712819505968750
118.1,1712819505984375
115.86,1712819506000000
115.03,1712819506015625
115.34,1712819506031250
116.37,1712819506046875
117.57,1712819506062500
118.32,1712819506078125
117.97,1712819506093750
115.94,1712819506109375
111.94,1712819506125000
106.06,1712819506140625
98.88,1712819506156250
91.27,1712819506171875
84.03,1712819506187500
77.54,1712819506203125
71.63,1712819506218750
65.75,1712819506234375
59.37,1712819506250000
52.36,1712819506265625
45.13,1712819506281250
38.34,1712819506296875
32.49,1712819506312500
27.46,1712819506328125
22.57,1712819506343750
16.79,1712819506359375
9.27,1712819506375000
-0.29,1712819506390625
-11.56,1712819506406250
-23.84,1712819506421875
-36.42,1712819506437500
-48.93,1712819506453125
-61.44,1712819506468750
-74.3,1712819506484375
-87.94,1712819506500000
-102.69,1712819506515625
-118.68,1712819506531250
-135.76,1712819506546875
-153.42,1712819506562500
-170.62,1712819506578125
-185.7,1712819506593750
-196.47,1712819506609375
-200.64,1712819506625000
-196.54,1712819506640625
-183.65,1712819506656250
-162.97,1712819506671875
-136.69,1712819506687500
-107.58,1712819506703125
-78.15,1712819506718750
-50.2,1712819506734375
-24.6,1712819506750000
-1.65,1712819506765625
18.6,1712819506781250
36.09,1712819506796875
50.73,1712819506812500
62.58,1712819506828125
71.93,1712819506843750
79.33,1712819506859375
85.38,1712819506875000
90.56,1712819506890625
95.17,1712819506906250
99.23,1712819506921875
102.68,1712819506937500
105.41,1712819506953125
107.42,1712819506968750
108.69,1712819506984375
109.31,1712819507000000
109.35,1712819507015625
108.86,1712819507031250
107.71,1712819507046875
105.63,1712819507062500
102.33,1712819507078125
97.64,1712819507093750
91.63,1712819507109375
84.73,1712819507125000
77.49,1712819507140625
70.35,1712819507156250
63.35,1712819507171875
56.21,1712819507187500
48.46,1712819507203125
39.82,1712819507218750
30.43,1712819507234375
20.78,1712819507250000
11.5,1712819507265625
3.02,1712819507281250
-4.71,1712819507296875
-12.14,1712819507312500
-19.89,1712819507328125
-28.52,1712819507343750
-38.17,1712819507359375
-48.67,1712819507375000
-59.52,1712819507390625
-70.17,1712819507406250
-80.22,1712819507421875
-89.66,1712819507437500
-98.84,1712819507453125
-108.41,1712819507468750
-119.18,1712819507484375
-131.77,1712819507500000
-146.3,1712819507515625
-162.13,1712819507531250
-177.66,1712819507546875
-190.54,1712819507562500
-198.16,1712819507578125
-198.33,1712819507593750
-189.97,1712819507609375
-173.42,1712819507625000
-150.38,1712819507640625
-123.34,1712819507656250
-94.83,1712819507671875
-66.77,1712819507687500
-40.28,1712819507703125
-15.77,1712819507718750
6.64,1712819507734375
26.81,1712819507750000
44.39,1712819507765625
59.02,1712819507781250
70.5,1712819507796875
79.0,1712819507812500
85.12,1712819507828125
89.65,1712819507843750
93.43,1712819507859375
97.01,1712819507875000
100.59,1712819507890625
104.03,1712819507906250
107.03,1712819507921875
109.35,1712819507937500
110.93,1712819507953125
111.9,1712819507968750
112.38,1712819507984375
112.39,1712819508000000
111.74,1712819508015625
110.04,1712819508031250
106.9,1712819508046875
102.13,1712819508062500
95.84,1712819508078125
88.36,1712819508093750
80.18,1712819508109375
71.77,1712819508125000
63.51,1712819508140625
55.76,1712819508156250
48.82,1712819508171875
42.88,1712819508187500
38.0,1712819508203125
34.03,1712819508218750
30.66,1712819508234375
27.56,1712819508250000
24.53,1712819508265625
21.56,1712819508281250
18.72,1712819508296875
16.01,1712819508312500
13.17,1712819508328125
9.62,1712819508343750
4.59,1712819508359375
-2.69,1712819508375000
-12.8,1712819508390625
-26.04,1712819508406250
-42.35,1712819508421875
-61.25,1712819508437500
-81.66,1712819508453125
-101.75,1712819508468750
-119.01,1712819508484375
-130.68,1712819508500000
-134.41,1712819508515625
-128.99,1712819508531250
-114.83,1712819508546875
-93.84,1712819508562500
-68.9,1712819508578125
-42.96,1712819508593750
-18.29,1712819508609375
3.84,1712819508625000
23.06,1712819508640625
39.52,1712819508656250
53.47,1712819508671875
65.01,1712819508687500
74.12,1712819508703125
80.78,1712819508718750
85.2,1712819508734375
87.84,1712819508750000
89.29,1712819508765625
90.03,1712819508781250
90.33,1712819508796875
90.2,1712819508812500
89.45,1712819508828125
87.87,1712819508843750
85.3,1712819508859375
81.72,1712819508875000
77.12,1712819508890625
71.51,1712819508906250
64.93,1712819508921875
57.49,1712819508937500
49.42,1712819508953125
41.02,1712819508968750
32.67,1712819508984375
24.58,1712819509000000
16.89,1712819509015625
9.54,1712819509031250
2.42,1712819509046875
-4.53,1712819509062500
-11.41,1712819509078125
-18.24,1712819509093750
-25.1,1712819509109375
-32.06,1712819509125000
-39.24,1712819509140625
-46.83,1712819509156250
-55.09,1712819509171875
-64.2,1712819509187500
-74.23,1712819509203125
-84.99,1712819509218750
-96.09,1712819509234375
-106.95,1712819509250000
-117.05,1712819509265625
-126.14,1712819509281250
-134.28,1712819509296875
-141.91,1712819509312500
-149.67,1712819509328125
-158.27,1712819509343750
-168.3,1712819509359375
-179.98,1712819509375000
-192.91,1712819509390625
-205.73,1712819509406250
-216.27,1712819509421875
-221.77,1712819509437500
-219.82,1712819509453125
-209.17,1712819509468750
-190.23,1712819509484375
-164.94,1712819509500000
-136.13,1712819509515625
-106.49,1712819509531250
-77.93,1712819509546875
-51.27,1712819509562500
-26.54,1712819509578125
-3.53,1712819509593750
17.87,1712819509609375
37.5,1712819509625000
55.07,1712819509640625
70.32,1712819509656250
83.15,1712819509671875
93.64,1712819509687500
101.93,1712819509703125
108.26,1712819509718750
112.82,1712819509734375
115.8,1712819509750000
117.37,1712819509765625
117.72,1712819509781250
117.1,1712819509796875
115.85,1712819509812500
114.28,1712819509828125
112.57,1712819509843750
110.7,1712819509859375
108.45,1712819509875000
105.48,1712819509890625
101.57,1712819509906250
96.76,1712819509921875
91.35,1712819509937500
85.86,1712819509953125
80.67,1712819509968750
75.93,1712819509984375
71.4,1712819510000000
66.6,1712819510015625
61.07,1712819510031250
54.52,1712819510046875
47.07,1712819510062500
39.21,1712819510078125
31.61,1712819510093750
24.85,1712819510109375
19.1,1712819510125000
13.98,1712819510140625
8.75,1712819510156250
2.53,1712819510171875
-5.17,1712819510187500
-14.23,1712819510203125
-23.86,1712819510218750
-32.84,1712819510234375
-39.94,1712819510250000
-44.4,1712819510265625
-46.21,1712819510281250
-46.09,1712819510296875
-45.36,1712819510312500
-45.42,1712819510328125
-47.27,1712819510343750
-51.14,1712819510359375
-56.17,1712819510375000
-60.52,1712819510390625
-61.72,1712819510406250
-57.4,1712819510421875
-46.04,1712819510437500
-27.59,1712819510453125
-3.74,1712819510468750
22.51,1712819510484375
47.5,1712819510500000
67.93,1712819510515625
81.68,1712819510531250
88.16,1712819510546875
88.27,1712819510562500
83.8,1712819510578125
76.71,1712819510593750
68.61,1712819510609375
60.49,1712819510625000
52.88,1712819510640625
46.04,1712819510656250
40.31,1712819510671875
36.05,1712819510687500
33.6,1712819510703125
33.01,1712819510718750
33.88,1712819510734375
35.52,1712819510750000
37.15,1712819510765625
38.14,1712819510781250
38.21,1712819510796875
37.34,1712819510812500
35.64,1712819510828125
33.2,1712819510843750
29.98,1712819510859375
25.96,1712819510875000
21.11,1712819510890625
15.58,1712819510906250
9.63,1712819510921875
3.61,1712819510937500
-2.14,1712819510953125
-7.31,1712819510968750
-11.77,1712819510984375
-15.63,1712819511000000
-19.29,1712819511015625
-23.33,1712819511031250
-28.4,1712819511046875
-34.87,1712819511062500
-42.67,1712819511078125
-51.31,1712819511093750
-60.04,1712819511109375
-68.14,1712819511125000
-75.18,1712819511140625
-81.15,1712819511156250
-86.45,1712819511171875
-91.74,1712819511187500
-97.76,1712819511203125
-105.21,1712819511218750
-114.54,1712819511234375
-125.77,1712819511250000
-138.26,1712819511265625
-150.63,1712819511281250
-160.84,1712819511296875
-166.63,1712819511312500
-166.06,1712819511328125
-158.11,1712819511343750
-143.0,1712819511359375
-122.15,1712819511375000
-97.7,1712819511390625
-71.92,1712819511406250
-46.59,1712819511421875
-22.77,1712819511437500
-0.84,1712819511453125
19.16,1712819511468750
37.2,1712819511484375
53.01,1712819511500000
66.19,1712819511515625
76.41,1712819511531250
83.61,1712819511546875
88.14,1712819511562500
90.64,1712819511578125
91.85,1712819511593750
92.39,1712819511609375
92.69,1712819511625000
92.99,1712819511640625
93.36,1712819511656250
93.81,1712819511671875
94.22,1712819511687500
94.38,1712819511703125
93.98,1712819511718750
92.71,1712819511734375
90.36,1712819511750000
86.92,1712819511765625
82.5,1712819511781250
77.27,1712819511796875
71.42,1712819511812500
65.07,1712819511828125
58.34,1712819511843750
51.31,1712819511859375
44.06,1712819511875000
36.65,1712819511890625
29.09,1712819511906250
21.41,1712819511921875
13.66,1712819511937500
5.85,1712819511953125
-2.04,1712819511968750
-10.13,1712819511984375
-18.6,1712819512000000
-27.62,1712819512015625
-37.2,1712819512031250
-47.15,1712819512046875
-57.11,1712819512062500
-66.7,1712819512078125
-75.7,1712819512093750
-84.17,1712819512109375
-92.51,1712819512125000
-101.36,1712819512140625
-111.43,1712819512156250
-123.29,1712819512171875
-136.96,1712819512187500
-151.7,1712819512203125
-165.81,1712819512218750
-176.92,1712819512234375
-182.44,1712819512250000
-180.31,1712819512265625
-169.66,1712819512281250
-151.13,1712819512296875
-126.72,1712819512312500
-99.04,1712819512328125
-70.67,1712819512343750
-43.43,1712819512359375
-18.17,1712819512375000
5.05,1712819512390625
26.51,1712819512406250
46.36,1712819512421875
64.43,1712819512437500
80.22,1712819512453125
93.22,1712819512468750
103.13,1712819512484375
110.11,1712819512500000
114.67,1712819512515625
117.47,1712819512531250
119.06,1712819512546875
119.72,1712819512562500
119.49,1712819512578125
118.36,1712819512593750
116.44,1712819512609375
114.05,1712819512625000
111.61,1712819512640625
109.36,1712819512656250
107.23,1712819512671875
104.75,1712819512687500
101.26,1712819512703125
96.15,1712819512718750
89.2,1712819512734375
80.68,1712819512750000
71.34,1712819512765625
62.16,1712819512781250
54.01,1712819512796875
47.29,1712819512812500
41.86,1712819512828125
37.01,1712819512843750
31.84,1712819512859375
25.61,1712819512875000
18.08,1712819512890625
9.56,1712819512906250
0.74,1712819512921875
-7.69,1712819512937500
-15.34,1712819512953125
-22.3,1712819512968750
-29.06,1712819512984375
-36.24,1712819513000000
-44.32,1712819513015625
-53.47,1712819513031250
-63.49,1712819513046875
-73.88,1712819513062500
-84.06,1712819513078125
-93.58,1712819513093750
-102.25,1712819513109375
-110.36,1712819513125000
-118.57,1712819513140625
-127.76,1712819513156250
-138.71,1712819513171875
-151.75,1712819513187500
-166.39,1712819513203125
-181.2,1712819513218750
-194.0,1712819513234375
-202.16,1712819513250000
-203.31,1712819513265625
-195.89,1712819513281250
-179.64,1712819513296875
-155.64,1712819513312500
-125.99,1712819513328125
-93.26,1712819513343750
-59.79,1712819513359375
-27.36,1712819513375000
3.08,1712819513390625
31.11,1712819513406250
56.68,1712819513421875
79.8,1712819513437500
100.42,1712819513453125
118.36,1712819513468750
133.45,1712819513484375
145.66,1712819513500000
155.17,1712819513515625
162.37,1712819513531250
167.69,1712819513546875
171.55,1712819513562500
174.24,1712819513578125
175.94,1712819513593750
176.89,1712819513609375
177.33,1712819513625000
177.56,1712819513640625
177.64,1712819513656250
177.38,1712819513671875
176.24,1712819513687500
173.66,1712819513703125
169.34,1712819513718750
163.46,1712819513734375
156.67,1712819513750000
149.78,1712819513765625
143.38,1712819513781250
137.53,1712819513796875
131.77,1712819513812500
125.39,1712819513828125
117.79,1712819513843750
108.78,1712819513859375
98.6,1712819513875000
87.81,1712819513890625
76.95,1712819513906250
66.42,1712819513921875
56.34,1712819513937500
46.65,1712819513953125
37.2,1712819513968750
27.83,1712819513984375
18.49,1712819514000000
9.16,1712819514015625
-0.07,1712819514031250
-9.09,1712819514046875
-17.76,1712819514062500
-26.12,1712819514078125
-34.4,1712819514093750
-43.12,1712819514109375
-52.98,1712819514125000
-64.64,1712819514140625
-78.4,1712819514156250
-93.92,1712819514171875
-110.1,1712819514187500
-125.08,1712819514203125
-136.75,1712819514218750
-143.22,1712819514234375
-143.46,1712819514250000
-137.6,1712819514265625
-126.93,1712819514281250
-113.49,1712819514296875
-99.41,1712819514312500
-86.36,1712819514328125
-75.14,1712819514343750
-65.78,1712819514359375
-57.84,1712819514375000
-50.83,1712819514390625
-44.46,1712819514406250
-38.66,1712819514421875
-33.44,1712819514437500
-28.64,1712819514453125
-23.9,1712819514468750
-18.73,1712819514484375
-12.82,1712819514500000
-6.19,1712819514515625
0.8,1712819514531250
7.52,1712819514546875
13.42,1712819514562500
18.17,1712819514578125
21.77,1712819514593750
24.41,1712819514609375
26.27,1712819514625000
27.37,1712819514640625
27.58,1712819514656250
26.7,1712819514671875
24.6,1712819514687500
21.38,1712819514703125
17.35,1712819514718750
12.9,1712819514734375
8.33,1712819514750000
3.78,1712819514765625
-0.85,1712819514781250
-5.75,1712819514796875
-11.06,1712819514812500
-16.77,1712819514828125
-22.68,1712819514843750
-28.52,1712819514859375
-34.08,1712819514875000
-39.43,1712819514890625
-44.85,1712819514906250
-50.77,1712819514921875
-57.58,1712819514937500
-65.41,1712819514953125
-74.1,1712819514968750
-83.17,1712819514984375
-92.07,1712819515000000
-100.36,1712819515015625
-107.93,1712819515031250
-115.06,1712819515046875
-122.42,1712819515062500
-130.85,1712819515078125
-141.08,1712819515093750
-153.36,1712819515109375
-167.03,1712819515125000
-180.42,1712819515140625
-190.99,1712819515156250
-196.0,1712819515171875
-193.28,1712819515187500
-181.95,1712819515203125
-162.67,1712819515218750
-137.45,1712819515234375
-108.91,1712819515250000
-79.52,1712819515265625
-51.09,1712819515281250
-24.56,1712819515296875
-0.25,1712819515312500
21.72,1712819515328125
41.22,1712819515343750
58.01,1712819515359375
71.79,1712819515375000
82.52,1712819515390625
90.46,1712819515406250
96.2,1712819515421875
100.41,1712819515437500
103.72,1712819515453125
106.45,1712819515468750
108.65,1712819515484375
110.17,1712819515500000
110.92,1712819515515625
111.03,1712819515531250
110.76,1712819515546875
110.41,1712819515562500
110.13,1712819515578125
109.73,1712819515593750
108.73,1712819515609375
106.56,1712819515625000
102.81,1712819515640625
97.43,1712819515656250
90.81,1712819515671875
83.64,1712819515687500
76.64,1712819515703125
70.29,1712819515718750
64.64,1712819515734375
59.32,1712819515750000
53.77,1712819515765625
47.48,1712819515781250
40.33,1712819515796875
32.58,1712819515812500
24.74,1712819515828125
17.33,1712819515843750
10.6,1712819515859375
4.37,1712819515875000
-1.88,1712819515890625
-8.79,1712819515906250
-16.88,1712819515921875
-26.31,1712819515937500
-36.83,1712819515953125
-47.83,1712819515968750
-58.59,1712819515984375
-68.52,1712819516000000
-77.39,1712819516015625
-85.43,1712819516031250
-93.28,1712819516046875
-101.85,1712819516062500
-112.04,1712819516078125
-124.38,1712819516093750
-138.73,1712819516109375
-153.97,1712819516125000
-168.04,1712819516140625
-178.23,1712819516156250
-181.82,1712819516171875
-176.91,1712819516187500
-163.06,1712819516203125
-141.47,1712819516218750
-114.65,1712819516234375
-85.6,1712819516250000
-56.94,1712819516265625
-30.35,1712819516281250
-6.4,1712819516296875
15.04,1712819516312500
34.31,1712819516328125
51.46,1712819516343750
66.29,1712819516359375
78.47,1712819516375000
87.81,1712819516390625
94.51,1712819516406250
99.07,1712819516421875
102.14,1712819516437500
104.24,1712819516453125
105.65,1712819516468750
106.43,1712819516484375
106.6,1712819516500000
106.28,1712819516515625
105.69,1712819516531250
105.1,1712819516546875
104.59,1712819516562500
103.95,1712819516578125
102.74,1712819516593750
100.48,1712819516609375
96.84,1712819516625000
91.86,1712819516640625
85.88,1712819516656250
79.46,1712819516671875
73.02,1712819516687500
66.8,1712819516703125
60.69,1712819516718750
54.43,1712819516734375
47.7,1712819516750000
40.33,1712819516765625
32.44,1712819516781250
24.31,1712819516796875
16.35,1712819516812500
8.85,1712819516828125
1.84,1712819516843750
-4.93,1712819516859375
-11.88,1712819516875000
-19.38,1712819516890625
-27.61,1712819516906250
-36.46,1712819516921875
-45.65,1712819516937500
-54.86,1712819516953125
-63.83,1712819516968750
-72.54,1712819516984375
-81.19,1712819517000000
-90.17,1712819517015625
-100.05,1712819517031250
-111.37,1712819517046875
-124.34,1712819517062500
-138.46,1712819517078125
-152.27,1712819517093750
-163.38,1712819517109375
-169.03,1712819517125000
-166.96,1712819517140625
-156.2,1712819517156250
-137.53,1712819517171875
-113.13,1712819517187500
-85.9,1712819517203125
-58.48,1712819517218750
-32.58,1712819517234375
-8.96,1712819517250000
12.29,1712819517265625
31.2,1712819517281250
47.65,1712819517296875
61.3,1712819517312500
71.84,1712819517328125
79.26,1712819517343750
84.0,1712819517359375
86.78,1712819517375000
88.43,1712819517390625
89.55,1712819517406250
90.47,1712819517421875
91.24,1712819517437500
91.78,1712819517453125
91.93,1712819517468750
91.62,1712819517484375
90.83,1712819517500000
89.57,1712819517515625
87.79,1712819517531250
85.36,1712819517546875
82.07,1712819517562500
77.75,1712819517578125
72.23,1712819517593750
65.53,1712819517609375
57.82,1712819517625000
49.43,1712819517640625
40.73,1712819517656250
32.03,1712819517671875
23.48,1712819517687500
15.07,1712819517703125
6.71,1712819517718750
-1.74,1712819517734375
-10.37,1712819517750000
-19.26,1712819517765625
-28.56,1712819517781250
-38.47,1712819517796875
-49.15,1712819517812500
-60.56,1712819517828125
-72.45,1712819517843750
-84.36,1712819517859375
-95.85,1712819517875000
-106.79,1712819517890625
-117.48,1712819517906250
-128.61,1712819517921875
-140.94,1712819517937500
-154.89,1712819517953125
-170.1,1712819517968750
-185.21,1712819517984375
-198.05,1712819518000000
-206.02,1712819518015625
-206.87,1712819518031250
-199.25,1712819518046875
-183.19,1712819518062500
-160.01,1712819518078125
-131.97,1712819518093750
-101.58,1712819518109375
-71.04,1712819518125000
-41.83,1712819518140625
-14.66,1712819518156250
10.37,1712819518171875
33.42,1712819518187500
54.64,1712819518203125
73.98,1712819518218750
91.2,1712819518234375
105.99,1712819518250000
118.2,1712819518265625
127.93,1712819518281250
135.59,1712819518296875
141.63,1712819518312500
146.43,1712819518328125
150.08,1712819518343750
152.45,1712819518359375
153.41,1712819518375000
153.0,1712819518390625
151.43,1712819518406250
149.05,1712819518421875
146.06,1712819518437500
142.4,1712819518453125
137.77,1712819518468750
131.84,1712819518484375
124.49,1712819518500000
115.93,1712819518515625
106.71,1712819518531250
97.42,1712819518546875
88.49,1712819518562500
80.01,1712819518578125
71.73,1712819518593750
63.32,1712819518609375
54.59,1712819518625000
45.59,1712819518640625
36.61,1712819518656250
27.94,1712819518671875
19.65,1712819518687500
11.5,1712819518703125
3.0,1712819518718750
-6.33,1712819518734375
-16.76,1712819518750000
-28.22,1712819518765625
-40.32,1712819518781250
-52.61,1712819518796875
-64.62,1712819518812500
-76.14,1712819518828125
-87.15,1712819518843750
-97.88,1712819518859375
-108.69,1712819518875000
-120.1,1712819518890625
-132.55,1712819518906250
-146.23,1712819518921875
-160.65,1712819518937500
-174.39,1712819518953125
-185.1,1712819518968750
-189.94,1712819518984375
-186.45,1712819519000000
-173.38,1712819519015625
-151.18,1712819519031250
-121.95,1712819519046875
-88.54,1712819519062500
-53.66,1712819519078125
-19.18,1712819519093750
14.07,1712819519109375
45.81,1712819519125000
75.82,1712819519140625
103.5,1712819519156250
128.02,1712819519171875
148.66,1712819519187500
165.15,1712819519203125
177.8,1712819519218750
187.29,1712819519234375
194.24,1712819519250000
198.96,1712819519265625
201.39,1712819519281250
201.28,1712819519296875
198.66,1712819519312500
193.93,1712819519328125
188.02,1712819519343750
182.08,1712819519359375
177.17,1712819519375000
173.9,1712819519390625
172.27,1712819519406250
171.79,1712819519421875
171.64,1712819519437500
170.97,1712819519453125
169.11,1712819519468750
165.62,1712819519484375
160.32,1712819519500000
153.24,1712819519515625
144.5,1712819519531250
134.22,1712819519546875
122.42,1712819519562500
108.92,1712819519578125
93.44,1712819519593750
75.74,1712819519609375
55.87,1712819519625000
34.22,1712819519640625
11.6,1712819519656250
-11.07,1712819519671875
-32.97,1712819519687500
-53.64,1712819519703125
-73.08,1712819519718750
-91.44,1712819519734375
-108.91,1712819519750000
-125.42,1712819519765625
-140.57,1712819519781250
-153.8,1712819519796875
-164.58,1712819519812500
-172.71,1712819519828125
-178.46,1712819519843750
-182.56,1712819519859375
-186.06,1712819519875000
-190.04,1712819519890625
-195.25,1712819519906250
-201.93,1712819519921875
-209.55,1712819519937500
-216.8,1712819519953125
-221.73,1712819519968750
-222.04,1712819519984375
-215.65,1712819520000000
-201.22,1712819520015625
-178.69,1712819520031250
-149.46,1712819520046875
-116.09,1712819520062500
-81.63,1712819520078125
-48.8,1712819520093750
-19.32,1712819520109375
6.31,1712819520125000
28.47,1712819520140625
47.84,1712819520156250
64.86,1712819520171875
79.47,1712819520187500
91.27,1712819520203125
99.83,1712819520218750
105.07,1712819520234375
107.33,1712819520250000
107.2,1712819520265625
105.33,1712819520281250
102.19,1712819520296875
97.99,1712819520312500
92.82,1712819520328125
86.7,1712819520343750
79.7,1712819520359375
72.01,1712819520375000
63.94,1712819520390625
55.88,1712819520406250
48.18,1712819520421875
41.1,1712819520437500
34.63,1712819520453125
28.55,1712819520468750
22.5,1712819520484375
16.16,1712819520500000
9.42,1712819520515625
2.45,1712819520531250
-4.36,1712819520546875
-10.56,1712819520562500
-15.73,1712819520578125
-19.68,1712819520593750
-22.4,1712819520609375
-24.11,1712819520625000
-25.14,1712819520640625
-25.91,1712819520656250
-26.78,1712819520671875
-27.93,1712819520687500
-29.35,1712819520703125
-30.86,1712819520718750
-32.13,1712819520734375
-32.86,1712819520750000
-32.85,1712819520765625
-32.12,1712819520781250
-31.05,1712819520796875
-30.4,1712819520812500
-31.01,1712819520828125
-33.31,1712819520843750
-36.62,1712819520859375
-38.81,1712819520875000
-36.75,1712819520890625
-27.24,1712819520906250
-8.34,1712819520921875
19.86,1712819520937500
55.36,1712819520953125
95.09,1712819520968750
136.13,1712819520984375
176.48,1712819521000000
215.06,1712819521015625
251.13,1712819521031250
283.68,1712819521046875
311.05,1712819521062500
331.04,1712819521078125
341.49,1712819521093750
340.89,1712819521109375
328.9,1712819521125000
306.58,1712819521140625
276.13,1712819521156250
240.44,1712819521171875
202.5,1712819521187500
164.81,1712819521203125
128.96,1712819521218750
95.58,1712819521234375
64.53,1712819521250000
35.23,1712819521265625
7.34,1712819521281250
-18.53,1712819521296875
-40.3,1712819521312500
-54.38,1712819521328125
-56.86,1712819521343750
-45.31,1712819521359375
-20.62,1712819521375000
12.3,1712819521390625
45.68,1712819521406250
71.49,1712819521421875
84.38,1712819521437500
83.25,1712819521453125
70.77,1712819521468750
51.37,1712819521484375
28.8,1712819521500000
4.75,1712819521515625
-20.97,1712819521531250
-49.04,1712819521546875
-79.26,1712819521562500
-109.83,1712819521578125
-137.86,1712819521593750
-160.51,1712819521609375
-176.19,1712819521625000
-185.09,1712819521640625
-189.09,1712819521656250
-190.86,1712819521671875
-192.81,1712819521687500
-196.28,1712819521703125
-201.25,1712819521718750
-206.69,1712819521734375
-211.31,1712819521750000
-214.27,1712819521765625
-215.58,1712819521781250
-215.88,1712819521796875
-216.02,1712819521812500
-216.47,1712819521828125
-217.08,1712819521843750
-217.23,1712819521859375
-216.21,1712819521875000
-213.66,1712819521890625
-209.88,1712819521906250
-205.84,1712819521921875
-202.87,1712819521937500
-202.19,1712819521953125
-204.52,1712819521968750
-209.71,1712819521984375
-216.88,1712819522000000
-224.81,1712819522015625
-232.48,1712819522031250
-239.51,1712819522046875
-246.32,1712819522062500
-253.88,1712819522078125
-263.25,1712819522093750
-275.1,1712819522109375
-289.59,1712819522125000
-306.65,1712819522140625
-326.33,1712819522156250
-348.95,1712819522171875
-374.62,1712819522187500
-402.41,1712819522203125
-429.59,1712819522218750
-451.74,1712819522234375
-463.86,1712819522250000
-462.18,1712819522265625
-445.68,1712819522281250
-416.61,1712819522296875
-379.65,1712819522312500
-340.09,1712819522328125
-302.16,1712819522343750
-268.09,1712819522359375
-238.34,1712819522375000
-212.43,1712819522390625
-189.75,1712819522406250
-169.84,1712819522421875
-152.14,1712819522437500
-135.57,1712819522453125
-118.51,1712819522468750
-99.2,1712819522484375
-76.39,1712819522500000
-49.82,1712819522515625
-20.32,1712819522531250
10.63,1712819522546875
41.47,1712819522562500
71.16,1712819522578125
99.52,1712819522593750
127.19,1712819522609375
155.42,1712819522625000
185.47,1712819522640625
217.96,1712819522656250
252.14,1712819522671875
285.67,1712819522687500
314.91,1712819522703125
335.88,1712819522718750
345.53,1712819522734375
342.82,1712819522750000
328.89,1712819522765625
306.69,1712819522781250
279.89,1712819522796875
251.92,1712819522812500
225.47,1712819522828125
202.4,1712819522843750
184.08,1712819522859375
171.57,1712819522875000
165.5,1712819522890625
165.8,1712819522906250
171.41,1712819522921875
180.28,1712819522937500
189.62,1712819522953125
196.33,1712819522968750
197.53,1712819522984375
190.87,1712819523000000
175.06,1712819523015625
150.17,1712819523031250
117.85,1712819523046875
81.4,1712819523062500
45.4,1712819523078125
14.86,1712819523093750
-5.8,1712819523109375
-13.93,1712819523125000
-9.23,1712819523140625
6.26,1712819523156250
28.83,1712819523171875
54.32,1712819523187500
79.13,1712819523203125
100.88,1712819523218750
118.43,1712819523234375
131.72,1712819523250000
141.43,1712819523265625
149.05,1712819523281250
156.62,1712819523296875
166.21,1712819523312500
178.83,1712819523328125
193.45,1712819523343750
206.91,1712819523359375
215.0,1712819523375000
214.5,1712819523390625
204.8,1712819523406250
188.38,1712819523421875
169.65,1712819523437500
152.74,1712819523453125
139.77,1712819523468750
130.49,1712819523484375
123.15,1712819523500000
116.07,1712819523515625
108.69,1712819523531250
101.49,1712819523546875
95.1,1712819523562500
89.33,1712819523578125
83.28,1712819523593750
76.28,1712819523609375
69.36,1712819523625000
65.92,1712819523640625
70.8,1712819523656250
88.27,1712819523671875
119.6,1712819523687500
161.74,1712819523703125
207.82,1712819523718750
249.42,1712819523734375
279.37,1712819523750000
293.95,1712819523765625
293.33,1712819523781250
280.55,1712819523796875
259.68,1712819523812500
234.36,1712819523828125
207.26,1712819523843750
180.28,1712819523859375
155.08,1712819523875000
133.24,1712819523890625
116.04,1712819523906250
104.15,1712819523921875
97.38,1712819523937500
94.9,1712819523953125
95.46,1712819523968750
97.77,1712819523984375
100.65,1712819524000000
103.17,1712819524015625
104.7,1712819524031250
104.92,1712819524046875
103.8,1712819524062500
101.5,1712819524078125
98.17,1712819524093750
93.82,1712819524109375
88.14,1712819524125000
80.51,1712819524140625
70.16,1712819524156250
56.32,1712819524171875
38.27,1712819524187500
15.4,1712819524203125
-12.7,1712819524218750
-45.92,1712819524234375
-82.85,1712819524250000
-120.19,1712819524265625
-152.76,1712819524281250
-174.7,1712819524296875
-181.41,1712819524312500
-171.63,1712819524328125
-148.42,1712819524343750
-118.48,1712819524359375
-90.05,1712819524375000
-70.31,1712819524390625
-63.5,1712819524406250
-70.22,1712819524421875
-88.35,1712819524437500
-114.24,1712819524453125
-143.99,1712819524468750
-173.86,1712819524484375
-200.47,1712819524500000
-220.73,1712819524515625
-232.19,1712819524531250
-233.56,1712819524546875
-225.13,1712819524562500
-208.77,1712819524578125
-187.51,1712819524593750
-164.71,1712819524609375
-143.25,1712819524625000
-124.84,1712819524640625
-109.91,1712819524656250
-97.73,1712819524671875
-87.17,1712819524687500
-77.22,1712819524703125
-67.4,1712819524718750
-57.77,1712819524734375
-48.76,1712819524750000
-40.8,1712819524765625
-34.28,1712819524781250
-29.49,1712819524796875
-26.72,1712819524812500
-26.11,1712819524828125
-27.43,1712819524843750
-29.89,1712819524859375
-32.32,1712819524875000
-33.81,1712819524890625
-34.4,1712819524906250
-35.43,1712819524921875
-39.34,1712819524937500
-48.81,1712819524953125
-65.8,1712819524968750
-91.21,1712819524984375
-124.96,1712819525000000
-166.47,1712819525015625
-214.81,1712819525031250
-268.16,1712819525046875
-322.97,1712819525062500
-373.79,1712819525078125
-414.05,1712819525093750
-438.04,1712819525109375
-442.97,1712819525125000
-430.08,1712819525140625
-404.14,1712819525156250
-371.52,1712819525171875
-337.94,1712819525187500
-306.88,1712819525203125
-279.31,1712819525218750
-254.5,1712819525234375
-231.24,1712819525250000
-208.6,1712819525265625
-185.99,1712819525281250
-162.75,1712819525296875
-137.8,1712819525312500
-109.47,1712819525328125
-75.87,1712819525343750
-35.52,1712819525359375
11.86,1712819525375000
64.8,1712819525390625
119.89,1712819525406250
172.28,1712819525421875
216.81,1712819525437500
249.34,1712819525453125
267.93,1712819525468750
273.1,1712819525484375
267.38,1712819525500000
254.02,1712819525515625
236.03,1712819525531250
215.52,1712819525546875
194.01,1712819525562500
172.74,1712819525578125
153.13,1712819525593750
136.57,1712819525609375
123.96,1712819525625000
115.27,1712819525640625
109.39,1712819525656250
104.49,1712819525671875
98.66,1712819525687500
90.58,1712819525703125
79.82,1712819525718750
66.95,1712819525734375
53.21,1712819525750000
39.87,1712819525765625
27.78,1712819525781250
17.04,1712819525796875
7.06,1712819525812500
-2.98,1712819525828125
-13.56,1712819525843750
-24.32,1712819525859375
-34.09,1712819525875000
-41.41,1712819525890625
-45.18,1712819525906250
-45.19,1712819525921875
-42.12,1712819525937500
-37.17,1712819525953125
-31.42,1712819525968750
-25.39,1712819525984375
-18.93,1712819526000000
-11.39,1712819526015625
-2.13,1712819526031250
9.14,1712819526046875
22.2,1712819526062500
36.24,1712819526078125
50.29,1712819526093750
63.39,1712819526109375
74.83,1712819526125000
84.21,1712819526140625
91.3,1712819526156250
95.94,1712819526171875
97.99,1712819526187500
97.44,1712819526203125
94.64,1712819526218750
90.38,1712819526234375
85.79,1712819526250000
81.93,1712819526265625
79.44,1712819526281250
78.33,1712819526296875
78.01,1712819526312500
77.72,1712819526328125
76.73,1712819526343750
74.57,1712819526359375
70.92,1712819526375000
65.52,1712819526390625
58.12,1712819526406250
48.72,1712819526421875
37.71,1712819526437500
25.99,1712819526453125
14.69,1712819526468750
4.77,1712819526484375
-3.43,1712819526500000
-10.23,1712819526515625
-16.51,1712819526531250
-23.25,1712819526546875
-31.07,1712819526562500
-40.1,1712819526578125
-49.95,1712819526593750
-59.96,1712819526609375
-69.5,1712819526625000
-78.19,1712819526640625
-85.99,1712819526656250
-93.17,1712819526671875
-100.23,1712819526687500
-107.9,1712819526703125
-116.97,1712819526718750
-127.96,1712819526734375
-140.76,1712819526750000
-154.12,1712819526765625
-165.52,1712819526781250
-171.56,1712819526796875
-168.9,1712819526812500
-155.47,1712819526828125
-131.32,1712819526843750
-98.77,1712819526859375
-61.61,1712819526875000
-23.85,1712819526890625
11.41,1712819526906250
42.48,1712819526921875
68.78,1712819526937500
90.17,1712819526953125
106.43,1712819526968750
117.29,1712819526984375
122.79,1712819527000000
123.74,1712819527015625
121.74,1712819527031250
118.73,1712819527046875
116.24,1712819527062500
114.86,1712819527078125
114.12,1712819527093750
112.89,1712819527109375
110.04,1712819527125000
105.12,1712819527140625
98.43,1712819527156250
90.92,1712819527171875
83.55,1712819527187500
76.93,1712819527203125
70.98,1712819527218750
65.12,1712819527234375
58.6,1712819527250000
50.95,1712819527265625
42.2,1712819527281250
32.94,1712819527296875
23.98,1712819527312500
15.95,1712819527328125
9.02,1712819527343750
2.74,1712819527359375
-3.83,1712819527375000
-11.77,1712819527390625
-21.91,1712819527406250
-34.5,1712819527421875
-49.09,1712819527437500
-64.53,1712819527453125
-79.29,1712819527468750
-91.76,1712819527484375
-100.74,1712819527500000
-105.77,1712819527515625
-107.45,1712819527531250
-107.53,1712819527546875
-108.66,1712819527562500
-113.71,1712819527578125
-124.85,1712819527593750
-142.63,1712819527609375
-165.4,1712819527625000
-189.35,1712819527640625
-209.54,1712819527656250
-221.38,1712819527671875
-222.14,1712819527687500
-211.86,1712819527703125
-193.27,1712819527718750
-170.76,1712819527734375
-148.88,1712819527750000
-130.99,1712819527765625
-118.55,1712819527781250
-111.26,1712819527796875
-107.8,1712819527812500
-106.7,1712819527828125
-106.9,1712819527843750
-107.89,1712819527859375
-109.38,1712819527875000
-111.02,1712819527890625
-112.2,1712819527906250
-112.07,1712819527921875
-109.78,1712819527937500
-104.49,1712819527953125
-95.36,1712819527968750
-81.51,1712819527984375
-62.24,1712819528000000
-37.38,1712819528015625
-7.72,1712819528031250
24.83,1712819528046875
57.54,1712819528062500
87.49,1712819528078125
112.29,1712819528093750
130.48,1712819528109375
141.59,1712819528125000
145.87,1712819528140625
144.05,1712819528156250
137.15,1712819528171875
126.45,1712819528187500
113.27,1712819528203125
98.76,1712819528218750
83.61,1712819528234375
67.99,1712819528250000
51.76,1712819528265625
34.84,1712819528281250
17.6,1712819528296875
0.75,1712819528312500
-14.86,1712819528328125
-28.79,1712819528343750
-41.31,1712819528359375
-53.3,1712819528375000
-66.04,1712819528390625
-80.72,1712819528406250
-98.0,1712819528421875
-117.76,1712819528437500
-138.78,1712819528453125
-158.67,1712819528468750
-174.25,1712819528484375
-182.12,1712819528500000
-179.58,1712819528515625
-165.44,1712819528531250
-140.37,1712819528546875
-106.79,1712819528562500
-68.15,1712819528578125
-28.21,1712819528593750
9.65,1712819528609375
42.81,1712819528625000
69.57,1712819528640625
89.26,1712819528656250
102.11,1712819528671875
109.22,1712819528687500
112.15,1712819528703125
112.52,1712819528718750
111.69,1712819528734375
110.53,1712819528750000
109.6,1712819528765625
109.27,1712819528781250
109.87,1712819528796875
111.6,1712819528812500
114.44,1712819528828125
118.01,1712819528843750
121.71,1712819528859375
124.85,1712819528875000
126.83,1712819528890625
127.29,1712819528906250
126.08,1712819528921875
123.23,1712819528937500
118.87,1712819528953125
113.29,1712819528968750
106.75,1712819528984375
99.46,1712819529000000
91.44,1712819529015625
82.49,1712819529031250
72.31,1712819529046875
60.73,1712819529062500
47.88,1712819529078125
34.24,1712819529093750
20.44,1712819529109375
7.02,1712819529125000
-5.9,1712819529140625
-18.68,1712819529156250
-32.02,1712819529171875
-46.7,1712819529187500
-63.1,1712819529203125
-80.98,1712819529218750
-99.24,1712819529234375
-116.0,1712819529250000
-128.81,1712819529265625
-135.14,1712819529281250
-132.88,1712819529296875
-120.88,1712819529312500
-99.31,1712819529328125
-69.75,1712819529343750
-34.84,1712819529359375
2.2,1712819529375000
38.29,1712819529390625
71.02,1712819529406250
98.85,1712819529421875
121.14,1712819529437500
137.77,1712819529453125
148.96,1712819529468750
155.15,1712819529484375
157.02,1712819529500000
155.61,1712819529515625
152.28,1712819529531250
148.47,1712819529546875
145.28,1712819529562500
143.22,1712819529578125
142.14,1712819529593750
141.39,1712819529609375
140.3,1712819529625000
138.51,1712819529640625
136.01,1712819529656250
133.02,1712819529671875
129.72,1712819529687500
125.93,1712819529703125
121.12,1712819529718750
114.66,1712819529734375
106.05,1712819529750000
95.34,1712819529765625
83.17,1712819529781250
70.57,1712819529796875
58.65,1712819529812500
48.06,1712819529828125
38.8,1712819529843750
30.19,1712819529859375
21.24,1712819529875000
11.01,1712819529890625
-0.91,1712819529906250
-14.28,1712819529921875
-28.38,1712819529937500
-42.32,1712819529953125
-55.44,1712819529968750
-67.56,1712819529984375
-79.12,1712819530000000
-90.97,1712819530015625
-104.13,1712819530031250
-119.21,1712819530046875
-135.94,1712819530062500
-152.76,1712819530078125
-166.83,1712819530093750
-174.68,1712819530109375
-173.13,1712819530125000
-160.38,1712819530140625
-136.66,1712819530156250
-104.21,1712819530171875
-66.61,1712819530187500
-27.71,1712819530203125
9.28,1712819530218750
42.33,1712819530234375
70.48,1712819530250000
93.53,1712819530265625
111.5,1712819530281250
124.42,1712819530296875
132.43,1712819530312500
135.94,1712819530328125
135.81,1712819530343750
133.42,1712819530359375
130.31,1712819530375000
127.83,1712819530390625
126.73,1712819530406250
127.04,1712819530421875
128.18,1712819530437500
129.35,1712819530453125
129.91,1712819530468750
129.54,1712819530484375
128.22,1712819530500000
125.99,1712819530515625
122.79,1712819530531250
118.33,1712819530546875
112.26,1712819530562500
104.35,1712819530578125
94.68,1712819530593750
83.77,1712819530609375
72.41,1712819530625000
61.41,1712819530640625
51.34,1712819530656250
42.22,1712819530671875
33.51,1712819530687500
24.32,1712819530703125
13.87,1712819530718750
1.89,1712819530734375
-11.07,1712819530750000
-23.86,1712819530765625
-35.32,1712819530781250
-44.83,1712819530796875
-52.78,1712819530812500
-60.42,1712819530828125
-69.35,1712819530843750
-80.84,1712819530859375
-95.23,1712819530875000
-111.68,1712819530890625
-128.35,1712819530906250
-142.7,1712819530921875
-151.93,1712819530937500
-153.49,1712819530953125
-145.66,1712819530968750
-128.0,1712819530984375
-101.72,1712819531000000
-69.5,1712819531015625
-34.94,1712819531031250
-1.65,1712819531046875
27.6,1712819531062500
51.34,1712819531078125
69.39,1712819531093750
82.38,1712819531109375
91.19,1712819531125000
96.56,1712819531140625
98.91,1712819531156250
98.58,1712819531171875
96.01,1712819531187500
91.98,1712819531203125
87.56,1712819531218750
83.86,1712819531234375
81.67,1712819531250000
81.14,1712819531265625
81.73,1712819531281250
82.34,1712819531296875
81.78,1712819531312500
79.17,1712819531328125
74.3,1712819531343750
67.55,1712819531359375
59.65,1712819531375000
51.28,1712819531390625
42.84,1712819531406250
34.34,1712819531421875
25.59,1712819531437500
16.39,1712819531453125
6.82,1712819531468750
-2.85,1712819531484375
-12.26,1712819531500000
-21.23,1712819531515625
-29.87,1712819531531250
-38.55,1712819531546875
-47.68,1712819531562500
-57.39,1712819531578125
-67.4,1712819531593750
-77.2,1712819531609375
-86.41,1712819531625000
-95.21,1712819531640625
-104.24,1712819531656250
-114.13,1712819531671875
-124.69,1712819531687500
-134.32,1712819531703125
-140.07,1712819531718750
-138.57,1712819531734375
-127.3,1712819531750000
-105.76,1712819531765625
-75.79,1712819531781250
-40.88,1712819531796875
-4.91,1712819531812500
28.96,1712819531828125
58.82,1712819531843750
83.77,1712819531859375
103.27,1712819531875000
116.71,1712819531890625
123.42,1712819531906250
123.2,1712819531921875
116.93,1712819531937500
106.62,1712819531953125
95.0,1712819531968750
84.54,1712819531984375
76.54,1712819532000000
70.74,1712819532015625
65.68,1712819532031250
59.59,1712819532046875
51.27,1712819532062500
40.67,1712819532078125
28.77,1712819532093750
17.01,1712819532109375
6.69,1712819532125000
-1.46,1712819532140625
-7.26,1712819532156250
-10.82,1712819532171875
-12.37,1712819532187500
-12.17,1712819532203125
-10.69,1712819532218750
-8.75,1712819532234375
-7.37,1712819532250000
-7.38,1712819532265625
-9.11,1712819532281250
-12.34,1712819532296875
-16.69,1712819532312500
-22.45,1712819532328125
-31.09,1712819532343750
-45.19,1712819532359375
-67.62,1712819532375000
-100.33,1712819532390625
-143.39,1712819532406250
-194.71,1712819532421875
-250.55,1712819532437500
-306.25,1712819532453125
-356.86,1712819532468750
-397.56,1712819532484375
-423.82,1712819532500000
-432.14,1712819532515625
-420.71,1712819532531250
-390.15,1712819532546875
-343.59,1712819532562500
-285.94,1712819532578125
-222.65,1712819532593750
-158.72,1712819532609375
-98.12,1712819532625000
-43.74,1712819532640625
2.25,1712819532656250
38.61,1712819532671875
65.12,1712819532687500
82.76,1712819532703125
93.41,1712819532718750
99.19,1712819532734375
101.71,1712819532750000
101.89,1712819532765625
100.21,1712819532781250
97.28,1712819532796875
94.28,1712819532812500
92.81,1712819532828125
94.45,1712819532843750
100.11,1712819532859375
109.71,1712819532875000
122.15,1712819532890625
135.57,1712819532906250
147.73,1712819532921875
156.31,1712819532937500
159.5,1712819532953125
156.25,1712819532968750
146.66,1712819532984375
132.15,1712819533000000
115.22,1712819533015625
98.88,1712819533031250
85.91,1712819533046875
78.01,1712819533062500
75.31,1712819533078125
76.49,1712819533093750
79.33,1712819533109375
81.52,1712819533125000
81.51,1712819533140625
78.86,1712819533156250
74.01,1712819533171875
67.72,1712819533187500
60.31,1712819533203125
51.28,1712819533218750
39.49,1712819533234375
23.75,1712819533250000
3.66,1712819533265625
-19.69,1712819533281250
-43.59,1712819533296875
-64.23,1712819533312500
-77.84,1712819533328125
-81.79,1712819533343750
-75.65,1712819533359375
-61.25,1712819533375000
-42.03,1712819533390625
-21.69,1712819533406250
-2.88,1712819533421875
13.52,1712819533437500
28.2,1712819533453125
42.47,1712819533468750
57.17,1712819533484375
71.99,1712819533500000
85.52,1712819533515625
95.91,1712819533531250
101.85,1712819533546875
103.25,1712819533562500
101.34,1712819533578125
98.18,1712819533593750
95.8,1712819533609375
95.44,1712819533625000
97.22,1712819533640625
100.37,1712819533656250
103.79,1712819533671875
106.66,1712819533687500
108.52,1712819533703125
109.21,1712819533718750
108.47,1712819533734375
105.84,1712819533750000
100.76,1712819533765625
92.91,1712819533781250
82.57,1712819533796875
70.59,1712819533812500
58.13,1712819533828125
46.25,1712819533843750
35.46,1712819533859375
25.6,1712819533875000
16.08,1712819533890625
6.12,1712819533906250
-4.87,1712819533921875
-17.06,1712819533937500
-30.14,1712819533953125
-43.28,1712819533968750
-55.48,1712819533984375
-65.85,1712819534000000
-74.06,1712819534015625
-80.58,1712819534031250
-86.58,1712819534046875
-93.47,1712819534062500
-102.27,1712819534078125
-113.01,1712819534093750
-124.47,1712819534109375
-134.32,1712819534125000
-139.82,1712819534140625
-138.58,1712819534156250
-129.38,1712819534171875
-112.57,1712819534187500
-89.94,1712819534203125
-64.1,1712819534218750
-37.8,1712819534234375
-13.18,1712819534250000
8.52,1712819534265625
26.88,1712819534281250
41.88,1712819534296875
53.51,1712819534312500
61.57,1712819534328125
65.71,1712819534343750
65.84,1712819534359375
62.41,1712819534375000
56.6,1712819534390625
50.04,1712819534406250
44.3,1712819534421875
40.32,1712819534437500
38.16,1712819534453125
37.08,1712819534468750
36.0,1712819534484375
34.07,1712819534500000
31.0,1712819534515625
27.07,1712819534531250
22.79,1712819534546875
18.55,1712819534562500
14.34,1712819534578125
9.79,1712819534593750
4.39,1712819534609375
-2.19,1712819534625000
-9.98,1712819534640625
-18.61,1712819534656250
-27.51,1712819534671875
-36.12,1712819534687500
-44.03,1712819534703125
-51.12,1712819534718750
-57.59,1712819534734375
-63.86,1712819534750000
-70.5,1712819534765625
-78.1,1712819534781250
-87.2,1712819534796875
-97.98,1712819534812500
-110.14,1712819534828125
-122.68,1712819534843750
-133.81,1712819534859375
-141.24,1712819534875000
-142.62,1712819534890625
-136.28,1712819534906250
-121.83,1712819534921875
-100.41,1712819534937500
-74.41,1712819534953125
-46.87,1712819534968750
-20.59,1712819534984375
2.42,1712819535000000
21.19,1712819535015625
35.53,1712819535031250
45.66,1712819535046875
51.88,1712819535062500
54.49,1712819535078125
53.95,1712819535093750
51.02,1712819535109375
46.81,1712819535125000
42.56,1712819535140625
39.28,1712819535156250
37.51,1712819535171875
37.12,1712819535187500
37.51,1712819535203125
37.8,1712819535218750
37.23,1712819535234375
35.29,1712819535250000
31.85,1712819535265625
27.12,1712819535281250
21.46,1712819535296875
15.31,1712819535312500
9.03,1712819535328125
2.81,1712819535343750
-3.38,1712819535359375
-9.69,1712819535375000
-16.39,1712819535390625
-23.71,1712819535406250
-31.72,1712819535421875
-40.35,1712819535437500
-49.33,1712819535453125
-58.36,1712819535468750
-67.2,1712819535484375
-75.81,1712819535500000
-84.4,1712819535515625
-93.42,1712819535531250
-103.4,1712819535546875
-114.83,1712819535562500
-127.87,1712819535578125
-142.11,1712819535593750
-156.43,1712819535609375
-169.0,1712819535625000
-177.5,1712819535640625
-179.6,1712819535656250
-173.53,1712819535671875
-158.6,1712819535687500
-135.52,1712819535703125
-106.29,1712819535718750
-73.81,1712819535734375
-41.17,1712819535750000
-11.04,1712819535765625
14.89,1712819535781250
36.05,1712819535796875
52.7,1712819535812500
65.61,1712819535828125
75.55,1712819535843750
83.14,1712819535859375
88.8,1712819535875000
92.9,1712819535890625
95.9,1712819535906250
98.33,1712819535921875
100.66,1712819535937500
103.1,1712819535953125
105.55,1712819535968750
107.71,1712819535984375
109.24,1712819536000000
109.94,1712819536015625
109.74,1712819536031250
108.63,1712819536046875
106.47,1712819536062500
102.99,1712819536078125
97.83,1712819536093750
90.75,1712819536109375
81.84,1712819536125000
71.55,1712819536140625
60.68,1712819536156250
50.07,1712819536171875
40.41,1712819536187500
31.92,1712819536203125
24.31,1712819536218750
16.88,1712819536234375
8.85,1712819536250000
-0.32,1712819536265625
-10.69,1712819536281250
-21.82,1712819536296875
-33.02,1712819536312500
-43.69,1712819536328125
-53.58,1712819536343750
-62.89,1712819536359375
-72.26,1712819536375000
-82.47,1712819536390625
-94.21,1712819536406250
-107.73,1712819536421875
-122.48,1712819536437500
-136.87,1712819536453125
-148.45,1712819536468750
-154.29,1712819536484375
-151.82,1712819536500000
-139.78,1712819536515625
-118.68,1712819536531250
-90.77,1712819536546875
-59.38,1712819536562500
-27.94,1712819536578125
0.91,1712819536593750
25.71,1712819536609375
46.1,1712819536625000
62.37,1712819536640625
74.94,1712819536656250
84.16,1712819536671875
90.26,1712819536687500
93.57,1712819536703125
94.62,1712819536718750
94.22,1712819536734375
93.22,1712819536750000
92.36,1712819536765625
91.98,1712819536781250
92.02,1712819536796875
92.16,1712819536812500
92.04,1712819536828125
91.39,1712819536843750
90.15,1712819536859375
88.28,1712819536875000
85.66,1712819536890625
82.05,1712819536906250
77.06,1712819536921875
70.48,1712819536937500
62.33,1712819536953125
52.99,1712819536968750
42.96,1712819536984375
32.78,1712819537000000
22.69,1712819537015625
12.7,1712819537031250
2.62,1712819537046875
-7.73,1712819537062500
-18.34,1712819537078125
-28.98,1712819537093750
-39.28,1712819537109375
-48.87,1712819537125000
-57.55,1712819537140625
-65.47,1712819537156250
-73.15,1712819537171875
-81.49,1712819537187500
-91.47,1712819537203125
-103.73,1712819537218750
-117.98,1712819537234375
-132.67,1712819537250000
-145.0,1712819537265625
-151.5,1712819537281250
-149.16,1712819537296875
-136.51,1712819537312500
-114.3,1712819537328125
-85.34,1712819537343750
-53.65,1712819537359375
-23.09,1712819537375000
3.82,1712819537390625
26.27,1712819537406250
44.91,1712819537421875
60.87,1712819537437500
74.83,1712819537453125
86.54,1712819537468750
94.98,1712819537484375
99.03,1712819537500000
98.36,1712819537515625
93.93,1712819537531250
87.87,1712819537546875
82.69,1712819537562500
80.32,1712819537578125
81.39,1712819537593750
84.97,1712819537609375
89.25,1712819537625000
92.08,1712819537640625
91.63,1712819537656250
86.7,1712819537671875
76.68,1712819537687500
61.89,1712819537703125
44.18,1712819537718750
27.57,1712819537734375
17.83,1712819537750000
20.49,1712819537765625
37.87,1712819537781250
66.67,1712819537796875
97.89,1712819537812500
119.56,1712819537828125
121.4,1712819537843750
98.8,1712819537859375
54.1,1712819537875000
-5.19,1712819537890625
-70.04,1712819537906250
-132.99,1712819537921875
-189.29,1712819537937500
-236.06,1712819537953125
-271.01,1712819537968750
-292.13,1712819537984375
-298.79,1712819538000000
-293.03,1712819538015625
-279.9,1712819538031250
-265.72,1712819538046875
-255.33,1712819538062500
-249.8,1712819538078125
-245.89,1712819538093750
-237.9,1712819538109375
-220.39,1712819538125000
-190.88,1712819538140625
-150.81,1712819538156250
-104.69,1712819538171875
-58.11,1712819538187500
-15.64,1712819538203125
20.35,1712819538218750
49.7,1712819538234375
73.57,1712819538250000
93.25,1712819538265625
109.43,1712819538281250
122.12,1712819538296875
131.13,1712819538312500
136.56,1712819538328125
139.12,1712819538343750
139.9,1712819538359375
140.03,1712819538375000
140.16,1712819538390625
140.41,1712819538406250
140.42,1712819538421875
139.83,1712819538437500
138.53,1712819538453125
136.8,1712819538468750
135.11,1712819538484375
133.74,1712819538500000
132.5,1712819538515625
130.72,1712819538531250
127.46,1712819538546875
122.03,1712819538562500
114.29,1712819538578125
104.82,1712819538593750
94.7,1712819538609375
85.07,1712819538625000
76.65,1712819538640625
69.43,1712819538656250
62.74,1712819538671875
55.57,1712819538687500
47.1,1712819538703125
37.07,1712819538718750
25.86,1712819538734375
14.26,1712819538750000
3.12,1712819538765625
-7.11,1712819538781250
-16.49,1712819538796875
-25.56,1712819538812500
-35.17,1712819538828125
-46.13,1712819538843750
-59.03,1712819538859375
-73.91,1712819538875000
-89.99,1712819538890625
-105.51,1712819538906250
-117.89,1712819538921875
-124.25,1712819538937500
-122.21,1712819538953125
-110.71,1712819538968750
-90.45,1712819538984375
-63.78,1712819539000000
-33.94,1712819539015625
-4.3,1712819539031250
22.48,1712819539046875
44.76,1712819539062500
61.99,1712819539078125
74.42,1712819539093750
82.87,1712819539109375
88.44,1712819539125000
92.25,1712819539140625
95.28,1712819539156250
98.16,1712819539171875
101.04,1712819539187500
103.68,1712819539203125
105.54,1712819539218750
106.01,1712819539234375
104.71,1712819539250000
101.59,1712819539265625
96.94,1712819539281250
91.37,1712819539296875
85.49,1712819539312500
79.77,1712819539328125
74.35,1712819539343750
69.03,1712819539359375
63.47,1712819539375000
57.32,1712819539390625
50.41,1712819539406250
42.86,1712819539421875
34.91,1712819539437500
26.85,1712819539453125
18.8,1712819539468750
10.68,1712819539484375
2.2,1712819539500000
-6.94,1712819539515625
-16.91,1712819539531250
-27.61,1712819539546875
-38.64,1712819539562500
-49.4,1712819539578125
-59.32,1712819539593750
-68.08,1712819539609375
-75.8,1712819539625000
-83.02,1712819539640625
-90.57,1712819539656250
-99.34,1712819539671875
-109.95,1712819539687500
-122.45,1712819539703125
-136.1,1712819539718750
-149.27,1712819539734375
-159.63,1712819539750000
-164.62,1712819539765625
-162.19,1712819539781250
-151.35,1712819539796875
-132.66,1712819539812500
-108.06,1712819539828125
-80.3,1712819539843750
-52.17,1712819539859375
-25.78,1712819539875000
-2.26,1712819539890625
18.08,1712819539906250
35.32,1712819539921875
49.49,1712819539937500
60.43,1712819539953125
67.87,1712819539968750
71.81,1712819539984375
72.68,1712819540000000
71.41,1712819540015625
69.19,1712819540031250
67.13,1712819540046875
65.9,1712819540062500
65.65,1712819540078125
66.07,1712819540093750
66.58,1712819540109375
66.6,1712819540125000
65.7,1712819540140625
63.66,1712819540156250
60.45,1712819540171875
56.14,1712819540187500
50.84,1712819540203125
44.64,1712819540218750
37.59,1712819540234375
29.73,1712819540250000
21.11,1712819540265625
11.86,1712819540281250
2.23,1712819540296875
-7.39,1712819540312500
-16.63,1712819540328125
-25.19,1712819540343750
-33.02,1712819540359375
-40.32,1712819540375000
-47.52,1712819540390625
-55.16,1712819540406250
-63.75,1712819540421875
-73.67,1712819540437500
-84.93,1712819540453125
-97.1,1712819540468750
-109.1,1712819540484375
-119.16,1712819540500000
-125.16,1712819540515625
-125.06,1712819540531250
-117.62,1712819540546875
-102.87,1712819540562500
-82.15,1712819540578125
-57.82,1712819540593750
-32.48,1712819540609375
-8.28,1712819540625000
13.44,1712819540640625
32.17,1712819540656250
47.8,1712819540671875
60.39,1712819540687500
69.83,1712819540703125
75.96,1712819540718750
78.83,1712819540734375
78.83,1712819540750000
76.81,1712819540765625
73.85,1712819540781250
70.92,1712819540796875
68.69,1712819540812500
67.32,1712819540828125
66.55,1712819540843750
65.92,1712819540859375
64.98,1712819540875000
63.41,1712819540890625
61.08,1712819540906250
57.96,1712819540921875
54.0,1712819540937500
49.14,1712819540953125
43.36,1712819540968750
36.69,1712819540984375
29.27,1712819541000000
21.28,1712819541015625
12.93,1712819541031250
4.29,1712819541046875
-4.59,1712819541062500
-13.69,1712819541078125
-22.93,1712819541093750
-32.16,1712819541109375
-41.14,1712819541125000
-49.7,1712819541140625
-57.77,1712819541156250
-65.51,1712819541171875
-73.24,1712819541187500
-81.49,1712819541203125
-90.78,1712819541218750
-101.41,1712819541234375
-113.16,1712819541250000
-125.03,1712819541265625
-135.2,1712819541281250
-141.29,1712819541296875
-141.01,1712819541312500
-132.89,1712819541328125
-116.85,1712819541343750
-94.31,1712819541359375
-67.76,1712819541375000
-40.02,1712819541390625
-13.48,1712819541406250
10.29,1712819541421875
30.62,1712819541437500
47.39,1712819541453125
60.69,1712819541468750
70.65,1712819541484375
77.36,1712819541500000
81.08,1712819541515625
82.37,1712819541531250
82.02,1712819541546875
80.87,1712819541562500
79.59,1712819541578125
78.46,1712819541593750
77.41,1712819541609375
76.23,1712819541625000
74.76,1712819541640625
73.04,1712819541656250
71.23,1712819541671875
69.47,1712819541687500
67.65,1712819541703125
65.46,1712819541718750
62.41,1712819541734375
58.12,1712819541750000
52.48,1712819541765625
45.69,1712819541781250
38.12,1712819541796875
30.16,1712819541812500
22.0,1712819541828125
13.6,1712819541843750
4.78,1712819541859375
-4.65,1712819541875000
-14.69,1712819541890625
-25.08,1712819541906250
-35.37,1712819541921875
-45.02,1712819541937500
-53.65,1712819541953125
-61.22,1712819541968750
-68.04,1712819541984375
-74.81,1712819542000000
-82.36,1712819542015625
-91.43,1712819542031250
-102.28,1712819542046875
-114.49,1712819542062500
-126.72,1712819542078125
-136.89,1712819542093750
-142.56,1712819542109375
-141.54,1712819542125000
-132.62,1712819542140625
-115.96,1712819542156250
-93.14,1712819542171875
-66.68,1712819542187500
-39.33,1712819542203125
-13.34,1712819542218750
9.91,1712819542234375
29.84,1712819542250000
46.35,1712819542265625
59.53,1712819542281250
69.39,1712819542296875
75.97,1712819542312500
79.55,1712819542328125
80.73,1712819542343750
80.39,1712819542359375
79.46,1712819542375000
78.63,1712819542390625
78.18,1712819542406250
78.05,1712819542421875
77.96,1712819542437500
77.59,1712819542453125
76.75,1712819542468750
75.41,1712819542484375
73.62,1712819542500000
71.47,1712819542515625
68.92,1712819542531250
65.87,1712819542546875
62.13,1712819542562500
57.57,1712819542578125
52.21,1712819542593750
46.21,1712819542609375
39.87,1712819542625000
33.37,1712819542640625
26.69,1712819542656250
19.54,1712819542671875
11.48,1712819542687500
2.16,1712819542703125
-8.4,1712819542718750
-19.73,1712819542734375
-31.08,1712819542750000
-41.64,1712819542765625
-50.89,1712819542781250
-58.8,1712819542796875
-65.77,1712819542812500
-72.54,1712819542828125
-80.01,1712819542843750
-88.91,1712819542859375
-99.6,1712819542875000
-111.75,1712819542890625
-124.15,1712819542906250
-134.7,1712819542921875
-140.84,1712819542937500
-140.19,1712819542953125
-131.43,1712819542968750
-114.78,1712819542984375
-92.03,1712819543000000
-66.05,1712819543015625
-39.81,1712819543031250
-15.64,1712819543046875
5.23,1712819543062500
22.49,1712819543078125
36.39,1712819543093750
47.29,1712819543109375
55.36,1712819543125000
60.65,1712819543140625
63.29,1712819543156250
63.68,1712819543171875
62.54,1712819543187500
60.78,1712819543203125
59.24,1712819543218750
58.47,1712819543234375
58.62,1712819543250000
59.36,1712819543265625
60.15,1712819543281250
60.38,1712819543296875
59.63,1712819543312500
57.73,1712819543328125
54.75,1712819543343750
50.88,1712819543359375
46.31,1712819543375000
41.12,1712819543390625
35.28,1712819543406250
28.76,1712819543421875
21.57,1712819543437500
13.84,1712819543453125
5.74,1712819543468750
-2.52,1712819543484375
-10.76,1712819543500000
-18.86,1712819543515625
-26.67,1712819543531250
-34.14,1712819543546875
-41.32,1712819543562500
-48.38,1712819543578125
-55.67,1712819543593750
-63.63,1712819543609375
-72.66,1712819543625000
-82.99,1712819543640625
-94.38,1712819543656250
-105.97,1712819543671875
-116.15,1712819543687500
-122.79,1712819543703125
-123.76,1712819543718750
-117.53,1712819543734375
-103.88,1712819543750000
-83.96,1712819543765625
-60.08,1712819543781250
-34.97,1712819543796875
-11.0,1712819543812500
10.35,1712819543828125
28.52,1712819543843750
43.52,1712819543859375
55.51,1712819543875000
64.48,1712819543890625
70.35,1712819543906250
73.14,1712819543921875
73.24,1712819543937500
71.46,1712819543953125
68.81,1712819543968750
66.2,1712819543984375
64.21,1712819544000000
62.93,1712819544015625
62.14,1712819544031250
61.45,1712819544046875
60.58,1712819544062500
59.38,1712819544078125
57.77,1712819544093750
55.62,1712819544109375
52.68,1712819544125000
48.67,1712819544140625
43.38,1712819544156250
36.83,1712819544171875
29.39,1712819544187500
21.57,1712819544203125
13.9,1712819544218750
6.62,1712819544234375
-0.4,1712819544250000
-7.56,1712819544265625
-15.3,1712819544281250
-23.86,1712819544296875
-33.07,1712819544312500
-42.53,1712819544328125
-51.69,1712819544343750
-60.17,1712819544359375
-67.96,1712819544375000
-75.43,1712819544390625
-83.29,1712819544406250
-92.34,1712819544421875
-103.08,1712819544437500
-115.46,1712819544453125
-128.56,1712819544468750
-140.53,1712819544484375
-148.9,1712819544500000
-151.16,1712819544515625
-145.55,1712819544531250
-131.65,1712819544546875
-110.65,1712819544562500
-85.01,1712819544578125
-57.72,1712819544593750
-31.42,1712819544609375
-7.86,1712819544625000
12.26,1712819544640625
29.03,1712819544656250
42.72,1712819544671875
53.52,1712819544687500
61.36,1712819544703125
66.22,1712819544718750
68.35,1712819544734375
68.46,1712819544750000
67.54,1712819544765625
66.54,1712819544781250
66.02,1712819544796875
66.05,1712819544812500
66.33,1712819544828125
66.38,1712819544843750
65.89,1712819544859375
64.72,1712819544875000
62.97,1712819544890625
60.78,1712819544906250
58.25,1712819544921875
55.43,1712819544937500
52.31,1712819544953125
49.01,1712819544968750
45.68,1712819544984375
42.62,1712819545000000
40.03,1712819545015625
37.94,1712819545031250
36.0,1712819545046875
33.56,1712819545062500
29.81,1712819545078125
24.14,1712819545093750
16.51,1712819545109375
7.61,1712819545125000
-1.34,1712819545140625
-9.02,1712819545156250
-14.6,1712819545171875
-18.13,1712819545187500
-20.61,1712819545203125
-23.63,1712819545218750
-28.85,1712819545234375
-37.35,1712819545250000
-49.23,1712819545265625
-63.39,1712819545281250
-77.81,1712819545296875
-89.93,1712819545312500
-97.35,1712819545328125
-98.39,1712819545343750
-92.58,1712819545359375
-80.63,1712819545375000
-64.16,1712819545390625
-45.1,1712819545406250
-25.11,1712819545421875
-5.23,1712819545437500
14.0,1712819545453125
32.29,1712819545468750
49.24,1712819545484375
64.3,1712819545500000
76.94,1712819545515625
86.99,1712819545531250
94.78,1712819545546875
101.09,1712819545562500
106.77,1712819545578125
112.41,1712819545593750
118.21,1712819545609375
124.12,1712819545625000
130.06,1712819545640625
136.07,1712819545656250
142.15,1712819545671875
148.06,1712819545687500
153.1,1712819545703125
156.28,1712819545718750
156.59,1712819545734375
153.16,1712819545750000
145.45,1712819545765625
133.14,1712819545781250
116.08,1712819545796875
94.63,1712819545812500
70.03,1712819545828125
44.85,1712819545843750
22.82,1712819545859375
7.92,1712819545875000
3.02,1712819545890625
8.46,1712819545906250
21.44,1712819545921875
36.68,1712819545937500
48.09,1712819545953125
50.83,1712819545968750
42.69,1712819545984375
24.27,1712819546000000
-1.94,1712819546015625
-33.01,1712819546031250
-66.48,1712819546046875
-100.4,1712819546062500
-132.7,1712819546078125
-160.44,1712819546093750
-179.72,1712819546109375
-186.64,1712819546125000
-178.68,1712819546140625
-155.93,1712819546156250
-121.32,1712819546171875
-79.77,1712819546187500
-36.7,1712819546203125
3.6,1712819546218750
38.85,1712819546234375
68.73,1712819546250000
94.28,1712819546265625
116.9,1712819546281250
137.45,1712819546296875
156.13,1712819546312500
172.45,1712819546328125
185.87,1712819546343750
196.22,1712819546359375
203.97,1712819546375000
210.11,1712819546390625
216.06,1712819546406250
223.63,1712819546421875
234.61,1712819546437500
250.26,1712819546453125
270.32,1712819546468750
292.43,1712819546484375
312.17,1712819546500000
324.22,1712819546515625
324.31,1712819546531250
310.83,1712819546546875
285.57,1712819546562500
252.77,1712819546578125
217.37,1712819546593750
183.17,1712819546609375
151.94,1712819546625000
123.74,1712819546640625
97.97,1712819546656250
74.34,1712819546671875
53.11,1712819546687500
34.76,1712819546703125
19.41,1712819546718750
6.64,1712819546734375
-4.38,1712819546750000
-14.39,1712819546765625
-23.83,1712819546781250
-32.76,1712819546796875
-41.02,1712819546812500
-48.51,1712819546828125
-55.32,1712819546843750
-61.66,1712819546859375
-67.72,1712819546875000
-73.53,1712819546890625
-78.95,1712819546906250
-83.94,1712819546921875
-88.62,1712819546937500
-93.46,1712819546953125
-99.07,1712819546968750
-105.98,1712819546984375
-114.33,1712819547000000
-123.83,1712819547015625
-133.88,1712819547031250
-143.93,1712819547046875
-153.81,1712819547062500
-163.89,1712819547078125
-175.16,1712819547093750
-189.12,1712819547109375
-207.81,1712819547125000
-233.42,1712819547140625
-267.3,1712819547156250
-308.59,1712819547171875
-353.06,1712819547187500
-393.08,1712819547203125
-419.3,1712819547218750
-423.53,1712819547234375
-401.87,1712819547250000
-356.22,1712819547265625
-293.65,1712819547281250
-223.72,1712819547296875
-155.15,1712819547312500
-93.55,1712819547328125
-40.92,1712819547343750
3.17,1712819547359375
39.87,1712819547375000
69.9,1712819547390625
93.38,1712819547406250
110.52,1712819547421875
122.23,1712819547437500
130.11,1712819547453125
135.88,1712819547468750
140.54,1712819547484375
144.03,1712819547500000
145.29,1712819547515625
143.06,1712819547531250
136.66,1712819547546875
126.39,1712819547562500
113.42,1712819547578125
99.27,1712819547593750
85.15,1712819547609375
71.61,1712819547625000
58.47,1712819547640625
45.13,1712819547656250
30.82,1712819547671875
15.11,1712819547687500
-2.0,1712819547703125
-19.85,1712819547718750
-37.26,1712819547734375
-52.81,1712819547750000
-65.35,1712819547765625
-74.5,1712819547781250
-80.69,1712819547796875
-84.93,1712819547812500
-88.27,1712819547828125
-91.49,1712819547843750
-95.23,1712819547859375
-100.39,1712819547875000
-108.24,1712819547890625
-120.04,1712819547906250
-136.21,1712819547921875
-155.44,1712819547937500
-174.67,1712819547953125
-190.06,1712819547968750
-198.56,1712819547984375
-199.24,1712819548000000
-193.67,1712819548015625
-184.97,1712819548031250
-176.36,1712819548046875
-169.88,1712819548062500
-165.96,1712819548078125
-163.91,1712819548093750
-162.74,1712819548109375
-161.89,1712819548125000
-161.34,1712819548140625
-161.42,1712819548156250
-162.39,1712819548171875
-164.27,1712819548187500
-166.98,1712819548203125
-170.44,1712819548218750
-174.85,1712819548234375
-180.56,1712819548250000
-187.77,1712819548265625
-196.05,1712819548281250
-204.04,1712819548296875
-209.43,1712819548312500
-209.42,1712819548328125
-201.73,1712819548343750
-185.51,1712819548359375
-161.82,1712819548375000
-133.36,1712819548390625
-103.6,1712819548406250
-75.59,1712819548421875
-51.1,1712819548437500
-30.39,1712819548453125
-12.63,1712819548468750
3.3,1712819548484375
18.05,1712819548500000
31.61,1712819548515625
43.4,1712819548531250
52.8,1712819548546875
59.62,1712819548562500
64.33,1712819548578125
67.83,1712819548593750
70.95,1712819548609375
73.99,1712819548625000
76.41,1712819548640625
77.19,1712819548656250
75.4,1712819548671875
70.94,1712819548687500
64.74,1712819548703125
58.55,1712819548718750
54.33,1712819548734375
53.79,1712819548750000
57.98,1712819548765625
67.24,1712819548781250
81.12,1712819548796875
98.34,1712819548812500
116.71,1712819548828125
133.32,1712819548843750
144.98,1712819548859375
149.02,1712819548875000
143.99,1712819548890625
130.04,1712819548906250
108.75,1712819548921875
82.52,1712819548937500
54.0,1712819548953125
25.78,1712819548968750
0.45,1712819548984375
-19.21,1712819549000000
-30.28,1712819549015625
-30.13,1712819549031250
-17.26,1712819549046875
8.05,1712819549062500
43.49,1712819549078125
85.08,1712819549093750
128.2,1712819549109375
168.66,1712819549125000
203.35,1712819549140625
230.15,1712819549156250
247.43,1712819549171875
253.58,1712819549187500
247.09,1712819549203125
227.21,1712819549218750
194.71,1712819549234375
152.34,1712819549250000
104.26,1712819549265625
54.89,1712819549281250
7.65,1712819549296875
-35.62,1712819549312500
-74.35,1712819549328125
-108.34,1712819549343750
-137.01,1712819549359375
-159.39,1712819549375000
-174.59,1712819549390625
-182.53,1712819549406250
-184.03,1712819549421875
-180.26,1712819549437500
-172.05,1712819549453125
-159.58,1712819549468750
-142.82,1712819549484375
-122.36,1712819549500000
-100.03,1712819549515625
-78.52,1712819549531250
-60.53,1712819549546875
-47.53,1712819549562500
-39.18,1712819549578125
-33.61,1712819549593750
-28.24,1712819549609375
-20.74,1712819549625000
-9.71,1712819549640625
5.03,1712819549656250
22.28,1712819549671875
39.59,1712819549687500
53.77,1712819549703125
61.8,1712819549718750
61.98,1712819549734375
54.83,1712819549750000
43.07,1712819549765625
30.76,1712819549781250
21.59,1712819549796875
17.75,1712819549812500
19.48,1712819549828125
25.61,1712819549843750
34.69,1712819549859375
45.68,1712819549875000
58.11,1712819549890625
71.58,1712819549906250
85.11,1712819549921875
96.85,1712819549937500
104.57,1712819549953125
106.45,1712819549968750
102.06,1712819549984375
92.71,1712819550000000
81.01,1712819550015625
69.84,1712819550031250
61.07,1712819550046875
54.75,1712819550062500
49.16,1712819550078125
41.6,1712819550093750
29.63,1712819550109375
12.08,1712819550125000
-10.55,1712819550140625
-36.38,1712819550156250
-63.01,1712819550171875
-88.37,1712819550187500
-111.11,1712819550203125
-130.66,1712819550218750
-146.86,1712819550234375
-159.7,1712819550250000
-169.24,1712819550265625
-175.69,1712819550281250
-179.52,1712819550296875
-181.28,1712819550312500
-181.44,1712819550328125
-180.21,1712819550343750
-177.66,1712819550359375
-173.97,1712819550375000
-169.99,1712819550390625
-167.26,1712819550406250
-167.67,1712819550421875
-172.62,1712819550437500
-182.23,1712819550453125
-194.91,1712819550468750
-207.75,1712819550484375
-217.38,1712819550500000
-220.96,1712819550515625
-216.9,1712819550531250
-204.95,1712819550546875
-185.9,1712819550562500
-161.08,1712819550578125
-131.8,1712819550593750
-99.23,1712819550609375
-64.47,1712819550625000
-28.79,1712819550640625
6.25,1712819550656250
38.97,1712819550671875
67.87,1712819550687500
92.15,1712819550703125
112.04,1712819550718750
128.71,1712819550734375
143.83,1712819550750000
158.92,1712819550765625
174.73,1712819550781250
191.23,1712819550796875
207.84,1712819550812500
223.9,1712819550828125
238.79,1712819550843750
251.72,1712819550859375
261.24,1712819550875000
265.09,1712819550890625
260.75,1712819550906250
246.32,1712819550921875
221.65,1712819550937500
188.79,1712819550953125
151.62,1712819550968750
114.78,1712819550984375
82.54,1712819551000000
57.92,1712819551015625
42.27,1712819551031250
35.04,1712819551046875
33.69,1712819551062500
33.94,1712819551078125
30.56,1712819551093750
18.86,1712819551109375
-3.69,1712819551125000
-36.38,1712819551140625
-75.37,1712819551156250
-115.11,1712819551171875
-150.08,1712819551187500
-176.34,1712819551203125
-191.99,1712819551218750
-196.82,1712819551234375
-191.69,1712819551250000
-178.02,1712819551265625
-157.82,1712819551281250
-133.63,1712819551296875
-108.29,1712819551312500
-84.34,1712819551328125
-63.35,1712819551343750
-45.71,1712819551359375
-30.75,1712819551375000
-17.3,1712819551390625
-4.13,1712819551406250
9.79,1712819551421875
25.22,1712819551437500
42.57,1712819551453125
61.62,1712819551468750
81.22,1712819551484375
99.37,1712819551500000
113.73,1712819551515625
122.46,1712819551531250
124.94,1712819551546875
122.0,1712819551562500
115.6,1712819551578125
107.9,1712819551593750
100.66,1712819551609375
94.8,1712819551625000
90.66,1712819551640625
88.23,1712819551656250
87.47,1712819551671875
88.08,1712819551687500
89.2,1712819551703125
89.27,1712819551718750
86.22,1712819551734375
78.26,1712819551750000
64.49,1712819551765625
45.34,1712819551781250
22.42,1712819551796875
-1.86,1712819551812500
-24.8,1712819551828125
-43.72,1712819551843750
-56.1,1712819551859375
-59.78,1712819551875000
-53.31,1712819551890625
-36.5,1712819551906250
-10.79,1712819551921875
20.76,1712819551937500
54.09,1712819551953125
85.2,1712819551968750
111.04,1712819551984375
130.05,1712819552000000
142.05,1712819552015625
147.68,1712819552031250
147.8,1712819552046875
143.25,1712819552062500
134.81,1712819552078125
123.39,1712819552093750
110.12,1712819552109375
96.06,1712819552125000
82.02,1712819552140625
68.27,1712819552156250
54.72,1712819552171875
41.21,1712819552187500
27.98,1712819552203125
15.76,1712819552218750
5.6,1712819552234375
-1.67,1712819552250000
-6.02,1712819552265625
-8.39,1712819552281250
-10.49,1712819552296875
-14.21,1712819552312500
-21.04,1712819552328125
-31.68,1712819552343750
-45.96,1712819552359375
-63.09,1712819552375000
-82.0,1712819552390625
-101.68,1712819552406250
-121.28,1712819552421875
-140.27,1712819552437500
-158.3,1712819552453125
-175.28,1712819552468750
-191.29,1712819552484375
-206.52,1712819552500000
-221.04,1712819552515625
-234.52,1712819552531250
-245.92,1712819552546875
-253.41,1712819552562500
-254.61,1712819552578125
-247.3,1712819552593750
-230.24,1712819552609375
-203.9,1712819552625000
-170.54,1712819552640625
-133.75,1712819552656250
-97.42,1712819552671875
-64.74,1712819552687500
-37.45,1712819552703125
-15.8,1712819552718750
0.97,1712819552734375
13.98,1712819552750000
24.2,1712819552765625
32.29,1712819552781250
38.76,1712819552796875
44.23,1712819552812500
49.45,1712819552828125
55.23,1712819552843750
62.2,1712819552859375
70.61,1712819552875000
80.31,1712819552890625
90.79,1712819552906250
101.33,1712819552921875
111.11,1712819552937500
119.31,1712819552953125
125.18,1712819552968750
128.04,1712819552984375
127.48,1712819553000000
123.46,1712819553015625
116.54,1712819553031250
108.11,1712819553046875
100.42,1712819553062500
96.02,1712819553078125
96.72,1712819553093750
102.24,1712819553109375
109.36,1712819553125000
112.46,1712819553140625
105.18,1712819553156250
82.66,1712819553171875
43.07,1712819553187500
-12.18,1712819553203125
-79.24,1712819553218750
-152.9,1712819553234375
-227.17,1712819553250000
-295.41,1712819553265625
-350.57,1712819553281250
-386.25,1712819553296875
-398.31,1712819553312500
-386.41,1712819553328125
-354.0,1712819553343750
-306.86,1712819553359375
-250.91,1712819553375000
-190.9,1712819553390625
-130.65,1712819553406250
-74.16,1712819553421875
-26.34,1712819553437500
7.86,1712819553453125
25.45,1712819553468750
27.35,1712819553484375
18.66,1712819553500000
6.96,1712819553515625
-0.59,1712819553531250
0.52,1712819553546875
11.45,1712819553562500
30.77,1712819553578125
55.95,1712819553593750
84.4,1712819553609375
113.7,1712819553625000
141.35,1712819553640625
164.77,1712819553656250
181.63,1712819553671875
190.64,1712819553687500
192.02,1712819553703125
187.49,1712819553718750
179.74,1712819553734375
171.64,1712819553750000
165.24,1712819553765625
161.06,1712819553781250
157.95,1712819553796875
153.56,1712819553812500
145.32,1712819553828125
131.55,1712819553843750
112.23,1712819553859375
89.07,1712819553875000
64.87,1712819553890625
42.64,1712819553906250
24.89,1712819553921875
13.46,1712819553937500
9.52,1712819553953125
13.54,1712819553968750
25.03,1712819553984375
42.18,1712819554000000
61.94,1712819554015625
80.65,1712819554031250
95.1,1712819554046875
103.44,1712819554062500
105.52,1712819554078125
102.41,1712819554093750
95.53,1712819554109375
86.09,1712819554125000
74.96,1712819554140625
63.09,1712819554156250
51.78,1712819554171875
42.6,1712819554187500
36.78,1712819554203125
34.45,1712819554218750
34.17,1712819554234375
33.2,1712819554250000
28.2,1712819554265625
16.22,1712819554281250
-4.42,1712819554296875
-33.76,1712819554312500
-70.17,1712819554328125
-110.87,1712819554343750
-152.48,1712819554359375
-191.54,1712819554375000
-225.01,1712819554390625
-250.37,1712819554406250
-265.91,1712819554421875
-270.77,1712819554437500
-265.08,1712819554453125
-250.13,1712819554468750
-228.33,1712819554484375
-202.82,1712819554500000
-176.86,1712819554515625
-152.97,1712819554531250
-132.09,1712819554546875
-113.61,1712819554562500
-95.61,1712819554578125
-75.56,1712819554593750
-51.19,1712819554609375
-20.84,1712819554625000
16.63,1712819554640625
62.11,1712819554656250
116.03,1712819554671875
177.34,1712819554687500
242.27,1712819554703125
303.74,1712819554718750
352.45,1712819554734375
379.63,1712819554750000
380.32,1712819554765625
355.58,1712819554781250
312.04,1712819554796875
259.08,1712819554812500
204.93,1712819554828125
153.62,1712819554843750
104.23,1712819554859375
52.93,1712819554875000
-3.84,1712819554890625
-66.37,1712819554906250
-130.49,1712819554921875
-188.68,1712819554937500
-232.59,1712819554953125
-255.91,1712819554968750
-256.48,1712819554984375
-236.86,1712819555000000
-203.46,1712819555015625
-164.51,1712819555031250
-127.44,1712819555046875
-97.33,1712819555062500
-76.33,1712819555078125
-64.24,1712819555093750
-59.83,1712819555109375
-61.94,1712819555125000
-69.83,1712819555140625
-82.96,1712819555156250
-100.38,1712819555171875
-120.44,1712819555187500
-140.91,1712819555203125
-159.33,1712819555218750
-173.5,1712819555234375
-181.72,1712819555250000
-182.79,1712819555265625
-175.84,1712819555281250
-160.45,1712819555296875
-136.85,1712819555312500
-106.22,1712819555328125
-70.7,1712819555343750
-33.17,1712819555359375
3.27,1712819555375000
35.83,1712819555390625
62.4,1712819555406250
81.83,1712819555421875
93.94,1712819555437500
99.54,1712819555453125
100.31,1712819555468750
98.43,1712819555484375
96.12,1712819555500000
94.95,1712819555515625
95.45,1712819555531250
97.03,1712819555546875
98.44,1712819555562500
98.36,1712819555578125
96.0,1712819555593750
91.35,1712819555609375
84.97,1712819555625000
77.59,1712819555640625
69.67,1712819555656250
61.34,1712819555671875
52.47,1712819555687500
42.99,1712819555703125
33.02,1712819555718750
22.92,1712819555734375
13.07,1712819555750000
3.66,1712819555765625
-5.41,1712819555781250
-14.53,1712819555796875
-24.36,1712819555812500
-35.63,1712819555828125
-48.9,1712819555843750
-64.23,1712819555859375
-80.71,1712819555875000
-96.29,1712819555890625
-107.94,1712819555906250
-112.29,1712819555921875
-106.65,1712819555937500
-89.93,1712819555953125
-63.15,1712819555968750
-29.2,1712819555984375
8.02,1712819556000000
44.67,1712819556015625
77.79,1712819556031250
105.5,1712819556046875
126.96,1712819556062500
141.9,1712819556078125
150.33,1712819556093750
152.55,1712819556109375
149.29,1712819556125000
141.9,1712819556140625
132.16,1712819556156250
122.05,1712819556171875
113.27,1712819556187500
106.89,1712819556203125
103.08,1712819556218750
101.31,1712819556234375
100.46,1712819556250000
99.25,1712819556265625
96.58,1712819556281250
91.73,1712819556296875
84.55,1712819556312500
75.37,1712819556328125
64.8,1712819556343750
53.49,1712819556359375
41.91,1712819556375000
30.24,1712819556390625
18.45,1712819556406250
6.46,1712819556421875
-5.91,1712819556437500
-18.86,1712819556453125
-32.66,1712819556468750
-47.54,1712819556484375
-63.31,1712819556500000
-78.88,1712819556515625
-92.09,1712819556531250
-99.98,1712819556546875
-99.55,1712819556562500
-88.89,1712819556578125
-67.98,1712819556593750
-38.81,1712819556609375
-4.79,1712819556625000
30.29,1712819556640625
63.31,1712819556656250
92.21,1712819556671875
116.02,1712819556687500
134.35,1712819556703125
147.06,1712819556718750
154.18,1712819556734375
156.05,1712819556750000
153.6,1712819556765625
148.32,1712819556781250
142.04,1712819556796875
136.37,1712819556812500
132.32,1712819556828125
130.12,1712819556843750
129.3,1712819556859375
129.08,1712819556875000
128.69,1712819556890625
127.61,1712819556906250
125.49,1712819556921875
122.2,1712819556937500
117.67,1712819556953125
111.82,1712819556968750
104.6,1712819556984375
95.84,1712819557000000
85.33,1712819557015625
72.72,1712819557031250
57.64,1712819557046875
39.82,1712819557062500
19.15,1712819557078125
-4.25,1712819557093750
-30.23,1712819557109375
-58.55,1712819557125000
-88.8,1712819557140625
-119.91,1712819557156250
-149.82,1712819557171875
-175.34,1712819557187500
-192.77,1712819557203125
-198.92,1712819557218750
-192.23,1712819557234375
-173.51,1712819557250000
-145.62,1712819557265625
-112.61,1712819557281250
-78.45,1712819557296875
-46.16,1712819557312500
-17.47,1712819557328125
6.89,1712819557343750
26.7,1712819557359375
41.91,1712819557375000
52.61,1712819557390625
59.19,1712819557406250
62.5,1712819557421875
63.69,1712819557437500
63.94,1712819557453125
64.04,1712819557468750
64.25,1712819557484375
64.3,1712819557500000
63.72,1712819557515625
62.13,1712819557531250
59.48,1712819557546875
55.96,1712819557562500
51.88,1712819557578125
47.38,1712819557593750
42.37,1712819557609375
36.48,1712819557625000
29.32,1712819557640625
20.71,1712819557656250
10.85,1712819557671875
0.35,1712819557687500
-10.0,1712819557703125
-19.52,1712819557718750
-27.92,1712819557734375
-35.42,1712819557750000
-42.74,1712819557765625
-50.85,1712819557781250
-60.63,1712819557796875
-72.51,1712819557812500
-86.13,1712819557828125
-100.11,1712819557843750
-112.12,1712819557859375
-119.24,1712819557875000
-118.7,1712819557890625
-108.69,1712819557906250
-89.09,1712819557921875
-61.59,1712819557937500
-29.25,1712819557953125
4.45,1712819557968750
36.46,1712819557984375
64.79,1712819558000000
88.48,1712819558015625
107.23,1712819558031250
121.02,1712819558046875
129.81,1712819558062500
133.75,1712819558078125
133.38,1712819558093750
129.76,1712819558109375
124.35,1712819558125000
118.68,1712819558140625
113.88,1712819558156250
110.41,1712819558171875
108.03,1712819558187500
106.06,1712819558203125
103.74,1712819558218750
100.53,1712819558234375
96.34,1712819558250000
91.32,1712819558265625
85.67,1712819558281250
79.34,1712819558296875
71.96,1712819558312500
63.0,1712819558328125
52.11,1712819558343750
39.46,1712819558359375
25.73,1712819558375000
12.02,1712819558390625
-0.59,1712819558406250
-11.43,1712819558421875
-20.43,1712819558437500
-28.08,1712819558453125
-35.3,1712819558468750
-43.13,1712819558484375
-52.47,1712819558500000
-63.68,1712819558515625
-76.31,1712819558531250
-88.81,1712819558546875
-98.69,1712819558562500
-102.98,1712819558578125
-99.05,1712819558593750
-85.51,1712819558609375
-62.8,1712819558625000
-33.06,1712819558640625
0.41,1712819558656250
34.18,1712819558671875
65.47,1712819558687500
92.5,1712819558703125
114.46,1712819558718750
131.11,1712819558734375
142.45,1712819558750000
148.52,1712819558765625
149.45,1712819558781250
145.56,1712819558796875
137.4,1712819558812500
125.67,1712819558828125
111.14,1712819558843750
94.55,1712819558859375
76.58,1712819558875000
58.01,1712819558890625
39.68,1712819558906250
22.44,1712819558921875
7.0,1712819558937500
-6.3,1712819558953125
-17.62,1712819558968750
-27.6,1712819558984375
-37.19,1712819559000000
-47.31,1712819559015625
-58.6,1712819559031250
-71.14,1712819559046875
-84.45,1712819559062500
-97.7,1712819559078125
-109.95,1712819559093750
-120.55,1712819559109375
-129.27,1712819559125000
-136.38,1712819559140625
-142.55,1712819559156250
-148.69,1712819559171875
-155.68,1712819559187500
-164.09,1712819559203125
-173.91,1712819559218750
-184.11,1712819559234375
-192.61,1712819559250000
-196.56,1712819559265625
-192.99,1712819559281250
-179.9,1712819559296875
-156.97,1712819559312500
-125.94,1712819559328125
-90.03,1712819559343750
-53.07,1712819559359375
-18.34,1712819559375000
12.04,1712819559390625
37.16,1712819559406250
56.98,1712819559421875
71.71,1712819559437500
81.52,1712819559453125
86.53,1712819559468750
87.11,1712819559484375
84.12,1712819559500000
78.91,1712819559515625
73.03,1712819559531250
67.85,1712819559546875
64.13,1712819559562500
61.89,1712819559578125
60.55,1712819559593750
59.22,1712819559609375
57.07,1712819559625000
53.65,1712819559640625
48.91,1712819559656250
43.09,1712819559671875
36.6,1712819559687500
29.71,1712819559703125
22.47,1712819559718750
14.74,1712819559734375
6.28,1712819559750000
-3.05,1712819559765625
-13.19,1712819559781250
-23.78,1712819559796875
-34.24,1712819559812500
-43.97,1712819559828125
-52.51,1712819559843750
-59.78,1712819559859375
-66.02,1712819559875000
-71.82,1712819559890625
-77.88,1712819559906250
-84.92,1712819559921875
-93.5,1712819559937500
-103.85,1712819559953125
-115.67,1712819559968750
-127.86,1712819559984375
-138.51,1712819560000000
-145.03,1712819560015625
-144.7,1712819560031250
-135.46,1712819560046875
-116.61,1712819560062500
-89.25,1712819560078125
-56.01,1712819560093750
-20.36,1712819560109375
14.29,1712819560125000
45.37,1712819560140625
71.43,1712819560156250
91.94,1712819560171875
107.01,1712819560187500
116.97,1712819560203125
122.25,1712819560218750
123.45,1712819560234375
121.41,1712819560250000
117.29,1712819560265625
112.33,1712819560281250
107.64,1712819560296875
103.86,1712819560312500
101.08,1712819560328125
98.93,1712819560343750
96.84,1712819560359375
94.39,1712819560375000
91.4,1712819560390625
87.95,1712819560406250
84.17,1712819560421875
79.96,1712819560437500
74.98,1712819560453125
68.71,1712819560468750
60.74,1712819560484375
51.05,1712819560500000
40.15,1712819560515625
28.99,1712819560531250
18.56,1712819560546875
9.51,1712819560562500
1.91,1712819560578125
-4.77,1712819560593750
-11.4,1712819560609375
-18.76,1712819560625000
-27.22,1712819560640625
-36.53,1712819560656250
-45.99,1712819560671875
-54.78,1712819560687500
-62.36,1712819560703125
-68.75,1712819560718750
-74.59,1712819560734375
-80.96,1712819560750000
-89.0,1712819560765625
-99.44,1712819560781250
-112.25,1712819560796875
-126.35,1712819560812500
-139.56,1712819560828125
-149.04,1712819560843750
-151.8,1712819560859375
-145.58,1712819560875000
-129.51,1712819560890625
-104.48,1712819560906250
-72.93,1712819560921875
-38.29,1712819560937500
-4.08,1712819560953125
26.86,1712819560968750
52.75,1712819560984375
72.91,1712819561000000
87.36,1712819561015625
96.51,1712819561031250
100.94,1712819561046875
101.31,1712819561062500
98.55,1712819561078125
93.82,1712819561093750
88.43,1712819561109375
83.52,1712819561125000
79.81,1712819561140625
77.4,1712819561156250
75.86,1712819561171875
74.52,1712819561187500
72.81,1712819561203125
70.49,1712819561218750
67.63,1712819561234375
64.43,1712819561250000
60.95,1712819561265625
56.97,1712819561281250
52.05,1712819561296875
45.78,1712819561312500
38.04,1712819561328125
29.14,1712819561343750
19.75,1712819561359375
10.57,1712819561375000
2.07,1712819561390625
-5.68,1712819561406250
-13.0,1712819561421875
-20.36,1712819561437500
-28.03,1712819561453125
-36.01,1712819561468750
-44.08,1712819561484375
-51.91,1712819561500000
-59.32,1712819561515625
-66.42,1712819561531250
-73.59,1712819561546875
-81.44,1712819561562500
-90.67,1712819561578125
-101.97,1712819561593750
-115.66,1712819561609375
-131.36,1712819561625000
-147.64,1712819561640625
-161.87,1712819561656250
-170.69,1712819561671875
-170.75,1712819561687500
-159.92,1712819561703125
-138.01,1712819561718750
-107.05,1712819561734375
-70.74,1712819561750000
-33.38,1712819561765625
1.29,1712819561781250
30.87,1712819561796875
54.4,1712819561812500
71.99,1712819561828125
84.2,1712819561843750
91.6,1712819561859375
94.7,1712819561875000
94.14,1712819561890625
90.9,1712819561906250
86.29,1712819561921875
81.71,1712819561937500
78.25,1712819561953125
76.42,1712819561968750
76.02,1712819561984375
76.38,1712819562000000
76.75,1712819562015625
76.57,1712819562031250
75.61,1712819562046875
73.85,1712819562062500
71.3,1712819562078125
67.86,1712819562093750
63.39,1712819562109375
57.77,1712819562125000
51.02,1712819562140625
43.38,1712819562156250
35.15,1712819562171875
26.59,1712819562187500
17.75,1712819562203125
8.54,1712819562218750
-1.1,1712819562234375
-11.08,1712819562250000
-21.09,1712819562265625
-30.6,1712819562281250
-39.09,1712819562296875
-46.3,1712819562312500
-52.26,1712819562328125
-57.38,1712819562343750
-62.33,1712819562359375
-67.9,1712819562375000
-74.74,1712819562390625
-83.08,1712819562406250
-92.3,1712819562421875
-100.8,1712819562437500
-106.04,1712819562453125
-105.07,1712819562468750
-95.32,1712819562484375
-75.6,1712819562500000
-46.6,1712819562515625
-10.9,1712819562531250
27.69,1712819562546875
65.18,1712819562562500
98.37,1712819562578125
125.35,1712819562593750
145.55,1712819562609375
159.3,1712819562625000
167.2,1712819562640625
169.83,1712819562656250
167.59,1712819562671875
161.0,1712819562687500
150.98,1712819562703125
138.91,1712819562718750
126.43,1712819562734375
114.96,1712819562750000
105.21,1712819562765625
96.96,1712819562781250
89.34,1712819562796875
81.4,1712819562812500
72.7,1712819562828125
63.69,1712819562843750
55.33,1712819562859375
48.55,1712819562875000
43.58,1712819562890625
39.62,1712819562906250
35.17,1712819562921875
28.7,1712819562937500
19.38,1712819562953125
7.56,1712819562968750
-5.48,1712819562984375
-18.07,1712819563000000
-29.02,1712819563015625
-38.14,1712819563031250
-46.27,1712819563046875
-54.79,1712819563062500
-64.91,1712819563078125
-77.07,1712819563093750
-90.72,1712819563109375
-104.68,1712819563125000
-117.73,1712819563140625
-129.08,1712819563156250
-138.7,1712819563171875
-147.13,1712819563187500
-155.24,1712819563203125
-164.01,1712819563218750
-174.38,1712819563234375
-187.12,1712819563250000
-202.5,1712819563265625
-219.68,1712819563281250
-236.26,1712819563296875
-248.16,1712819563312500
-250.55,1712819563328125
-239.33,1712819563343750
-212.9,1712819563359375
-173.06,1712819563375000
