value,timestamp
-0.0,1711091951000000
-0.0,1711091951015625
-0.0,1711091951031250
-0.0,1711091951046875
-0.0,1711091951062500
-0.0,1711091951078125
-0.0,1711091951093750
-0.0,1711091951109375
-0.0,1711091951125000
-0.0,1711091951140625
0.0,1711091951156250
0.01,1711091951171875
0.01,1711091951187500
-0.0,1711091951203125
-0.03,1711091951218750
-0.05,1711091951234375
-0.05,1711091951250000
0.0,1711091951265625
0.13,1711091951281250
0.36,1711091951296875
0.66,1711091951312500
1.01,1711091951328125
1.37,1711091951343750
1.72,1711091951359375
2.06,1711091951375000
2.4,1711091951390625
2.79,1711091951406250
3.24,1711091951421875
3.8,1711091951437500
4.42,1711091951453125
5.06,1711091951468750
5.66,1711091951484375
6.2,1711091951500000
6.68,1711091951515625
7.15,1711091951531250
7.68,1711091951546875
8.31,1711091951562500
9.14,1711091951578125
10.09,1711091951593750
11.04,1711091951609375
11.88,1711091951625000
12.56,1711091951640625
13.14,1711091951656250
13.76,1711091951671875
14.65,1711091951687500
15.96,1711091951703125
17.91,1711091951718750
20.32,1711091951734375
22.9,1711091951750000
25.38,1711091951765625
27.58,1711091951781250
29.57,1711091951796875
31.68,1711091951812500
34.32,1711091951828125
37.81,1711091951843750
42.54,1711091951859375
48.15,1711091951875000
54.1,1711091951890625
59.83,1711091951906250
64.97,1711091951921875
69.58,1711091951937500
74.14,1711091951953125
79.34,1711091951968750
85.71,1711091951984375
93.76,1711091952000000
103.0,1711091952015625
112.62,1711091952031250
121.73,1711091952046875
129.77,1711091952062500
136.75,1711091952078125
143.3,1711091952093750
150.75,1711091952109375
157.77,1711091952125000
166.64,1711091952140625
177.95,1711091952156250
191.79,1711091952171875
206.97,1711091952187500
220.57,1711091952203125
228.25,1711091952218750
225.36,1711091952234375
208.53,1711091952250000
176.87,1711091952265625
132.76,1711091952281250
80.05,1711091952296875
23.07,1711091952312500
-34.94,1711091952328125
-92.44,1711091952343750
-149.16,1711091952359375
-205.23,1711091952375000
-260.37,1711091952390625
-313.74,1711091952406250
-363.87,1711091952421875
-409.83,1711091952437500
-450.91,1711091952453125
-486.5,1711091952468750
-515.74,1711091952484375
-537.23,1711091952500000
-549.22,1711091952515625
-549.96,1711091952531250
-538.37,1711091952546875
-514.21,1711091952562500
-478.67,1711091952578125
-433.88,1711091952593750
-382.45,1711091952609375
-327.02,1711091952625000
-269.84,1711091952640625
-212.63,1711091952656250
-156.66,1711091952671875
-102.95,1711091952687500
-52.37,1711091952703125
-5.9,1711091952718750
35.58,1711091952734375
71.43,1711091952750000
101.35,1711091952765625
125.5,1711091952781250
144.38,1711091952796875
158.69,1711091952812500
169.15,1711091952828125
176.37,1711091952843750
180.75,1711091952859375
182.57,1711091952875000
182.07,1711091952890625
179.51,1711091952906250
175.23,1711091952921875
169.65,1711091952937500
163.18,1711091952953125
156.15,1711091952968750
148.81,1711091952984375
141.3,1711091953000000
133.69,1711091953015625
126.02,1711091953031250
118.33,1711091953046875
110.69,1711091953062500
103.16,1711091953078125
95.8,1711091953093750
88.68,1711091953109375
81.83,1711091953125000
75.25,1711091953140625
68.95,1711091953156250
62.95,1711091953171875
57.25,1711091953187500
51.86,1711091953203125
46.78,1711091953218750
42.03,1711091953234375
37.59,1711091953250000
33.45,1711091953265625
29.61,1711091953281250
26.07,1711091953296875
22.81,1711091953312500
19.83,1711091953328125
17.11,1711091953343750
14.67,1711091953359375
12.48,1711091953375000
10.54,1711091953390625
8.83,1711091953406250
7.35,1711091953421875
6.07,1711091953437500
4.97,1711091953453125
4.05,1711091953468750
3.27,1711091953484375
2.62,1711091953500000
2.09,1711091953515625
1.65,1711091953531250
1.3,1711091953546875
1.01,1711091953562500
0.79,1711091953578125
0.61,1711091953593750
0.47,1711091953609375
0.37,1711091953625000
0.29,1711091953640625
0.23,1711091953656250
0.19,1711091953671875
0.16,1711091953687500
0.15,1711091953703125
0.15,1711091953718750
0.16,1711091953734375
0.17,1711091953750000
0.19,1711091953765625
0.22,1711091953781250
0.26,1711091953796875
0.3,1711091953812500
0.34,1711091953828125
0.38,1711091953843750
0.42,1711091953859375
0.47,1711091953875000
0.52,1711091953890625
0.57,1711091953906250
0.62,1711091953921875
0.67,1711091953937500
0.73,1711091953953125
0.79,1711091953968750
0.86,1711091953984375
0.93,1711091954000000
1.01,1711091954015625
1.1,1711091954031250
1.2,1711091954046875
1.31,1711091954062500
1.44,1711091954078125
1.58,1711091954093750
1.73,1711091954109375
1.91,1711091954125000
2.1,1711091954140625
2.32,1711091954156250
2.56,1711091954171875
2.82,1711091954187500
3.11,1711091954203125
3.44,1711091954218750
3.79,1711091954234375
4.17,1711091954250000
4.59,1711091954265625
5.04,1711091954281250
5.53,1711091954296875
6.06,1711091954312500
6.63,1711091954328125
7.24,1711091954343750
7.89,1711091954359375
8.59,1711091954375000
9.33,1711091954390625
10.12,1711091954406250
10.95,1711091954421875
11.83,1711091954437500
12.74,1711091954453125
13.72,1711091954468750
14.75,1711091954484375
15.84,1711091954500000
17.0,1711091954515625
18.22,1711091954531250
19.47,1711091954546875
20.75,1711091954562500
22.0,1711091954578125
23.13,1711091954593750
24.06,1711091954609375
24.68,1711091954625000
24.85,1711091954640625
24.46,1711091954656250
23.43,1711091954671875
21.67,1711091954687500
19.19,1711091954703125
16.03,1711091954718750
12.24,1711091954734375
8.0,1711091954750000
3.49,1711091954765625
-1.08,1711091954781250
-5.49,1711091954796875
-9.54,1711091954812500
-13.04,1711091954828125
-15.88,1711091954843750
-17.97,1711091954859375
-19.29,1711091954875000
-19.86,1711091954890625
-19.77,1711091954906250
-19.12,1711091954921875
-18.02,1711091954937500
-16.58,1711091954953125
-14.94,1711091954968750
-13.19,1711091954984375
-11.4,1711091955000000
-9.65,1711091955015625
-7.94,1711091955031250
-6.29,1711091955046875
-4.68,1711091955062500
-3.09,1711091955078125
-1.45,1711091955093750
0.25,1711091955109375
2.03,1711091955125000
3.88,1711091955140625
5.84,1711091955156250
7.96,1711091955171875
10.19,1711091955187500
12.54,1711091955203125
15.02,1711091955218750
17.69,1711091955234375
20.52,1711091955250000
23.48,1711091955265625
26.53,1711091955281250
29.66,1711091955296875
32.96,1711091955312500
36.27,1711091955328125
39.6,1711091955343750
43.01,1711091955359375
46.58,1711091955375000
50.28,1711091955390625
54.03,1711091955406250
57.69,1711091955421875
61.21,1711091955437500
64.76,1711091955453125
68.14,1711091955468750
71.46,1711091955484375
74.96,1711091955500000
78.81,1711091955515625
82.93,1711091955531250
87.09,1711091955546875
90.91,1711091955562500
94.1,1711091955578125
96.69,1711091955593750
98.38,1711091955609375
99.3,1711091955625000
99.7,1711091955640625
99.6,1711091955656250
98.53,1711091955671875
95.44,1711091955687500
88.68,1711091955703125
76.02,1711091955718750
60.03,1711091955734375
41.64,1711091955750000
21.87,1711091955765625
1.69,1711091955781250
-18.21,1711091955796875
-37.61,1711091955812500
-56.75,1711091955828125
-76.1,1711091955843750
-96.26,1711091955859375
-117.75,1711091955875000
-141.68,1711091955890625
-168.39,1711091955906250
-197.09,1711091955921875
-225.49,1711091955937500
-249.95,1711091955953125
-266.37,1711091955968750
-271.61,1711091955984375
-264.65,1711091956000000
-246.93,1711091956015625
-222.29,1711091956031250
-194.86,1711091956046875
-167.74,1711091956062500
-142.45,1711091956078125
-119.14,1711091956093750
-97.5,1711091956109375
-77.51,1711091956125000
-59.59,1711091956140625
-44.21,1711091956156250
-31.75,1711091956171875
-21.77,1711091956187500
-13.33,1711091956203125
-5.55,1711091956218750
1.98,1711091956234375
9.04,1711091956250000
14.99,1711091956265625
19.23,1711091956281250
21.66,1711091956296875
22.53,1711091956312500
22.52,1711091956328125
22.32,1711091956343750
22.27,1711091956359375
22.29,1711091956375000
21.97,1711091956390625
20.9,1711091956406250
18.92,1711091956421875
16.26,1711091956437500
13.33,1711091956453125
10.58,1711091956468750
8.19,1711091956484375
6.01,1711091956500000
3.66,1711091956515625
0.64,1711091956531250
-3.33,1711091956546875
-8.25,1711091956562500
-13.8,1711091956578125
-19.51,1711091956593750
-24.96,1711091956609375
-29.99,1711091956625000
-34.82,1711091956640625
-39.94,1711091956656250
-46.0,1711091956671875
-53.51,1711091956687500
-62.57,1711091956703125
-72.53,1711091956718750
-81.95,1711091956734375
-88.71,1711091956750000
-90.55,1711091956765625
-85.76,1711091956781250
-73.74,1711091956796875
-55.4,1711091956812500
-32.93,1711091956828125
-9.19,1711091956843750
13.14,1711091956859375
32.18,1711091956875000
47.13,1711091956890625
58.04,1711091956906250
65.45,1711091956921875
69.98,1711091956937500
72.15,1711091956953125
72.48,1711091956968750
71.52,1711091956984375
69.88,1711091957000000
68.18,1711091957015625
66.82,1711091957031250
66.01,1711091957046875
65.73,1711091957062500
65.86,1711091957078125
66.27,1711091957093750
66.9,1711091957109375
67.65,1711091957125000
68.44,1711091957140625
69.1,1711091957156250
69.46,1711091957171875
69.33,1711091957187500
68.56,1711091957203125
66.96,1711091957218750
64.37,1711091957234375
60.7,1711091957250000
56.03,1711091957265625
50.68,1711091957281250
45.16,1711091957296875
39.96,1711091957312500
35.43,1711091957328125
31.51,1711091957343750
27.87,1711091957359375
24.06,1711091957375000
19.76,1711091957390625
14.93,1711091957406250
9.86,1711091957421875
4.95,1711091957437500
0.52,1711091957453125
-3.36,1711091957468750
-6.9,1711091957484375
-10.48,1711091957500000
-14.54,1711091957515625
-19.32,1711091957531250
-24.85,1711091957546875
-30.86,1711091957562500
-36.98,1711091957578125
-42.76,1711091957593750
-47.93,1711091957609375
-52.47,1711091957625000
-56.62,1711091957640625
-60.92,1711091957656250
-66.05,1711091957671875
-72.62,1711091957687500
-80.89,1711091957703125
-90.52,1711091957718750
-100.35,1711091957734375
-108.54,1711091957750000
-112.92,1711091957765625
-111.57,1711091957781250
-103.4,1711091957796875
-88.55,1711091957812500
-68.32,1711091957828125
-44.91,1711091957843750
-20.78,1711091957859375
1.88,1711091957875000
21.48,1711091957890625
37.22,1711091957906250
48.92,1711091957921875
56.87,1711091957937500
61.56,1711091957953125
63.61,1711091957968750
63.62,1711091957984375
62.27,1711091958000000
60.24,1711091958015625
58.22,1711091958031250
56.78,1711091958046875
56.28,1711091958062500
56.74,1711091958078125
57.86,1711091958093750
59.24,1711091958109375
60.53,1711091958125000
61.54,1711091958140625
62.34,1711091958156250
63.06,1711091958171875
63.8,1711091958187500
64.44,1711091958203125
64.64,1711091958218750
63.94,1711091958234375
61.95,1711091958250000
58.5,1711091958265625
53.79,1711091958281250
48.29,1711091958296875
42.64,1711091958312500
37.43,1711091958328125
32.96,1711091958343750
29.25,1711091958359375
26.0,1711091958375000
22.74,1711091958390625
19.05,1711091958406250
14.73,1711091958421875
9.83,1711091958437500
4.73,1711091958453125
-0.13,1711091958468750
-4.38,1711091958484375
-7.93,1711091958500000
-11.07,1711091958515625
-14.34,1711091958531250
-18.35,1711091958546875
-23.41,1711091958562500
-29.49,1711091958578125
-36.12,1711091958593750
-42.66,1711091958609375
-48.58,1711091958625000
-53.63,1711091958640625
-57.95,1711091958656250
-61.97,1711091958671875
-66.32,1711091958687500
-71.61,1711091958703125
-78.33,1711091958718750
-86.59,1711091958734375
-95.88,1711091958750000
-104.94,1711091958765625
-111.8,1711091958781250
-114.21,1711091958796875
-110.3,1711091958812500
-99.3,1711091958828125
-81.86,1711091958843750
-59.99,1711091958859375
-36.39,1711091958875000
-13.73,1711091958890625
6.09,1711091958906250
22.18,1711091958921875
34.5,1711091958937500
43.51,1711091958953125
49.72,1711091958968750
53.5,1711091958984375
55.15,1711091959000000
55.01,1711091959015625
53.6,1711091959031250
51.57,1711091959046875
49.55,1711091959062500
48.0,1711091959078125
47.09,1711091959093750
46.81,1711091959109375
47.07,1711091959125000
47.84,1711091959140625
49.13,1711091959156250
50.9,1711091959171875
52.97,1711091959187500
54.92,1711091959203125
56.21,1711091959218750
56.35,1711091959234375
55.08,1711091959250000
52.38,1711091959265625
48.56,1711091959281250
44.08,1711091959296875
39.41,1711091959312500
34.92,1711091959328125
30.71,1711091959343750
26.68,1711091959359375
22.55,1711091959375000
18.02,1711091959390625
12.96,1711091959406250
7.47,1711091959421875
1.9,1711091959437500
-3.34,1711091959453125
-7.91,1711091959468750
-11.74,1711091959484375
-15.06,1711091959500000
-18.29,1711091959515625
-21.9,1711091959531250
-26.2,1711091959546875
-31.19,1711091959562500
-36.64,1711091959578125
-42.14,1711091959593750
-47.31,1711091959609375
-52.0,1711091959625000
-56.35,1711091959640625
-60.8,1711091959656250
-65.98,1711091959671875
-72.44,1711091959687500
-80.46,1711091959703125
-89.69,1711091959718750
-99.13,1711091959734375
-107.04,1711091959750000
-111.38,1711091959765625
-110.26,1711091959781250
-102.52,1711091959796875
-88.16,1711091959812500
-68.4,1711091959828125
-45.43,1711091959843750
-21.78,1711091959859375
0.24,1711091959875000
19.09,1711091959890625
34.01,1711091959906250
44.98,1711091959921875
52.39,1711091959937500
56.78,1711091959953125
58.79,1711091959968750
59.06,1711091959984375
58.35,1711091960000000
57.34,1711091960015625
56.62,1711091960031250
56.46,1711091960046875
56.89,1711091960062500
57.68,1711091960078125
58.55,1711091960093750
59.34,1711091960109375
59.99,1711091960125000
60.62,1711091960140625
61.3,1711091960156250
62.04,1711091960171875
62.71,1711091960187500
63.04,1711091960203125
62.69,1711091960218750
61.39,1711091960234375
59.0,1711091960250000
55.56,1711091960265625
51.26,1711091960281250
46.39,1711091960296875
41.26,1711091960312500
36.12,1711091960328125
31.16,1711091960343750
26.49,1711091960359375
22.17,1711091960375000
18.19,1711091960390625
14.47,1711091960406250
10.9,1711091960421875
7.34,1711091960437500
3.74,1711091960453125
0.1,1711091960468750
-3.52,1711091960484375
-7.08,1711091960500000
-10.65,1711091960515625
-14.45,1711091960531250
-18.75,1711091960546875
-23.7,1711091960562500
-29.28,1711091960578125
-35.24,1711091960593750
-41.18,1711091960609375
-46.72,1711091960625000
-51.65,1711091960640625
-56.02,1711091960656250
-60.09,1711091960671875
-64.32,1711091960687500
-69.23,1711091960703125
-75.35,1711091960718750
-83.02,1711091960734375
-92.21,1711091960750000
-102.19,1711091960765625
-111.49,1711091960781250
-117.98,1711091960796875
-119.43,1711091960812500
-114.18,1711091960828125
-101.79,1711091960843750
-83.31,1711091960859375
-60.91,1711091960875000
-37.32,1711091960890625
-14.96,1711091960906250
4.53,1711091960921875
20.39,1711091960937500
32.6,1711091960953125
41.51,1711091960968750
47.55,1711091960984375
51.21,1711091961000000
53.01,1711091961015625
53.58,1711091961031250
53.58,1711091961046875
53.54,1711091961062500
53.79,1711091961078125
54.42,1711091961093750
55.3,1711091961109375
56.27,1711091961125000
57.18,1711091961140625
58.01,1711091961156250
58.85,1711091961171875
59.79,1711091961187500
60.88,1711091961203125
62.01,1711091961218750
62.94,1711091961234375
63.24,1711091961250000
62.55,1711091961265625
60.57,1711091961281250
57.29,1711091961296875
53.0,1711091961312500
48.15,1711091961328125
43.27,1711091961343750
38.73,1711091961359375
34.7,1711091961375000
31.13,1711091961390625
27.83,1711091961406250
24.59,1711091961421875
21.23,1711091961437500
17.63,1711091961453125
13.72,1711091961468750
9.52,1711091961484375
5.18,1711091961500000
0.97,1711091961515625
-2.87,1711091961531250
-6.19,1711091961546875
-9.13,1711091961562500
-12.05,1711091961578125
-15.41,1711091961593750
-19.59,1711091961609375
-24.67,1711091961625000
-30.39,1711091961640625
-36.27,1711091961656250
-41.82,1711091961671875
-46.78,1711091961687500
-51.14,1711091961703125
-55.18,1711091961718750
-59.32,1711091961734375
-64.05,1711091961750000
-69.81,1711091961765625
-76.98,1711091961781250
-85.63,1711091961796875
-95.34,1711091961812500
-104.93,1711091961828125
-112.49,1711091961843750
-115.75,1711091961859375
-112.79,1711091961875000
-102.69,1711091961890625
-86.0,1711091961906250
-64.66,1711091961921875
-41.38,1711091961937500
-18.82,1711091961953125
1.07,1711091961968750
17.36,1711091961984375
29.98,1711091962000000
39.36,1711091962015625
46.0,1711091962031250
50.33,1711091962046875
52.68,1711091962062500
53.46,1711091962078125
53.21,1711091962093750
52.58,1711091962109375
52.13,1711091962125000
52.19,1711091962140625
52.72,1711091962156250
53.47,1711091962171875
54.1,1711091962187500
54.47,1711091962203125
54.68,1711091962218750
54.98,1711091962234375
55.62,1711091962250000
56.57,1711091962265625
57.56,1711091962281250
58.13,1711091962296875
57.77,1711091962312500
56.19,1711091962328125
53.29,1711091962343750
49.18,1711091962359375
44.12,1711091962375000
38.53,1711091962390625
32.9,1711091962406250
27.75,1711091962421875
23.48,1711091962437500
20.22,1711091962453125
17.78,1711091962468750
15.72,1711091962484375
13.45,1711091962500000
10.52,1711091962515625
6.78,1711091962531250
2.38,1711091962546875
-2.3,1711091962562500
-6.87,1711091962578125
-11.04,1711091962593750
-14.74,1711091962609375
-18.14,1711091962625000
-21.56,1711091962640625
-25.34,1711091962656250
-29.67,1711091962671875
-34.5,1711091962687500
-39.55,1711091962703125
-44.47,1711091962718750
-49.01,1711091962734375
-53.16,1711091962750000
-57.25,1711091962765625
-61.82,1711091962781250
-67.55,1711091962796875
-74.99,1711091962812500
-84.33,1711091962828125
-95.12,1711091962843750
-106.12,1711091962859375
-115.38,1711091962875000
-120.58,1711091962890625
-119.72,1711091962906250
-111.71,1711091962921875
-96.77,1711091962937500
-76.42,1711091962953125
-53.0,1711091962968750
-29.07,1711091962984375
-6.74,1711091963000000
12.51,1711091963015625
27.97,1711091963031250
39.47,1711091963046875
47.21,1711091963062500
51.67,1711091963078125
53.52,1711091963093750
53.57,1711091963109375
52.61,1711091963125000
51.29,1711091963140625
50.08,1711091963156250
49.21,1711091963171875
48.79,1711091963187500
48.81,1711091963203125
49.22,1711091963218750
49.94,1711091963234375
50.87,1711091963250000
51.95,1711091963265625
53.13,1711091963281250
54.37,1711091963296875
55.57,1711091963312500
56.49,1711091963328125
56.76,1711091963343750
55.99,1711091963359375
53.91,1711091963375000
50.54,1711091963390625
46.15,1711091963406250
41.2,1711091963421875
36.15,1711091963437500
31.31,1711091963453125
26.76,1711091963468750
22.41,1711091963484375
18.06,1711091963500000
13.51,1711091963515625
8.61,1711091963531250
3.43,1711091963546875
-1.86,1711091963562500
-6.94,1711091963578125
-11.54,1711091963593750
-15.59,1711091963609375
-19.26,1711091963625000
-23.0,1711091963640625
-27.3,1711091963656250
-32.51,1711091963671875
-38.53,1711091963687500
-44.99,1711091963703125
-51.3,1711091963718750
-57.02,1711091963734375
-62.0,1711091963750000
-66.53,1711091963765625
-71.12,1711091963781250
-76.39,1711091963796875
-82.86,1711091963812500
-90.82,1711091963828125
-100.09,1711091963843750
-109.9,1711091963859375
-118.79,1711091963875000
-124.68,1711091963890625
-125.38,1711091963906250
-119.2,1711091963921875
-105.61,1711091963937500
-85.54,1711091963953125
-61.2,1711091963968750
-35.46,1711091963984375
-11.04,1711091964000000
10.12,1711091964015625
27.08,1711091964031250
39.71,1711091964046875
48.42,1711091964062500
53.8,1711091964078125
56.43,1711091964093750
57.0,1711091964109375
56.19,1711091964125000
54.77,1711091964140625
53.42,1711091964156250
52.6,1711091964171875
52.45,1711091964187500
52.83,1711091964203125
53.51,1711091964218750
54.33,1711091964234375
55.34,1711091964250000
56.71,1711091964265625
58.64,1711091964281250
61.1,1711091964296875
63.81,1711091964312500
66.19,1711091964328125
67.66,1711091964343750
67.78,1711091964359375
66.4,1711091964375000
63.63,1711091964390625
59.75,1711091964406250
55.11,1711091964421875
50.04,1711091964437500
44.87,1711091964453125
39.91,1711091964468750
35.45,1711091964484375
31.56,1711091964500000
28.09,1711091964515625
24.69,1711091964531250
20.89,1711091964546875
16.4,1711091964562500
11.26,1711091964578125
5.81,1711091964593750
0.62,1711091964609375
-3.87,1711091964625000
-7.56,1711091964640625
-10.78,1711091964656250
-14.15,1711091964671875
-18.3,1711091964687500
-23.55,1711091964703125
-29.79,1711091964718750
-36.51,1711091964734375
-43.03,1711091964750000
-48.84,1711091964765625
-53.79,1711091964781250
-58.17,1711091964796875
-62.55,1711091964812500
-67.67,1711091964828125
-74.18,1711091964843750
-82.53,1711091964859375
-92.64,1711091964875000
-103.8,1711091964890625
-114.47,1711091964906250
-122.5,1711091964921875
-125.56,1711091964937500
-121.82,1711091964953125
-110.59,1711091964968750
-92.62,1711091964984375
-69.91,1711091965000000
-45.11,1711091965015625
-20.78,1711091965031250
1.17,1711091965046875
19.67,1711091965062500
34.38,1711091965078125
45.39,1711091965093750
53.01,1711091965109375
57.65,1711091965125000
59.82,1711091965140625
60.12,1711091965156250
59.17,1711091965171875
57.55,1711091965187500
55.76,1711091965203125
54.14,1711091965218750
53.01,1711091965234375
52.54,1711091965250000
52.82,1711091965265625
53.78,1711091965281250
55.26,1711091965296875
57.0,1711091965312500
58.74,1711091965328125
60.24,1711091965343750
61.3,1711091965359375
61.69,1711091965375000
61.13,1711091965390625
59.36,1711091965406250
56.27,1711091965421875
51.97,1711091965437500
46.89,1711091965453125
41.65,1711091965468750
36.84,1711091965484375
32.76,1711091965500000
29.35,1711091965515625
26.17,1711091965531250
22.65,1711091965546875
18.37,1711091965562500
13.21,1711091965578125
7.47,1711091965593750
1.65,1711091965609375
-3.72,1711091965625000
-8.4,1711091965640625
-12.54,1711091965656250
-16.59,1711091965671875
-21.09,1711091965687500
-26.4,1711091965703125
-32.58,1711091965718750
-39.31,1711091965734375
-46.1,1711091965750000
-52.49,1711091965765625
-58.26,1711091965781250
-63.51,1711091965796875
-68.65,1711091965812500
-74.33,1711091965828125
-81.27,1711091965843750
-90.05,1711091965859375
-100.71,1711091965875000
-112.46,1711091965890625
-123.53,1711091965906250
-131.45,1711091965921875
-133.6,1711091965937500
-128.13,1711091965953125
-114.51,1711091965968750
-93.86,1711091965984375
-68.58,1711091966000000
-41.68,1711091966015625
-15.93,1711091966031250
6.72,1711091966046875
25.31,1711091966062500
39.72,1711091966078125
50.31,1711091966093750
57.59,1711091966109375
62.02,1711091966125000
64.05,1711091966140625
64.15,1711091966156250
62.89,1711091966171875
60.93,1711091966187500
58.93,1711091966203125
57.36,1711091966218750
56.49,1711091966234375
56.35,1711091966250000
56.84,1711091966265625
57.86,1711091966281250
59.39,1711091966296875
61.41,1711091966312500
63.86,1711091966328125
66.47,1711091966343750
68.8,1711091966359375
70.29,1711091966375000
70.39,1711091966390625
68.78,1711091966406250
65.43,1711091966421875
60.68,1711091966437500
55.11,1711091966453125
49.39,1711091966468750
44.09,1711091966484375
39.5,1711091966500000
35.56,1711091966515625
31.88,1711091966531250
27.95,1711091966546875
23.36,1711091966562500
17.97,1711091966578125
12.0,1711091966593750
5.83,1711091966609375
-0.09,1711091966625000
-5.55,1711091966640625
-10.64,1711091966656250
-15.66,1711091966671875
-21.03,1711091966687500
-26.98,1711091966703125
-33.49,1711091966718750
-40.28,1711091966734375
-46.92,1711091966750000
-53.11,1711091966765625
-58.77,1711091966781250
-64.13,1711091966796875
-69.64,1711091966812500
-75.89,1711091966828125
-83.48,1711091966843750
-92.85,1711091966859375
-104.08,1711091966875000
-116.6,1711091966890625
-128.99,1711091966906250
-139.04,1711091966921875
-144.18,1711091966937500
-142.18,1711091966953125
-131.88,1711091966968750
-113.65,1711091966984375
-89.32,1711091967000000
-61.71,1711091967015625
-33.78,1711091967031250
-8.03,1711091967046875
13.96,1711091967062500
31.53,1711091967078125
44.72,1711091967093750
53.95,1711091967109375
59.82,1711091967125000
62.99,1711091967140625
64.15,1711091967156250
64.04,1711091967171875
63.29,1711091967187500
62.45,1711091967203125
61.81,1711091967218750
61.51,1711091967234375
61.55,1711091967250000
61.9,1711091967265625
62.67,1711091967281250
64.0,1711091967296875
66.06,1711091967312500
68.81,1711091967328125
71.98,1711091967343750
74.97,1711091967359375
77.06,1711091967375000
77.58,1711091967390625
76.14,1711091967406250
72.75,1711091967421875
67.82,1711091967437500
62.0,1711091967453125
55.98,1711091967468750
50.33,1711091967484375
45.33,1711091967500000
40.95,1711091967515625
36.91,1711091967531250
32.81,1711091967546875
28.25,1711091967562500
23.02,1711091967578125
17.15,1711091967593750
10.93,1711091967609375
4.84,1711091967625000
-0.69,1711091967640625
-5.51,1711091967656250
-9.8,1711091967671875
-14.09,1711091967687500
-18.93,1711091967703125
-24.65,1711091967718750
-31.12,1711091967734375
-37.87,1711091967750000
-44.28,1711091967765625
-49.94,1711091967781250
-54.88,1711091967796875
-59.59,1711091967812500
-64.85,1711091967828125
-71.49,1711091967843750
-80.07,1711091967859375
-90.66,1711091967875000
-102.53,1711091967890625
-114.1,1711091967906250
-123.1,1711091967921875
-127.0,1711091967937500
-123.78,1711091967953125
-112.56,1711091967968750
-93.99,1711091967984375
-70.06,1711091968000000
-43.54,1711091968015625
-17.17,1711091968031250
6.87,1711091968046875
27.27,1711091968062500
43.5,1711091968078125
55.5,1711091968093750
63.54,1711091968109375
68.02,1711091968125000
69.55,1711091968140625
68.86,1711091968156250
66.78,1711091968171875
64.12,1711091968187500
61.52,1711091968203125
59.41,1711091968218750
57.97,1711091968234375
57.23,1711091968250000
57.11,1711091968265625
57.53,1711091968281250
58.45,1711091968296875
59.81,1711091968312500
61.48,1711091968328125
63.15,1711091968343750
64.41,1711091968359375
64.81,1711091968375000
64.02,1711091968390625
61.95,1711091968406250
58.72,1711091968421875
54.64,1711091968437500
50.03,1711091968453125
45.18,1711091968468750
40.27,1711091968484375
35.35,1711091968500000
30.4,1711091968515625
25.37,1711091968531250
20.17,1711091968546875
14.78,1711091968562500
9.2,1711091968578125
3.55,1711091968593750
-2.0,1711091968609375
-7.32,1711091968625000
-12.34,1711091968640625
-17.19,1711091968656250
-22.16,1711091968671875
-27.55,1711091968687500
-33.54,1711091968703125
-40.06,1711091968718750
-46.78,1711091968734375
-53.25,1711091968750000
-59.1,1711091968765625
-64.31,1711091968781250
-69.23,1711091968796875
-74.52,1711091968812500
-81.03,1711091968828125
-89.44,1711091968843750
-100.05,1711091968859375
-112.4,1711091968875000
-125.1,1711091968890625
-135.95,1711091968906250
-142.31,1711091968921875
-141.81,1711091968937500
-133.05,1711091968953125
-116.13,1711091968968750
-92.64,1711091968984375
-65.23,1711091969000000
-36.89,1711091969015625
-10.2,1711091969031250
13.0,1711091969046875
31.8,1711091969062500
46.02,1711091969078125
55.96,1711091969093750
62.22,1711091969109375
65.52,1711091969125000
66.58,1711091969140625
66.11,1711091969156250
64.75,1711091969171875
63.06,1711091969187500
61.51,1711091969203125
60.43,1711091969218750
59.97,1711091969234375
60.11,1711091969250000
60.71,1711091969265625
61.63,1711091969281250
62.8,1711091969296875
64.21,1711091969312500
65.87,1711091969328125
67.59,1711091969343750
68.94,1711091969359375
69.34,1711091969375000
68.19,1711091969390625
65.22,1711091969406250
60.55,1711091969421875
54.74,1711091969437500
48.57,1711091969453125
42.73,1711091969468750
37.64,1711091969484375
33.28,1711091969500000
29.32,1711091969515625
25.32,1711091969531250
20.92,1711091969546875
16.03,1711091969562500
10.75,1711091969578125
5.39,1711091969593750
0.28,1711091969609375
-4.41,1711091969625000
-8.7,1711091969640625
-12.85,1711091969656250
-17.29,1711091969671875
-22.44,1711091969687500
-28.55,1711091969703125
-35.54,1711091969718750
-43.05,1711091969734375
-50.49,1711091969750000
-57.3,1711091969765625
-63.22,1711091969781250
-68.34,1711091969796875
-73.14,1711091969812500
-78.4,1711091969828125
-84.92,1711091969843750
-93.33,1711091969859375
-103.7,1711091969875000
-115.3,1711091969890625
-126.49,1711091969906250
-134.85,1711091969921875
-137.77,1711091969937500
-133.15,1711091969953125
-120.1,1711091969968750
-99.28,1711091969984375
-72.83,1711091970000000
-43.74,1711091970015625
-15.13,1711091970031250
10.5,1711091970046875
31.59,1711091970062500
47.58,1711091970078125
58.69,1711091970093750
65.6,1711091970109375
69.2,1711091970125000
70.39,1711091970140625
70.01,1711091970156250
68.8,1711091970171875
67.37,1711091970187500
66.13,1711091970203125
65.35,1711091970218750
65.09,1711091970234375
65.25,1711091970250000
65.72,1711091970265625
66.45,1711091970281250
67.48,1711091970296875
68.89,1711091970312500
70.7,1711091970328125
72.72,1711091970343750
74.47,1711091970359375
75.32,1711091970375000
74.68,1711091970390625
72.21,1711091970406250
68.0,1711091970421875
62.53,1711091970437500
56.51,1711091970453125
50.6,1711091970468750
45.17,1711091970484375
40.24,1711091970500000
35.49,1711091970515625
30.51,1711091970531250
25.02,1711091970546875
18.96,1711091970562500
12.64,1711091970578125
6.42,1711091970593750
0.66,1711091970609375
-4.55,1711091970625000
-9.4,1711091970640625
-14.32,1711091970656250
-19.74,1711091970671875
-25.89,1711091970687500
-32.71,1711091970703125
-39.79,1711091970718750
-46.67,1711091970734375
-52.94,1711091970750000
-58.54,1711091970765625
-63.76,1711091970781250
-69.21,1711091970796875
-75.63,1711091970812500
-83.7,1711091970828125
-93.73,1711091970843750
-105.31,1711091970859375
-117.2,1711091970875000
-127.27,1711091970890625
-132.95,1711091970906250
-131.92,1711091970921875
-122.82,1711091970937500
-105.8,1711091970953125
-82.5,1711091970968750
-55.63,1711091970984375
-28.19,1711091971000000
-2.74,1711091971015625
19.05,1711091971031250
36.45,1711091971046875
49.42,1711091971062500
58.41,1711091971078125
63.99,1711091971093750
66.82,1711091971109375
67.56,1711091971125000
66.87,1711091971140625
65.35,1711091971156250
63.53,1711091971171875
61.84,1711091971187500
60.53,1711091971203125
59.71,1711091971218750
59.35,1711091971234375
59.38,1711091971250000
59.75,1711091971265625
60.46,1711091971281250
61.49,1711091971296875
62.81,1711091971312500
64.22,1711091971328125
65.36,1711091971343750
65.73,1711091971359375
64.84,1711091971375000
62.4,1711091971390625
58.41,1711091971406250
53.22,1711091971421875
47.44,1711091971437500
41.71,1711091971453125
36.47,1711091971468750
31.84,1711091971484375
27.61,1711091971500000
23.36,1711091971515625
18.69,1711091971531250
13.45,1711091971546875
7.77,1711091971562500
2.01,1711091971578125
-3.43,1711091971593750
-8.38,1711091971609375
-12.89,1711091971625000
-17.33,1711091971640625
-22.15,1711091971656250
-27.66,1711091971671875
-33.94,1711091971687500
-40.75,1711091971703125
-47.69,1711091971718750
-54.37,1711091971734375
-60.58,1711091971750000
-66.35,1711091971765625
-72.02,1711091971781250
-78.11,1711091971796875
-85.25,1711091971812500
-94.01,1711091971828125
-104.58,1711091971843750
-116.48,1711091971859375
-128.31,1711091971875000
-137.77,1711091971890625
-142.24,1711091971906250
-139.39,1711091971921875
-128.09,1711091971937500
-108.77,1711091971953125
-83.4,1711091971968750
-54.92,1711091971984375
-26.42,1711091972000000
-0.41,1711091972015625
21.56,1711091972031250
38.88,1711091972046875
51.64,1711091972062500
60.29,1711091972078125
65.45,1711091972093750
67.82,1711091972109375
68.14,1711091972125000
67.18,1711091972140625
65.69,1711091972156250
64.27,1711091972171875
63.27,1711091972187500
62.8,1711091972203125
62.76,1711091972218750
63.04,1711091972234375
63.6,1711091972250000
64.52,1711091972265625
65.9,1711091972281250
67.73,1711091972296875
69.76,1711091972312500
71.51,1711091972328125
72.43,1711091972343750
72.02,1711091972359375
70.04,1711091972375000
66.56,1711091972390625
61.88,1711091972406250
56.46,1711091972421875
50.77,1711091972437500
45.18,1711091972453125
39.94,1711091972468750
35.14,1711091972484375
30.72,1711091972500000
26.5,1711091972515625
22.23,1711091972531250
17.66,1711091972546875
12.68,1711091972562500
7.32,1711091972578125
1.81,1711091972593750
-3.54,1711091972609375
-8.41,1711091972625000
-12.65,1711091972640625
-16.35,1711091972656250
-19.87,1711091972671875
-23.7,1711091972687500
-28.29,1711091972703125
-33.84,1711091972718750
-40.19,1711091972734375
-46.91,1711091972750000
-53.45,1711091972765625
-59.46,1711091972781250
-64.88,1711091972796875
-70.01,1711091972812500
-75.44,1711091972828125
-81.86,1711091972843750
-89.89,1711091972859375
-99.83,1711091972875000
-111.38,1711091972890625
-123.37,1711091972906250
-133.78,1711091972921875
-140.03,1711091972937500
-139.6,1711091972953125
-130.89,1711091972968750
-113.81,1711091972984375
-89.87,1711091973000000
-61.86,1711091973015625
-32.98,1711091973031250
-6.09,1711091973046875
16.87,1711091973062500
34.98,1711091973078125
48.22,1711091973093750
57.06,1711091973109375
62.23,1711091973125000
64.57,1711091973140625
64.91,1711091973156250
64.02,1711091973171875
62.58,1711091973187500
61.12,1711091973203125
60.01,1711091973218750
59.39,1711091973234375
59.29,1711091973250000
59.63,1711091973265625
60.37,1711091973281250
61.47,1711091973296875
62.94,1711091973312500
64.7,1711091973328125
66.58,1711091973343750
68.23,1711091973359375
69.23,1711091973375000
69.16,1711091973390625
67.71,1711091973406250
64.79,1711091973421875
60.53,1711091973437500
55.33,1711091973453125
49.72,1711091973468750
44.21,1711091973484375
39.17,1711091973500000
34.73,1711091973515625
30.73,1711091973531250
26.85,1711091973546875
22.74,1711091973562500
18.17,1711091973578125
13.13,1711091973593750
7.85,1711091973609375
2.63,1711091973625000
-2.19,1711091973640625
-6.44,1711091973656250
-10.13,1711091973671875
-13.49,1711091973687500
-16.88,1711091973703125
-20.67,1711091973718750
-25.11,1711091973734375
-30.21,1711091973750000
-35.75,1711091973765625
-41.38,1711091973781250
-46.72,1711091973796875
-51.54,1711091973812500
-55.83,1711091973828125
-59.86,1711091973843750
-64.14,1711091973859375
-69.33,1711091973875000
-76.11,1711091973890625
-84.9,1711091973906250
-95.52,1711091973921875
-106.93,1711091973937500
-117.21,1711091973953125
-123.85,1711091973968750
-124.45,1711091973984375
-117.42,1711091974000000
-102.53,1711091974015625
-81.12,1711091974031250
-55.63,1711091974046875
-29.03,1711091974062500
-3.98,1711091974078125
17.62,1711091974093750
34.82,1711091974109375
47.5,1711091974125000
56.03,1711091974140625
61.0,1711091974156250
63.05,1711091974171875
62.79,1711091974187500
60.86,1711091974203125
57.97,1711091974218750
54.84,1711091974234375
52.12,1711091974250000
50.29,1711091974265625
49.52,1711091974281250
49.74,1711091974296875
50.72,1711091974312500
52.3,1711091974328125
54.34,1711091974343750
56.82,1711091974359375
59.59,1711091974375000
62.34,1711091974390625
64.57,1711091974406250
65.71,1711091974421875
65.29,1711091974437500
63.18,1711091974453125
59.55,1711091974468750
54.83,1711091974484375
49.56,1711091974500000
44.15,1711091974515625
38.86,1711091974531250
33.79,1711091974546875
28.97,1711091974562500
24.35,1711091974578125
19.91,1711091974593750
15.58,1711091974609375
11.24,1711091974625000
6.81,1711091974640625
2.25,1711091974656250
-2.3,1711091974671875
-6.63,1711091974687500
-10.57,1711091974703125
-14.17,1711091974718750
-17.73,1711091974734375
-21.76,1711091974750000
-26.71,1711091974765625
-32.73,1711091974781250
-39.54,1711091974796875
-46.51,1711091974812500
-52.95,1711091974828125
-58.45,1711091974843750
-63.03,1711091974859375
-67.19,1711091974875000
-71.73,1711091974890625
-77.47,1711091974906250
-85.02,1711091974921875
-94.51,1711091974937500
-105.34,1711091974953125
-116.1,1711091974968750
-124.65,1711091974984375
-128.58,1711091975000000
-125.81,1711091975015625
-115.28,1711091975031250
-97.29,1711091975046875
-73.57,1711091975062500
-46.75,1711091975078125
-19.73,1711091975093750
5.07,1711091975109375
25.99,1711091975125000
42.31,1711091975140625
54.01,1711091975156250
61.48,1711091975171875
65.36,1711091975187500
66.38,1711091975203125
65.33,1711091975218750
63.01,1711091975234375
60.19,1711091975250000
57.55,1711091975265625
55.5,1711091975281250
54.23,1711091975296875
53.7,1711091975312500
53.74,1711091975328125
54.22,1711091975343750
55.09,1711091975359375
56.37,1711091975375000
58.06,1711091975390625
60.0,1711091975406250
61.84,1711091975421875
63.04,1711091975437500
63.09,1711091975453125
61.65,1711091975468750
58.7,1711091975484375
54.53,1711091975500000
49.65,1711091975515625
44.56,1711091975531250
39.7,1711091975546875
35.25,1711091975562500
31.19,1711091975578125
27.36,1711091975593750
23.53,1711091975609375
19.49,1711091975625000
15.14,1711091975640625
10.49,1711091975656250
5.67,1711091975671875
0.9,1711091975687500
-3.58,1711091975703125
-7.62,1711091975718750
-11.24,1711091975734375
-14.62,1711091975750000
-18.05,1711091975765625
-21.91,1711091975781250
-26.52,1711091975796875
-31.97,1711091975812500
-38.14,1711091975828125
-44.65,1711091975843750
-51.0,1711091975859375
-56.78,1711091975875000
-61.82,1711091975890625
-66.3,1711091975906250
-70.73,1711091975921875
-75.8,1711091975937500
-82.22,1711091975953125
-90.47,1711091975968750
-100.59,1711091975984375
-111.86,1711091976000000
-122.74,1711091976015625
-130.94,1711091976031250
-133.92,1711091976046875
-129.6,1711091976062500
-117.12,1711091976078125
-97.13,1711091976093750
-71.77,1711091976109375
-44.0,1711091976125000
-16.78,1711091976140625
7.6,1711091976156250
27.77,1711091976171875
43.29,1711091976187500
54.31,1711091976203125
61.3,1711091976218750
64.94,1711091976234375
65.99,1711091976250000
65.26,1711091976265625
63.5,1711091976281250
61.32,1711091976296875
59.13,1711091976312500
57.2,1711091976328125
55.69,1711091976343750
54.7,1711091976359375
54.32,1711091976375000
54.58,1711091976390625
55.43,1711091976406250
56.75,1711091976421875
58.4,1711091976437500
60.16,1711091976453125
61.79,1711091976468750
62.92,1711091976484375
63.09,1711091976500000
61.93,1711091976515625
59.28,1711091976531250
55.31,1711091976546875
50.52,1711091976562500
45.51,1711091976578125
40.77,1711091976593750
36.48,1711091976609375
32.56,1711091976625000
28.76,1711091976640625
24.9,1711091976656250
20.83,1711091976671875
16.51,1711091976687500
11.94,1711091976703125
7.1,1711091976718750
2.07,1711091976734375
-2.98,1711091976750000
-7.81,1711091976765625
-12.21,1711091976781250
-16.13,1711091976796875
-19.8,1711091976812500
-23.61,1711091976828125
-28.02,1711091976843750
-33.24,1711091976859375
-39.22,1711091976875000
-45.56,1711091976890625
-51.8,1711091976906250
-57.53,1711091976921875
-62.54,1711091976937500
-66.94,1711091976953125
-71.08,1711091976968750
-75.53,1711091976984375
-80.99,1711091977000000
-88.13,1711091977015625
-97.21,1711091977031250
-107.72,1711091977046875
-118.13,1711091977062500
-126.01,1711091977078125
-128.7,1711091977093750
-124.13,1711091977109375
-111.58,1711091977125000
-92.01,1711091977140625
-67.72,1711091977156250
-41.59,1711091977171875
-16.26,1711091977187500
6.39,1711091977203125
25.32,1711091977218750
40.1,1711091977234375
50.68,1711091977250000
57.2,1711091977265625
60.1,1711091977281250
60.12,1711091977296875
58.28,1711091977312500
55.64,1711091977328125
53.08,1711091977343750
51.08,1711091977359375
49.77,1711091977375000
49.08,1711091977390625
48.86,1711091977406250
49.09,1711091977421875
49.86,1711091977437500
51.22,1711091977453125
53.15,1711091977468750
55.4,1711091977484375
57.6,1711091977500000
59.26,1711091977515625
59.93,1711091977531250
59.29,1711091977546875
57.28,1711091977562500
54.09,1711091977578125
50.08,1711091977593750
45.71,1711091977609375
41.31,1711091977625000
37.05,1711091977640625
32.84,1711091977656250
28.47,1711091977671875
23.76,1711091977687500
18.67,1711091977703125
13.32,1711091977718750
7.96,1711091977734375
2.85,1711091977750000
-1.84,1711091977765625
-6.13,1711091977781250
-10.24,1711091977796875
-14.52,1711091977812500
-19.3,1711091977828125
-24.79,1711091977843750
-30.95,1711091977859375
-37.47,1711091977875000
-43.88,1711091977890625
-49.74,1711091977906250
-54.81,1711091977921875
-59.19,1711091977937500
-63.28,1711091977953125
-67.67,1711091977968750
-73.12,1711091977984375
-80.26,1711091978000000
-89.31,1711091978015625
-99.72,1711091978031250
-109.99,1711091978046875
-117.8,1711091978062500
-120.55,1711091978078125
-116.21,1711091978093750
-104.05,1711091978109375
-84.9,1711091978125000
-60.97,1711091978140625
-35.02,1711091978156250
-9.7,1711091978171875
13.06,1711091978187500
32.11,1711091978203125
46.94,1711091978218750
57.46,1711091978234375
63.88,1711091978250000
66.65,1711091978265625
66.5,1711091978281250
64.37,1711091978296875
61.2,1711091978312500
57.85,1711091978328125
54.93,1711091978343750
52.78,1711091978359375
51.54,1711091978375000
51.14,1711091978390625
51.4,1711091978406250
52.08,1711091978421875
53.0,1711091978437500
54.01,1711091978453125
55.1,1711091978468750
56.2,1711091978484375
57.14,1711091978500000
57.58,1711091978515625
57.08,1711091978531250
55.24,1711091978546875
51.89,1711091978562500
47.26,1711091978578125
41.85,1711091978593750
36.23,1711091978609375
30.81,1711091978625000
25.64,1711091978640625
20.45,1711091978656250
14.9,1711091978671875
8.8,1711091978687500
2.28,1711091978703125
-4.21,1711091978718750
-10.23,1711091978734375
-15.53,1711091978750000
-20.22,1711091978765625
-24.73,1711091978781250
-29.54,1711091978796875
-34.94,1711091978812500
-40.89,1711091978828125
-47.08,1711091978843750
-53.08,1711091978859375
-58.59,1711091978875000
-63.54,1711091978890625
-68.13,1711091978906250
-72.86,1711091978921875
-78.38,1711091978937500
-85.39,1711091978953125
-94.35,1711091978968750
-105.08,1711091978984375
-116.51,1711091979000000
-126.63,1711091979015625
-132.86,1711091979031250
-132.79,1711091979046875
-124.95,1711091979062500
-109.34,1711091979078125
-87.44,1711091979093750
-61.78,1711091979109375
-35.16,1711091979125000
-10.06,1711091979140625
11.8,1711091979156250
29.53,1711091979171875
42.95,1711091979187500
52.32,1711091979203125
58.15,1711091979218750
61.08,1711091979234375
61.79,1711091979250000
60.96,1711091979265625
59.32,1711091979281250
57.47,1711091979296875
55.93,1711091979312500
55.03,1711091979328125
54.89,1711091979343750
55.49,1711091979359375
56.76,1711091979375000
58.6,1711091979390625
60.87,1711091979406250
63.43,1711091979421875
65.95,1711091979437500
67.97,1711091979453125
69.02,1711091979468750
68.68,1711091979484375
66.76,1711091979500000
63.33,1711091979515625
58.73,1711091979531250
53.43,1711091979546875
47.91,1711091979562500
42.48,1711091979578125
37.26,1711091979593750
32.13,1711091979609375
26.91,1711091979625000
21.47,1711091979640625
15.8,1711091979656250
10.08,1711091979671875
4.52,1711091979687500
-0.73,1711091979703125
-5.71,1711091979718750
-10.65,1711091979734375
-15.84,1711091979750000
-21.56,1711091979765625
-27.84,1711091979781250
-34.52,1711091979796875
-41.22,1711091979812500
-47.51,1711091979828125
-53.1,1711091979843750
-58.05,1711091979859375
-62.78,1711091979875000
-68.03,1711091979890625
-74.65,1711091979906250
-83.23,1711091979921875
-93.79,1711091979937500
-105.5,1711091979953125
-116.63,1711091979968750
-124.82,1711091979984375
-127.66,1711091980000000
-123.35,1711091980015625
-111.26,1711091980031250
-92.23,1711091980046875
-68.33,1711091980062500
-42.29,1711091980078125
-16.86,1711091980093750
5.88,1711091980109375
24.73,1711091980125000
39.38,1711091980140625
50.03,1711091980156250
57.15,1711091980171875
61.23,1711091980187500
62.77,1711091980203125
62.35,1711091980218750
60.6,1711091980234375
58.21,1711091980250000
55.79,1711091980265625
53.84,1711091980281250
52.62,1711091980296875
52.27,1711091980312500
52.78,1711091980328125
54.04,1711091980343750
55.91,1711091980359375
58.11,1711091980375000
60.33,1711091980390625
62.17,1711091980406250
63.26,1711091980421875
63.32,1711091980437500
62.21,1711091980453125
59.96,1711091980468750
56.72,1711091980484375
52.75,1711091980500000
48.26,1711091980515625
43.43,1711091980531250
38.32,1711091980546875
32.92,1711091980562500
27.21,1711091980578125
21.28,1711091980593750
15.34,1711091980609375
9.65,1711091980625000
4.46,1711091980640625
-0.2,1711091980656250
-4.43,1711091980671875
-8.53,1711091980687500
-12.76,1711091980703125
-17.33,1711091980718750
-22.27,1711091980734375
-27.5,1711091980750000
-32.83,1711091980765625
-38.1,1711091980781250
-43.22,1711091980796875
-48.31,1711091980812500
-53.71,1711091980828125
-60.03,1711091980843750
-67.85,1711091980859375
-77.46,1711091980875000
-88.34,1711091980890625
-99.0,1711091980906250
-107.12,1711091980921875
-110.14,1711091980937500
-106.1,1711091980953125
-94.39,1711091980968750
-75.97,1711091980984375
-53.1,1711091981000000
-28.6,1711091981015625
-5.02,1711091981031250
15.82,1711091981046875
33.02,1711091981062500
46.32,1711091981078125
55.81,1711091981093750
61.68,1711091981109375
64.27,1711091981125000
64.1,1711091981140625
61.96,1711091981156250
58.79,1711091981171875
55.48,1711091981187500
52.7,1711091981203125
50.79,1711091981218750
49.83,1711091981234375
49.77,1711091981250000
50.56,1711091981265625
52.09,1711091981281250
54.18,1711091981296875
56.45,1711091981312500
58.4,1711091981328125
59.49,1711091981343750
59.39,1711091981359375
58.04,1711091981375000
55.59,1711091981390625
52.38,1711091981406250
48.69,1711091981421875
44.62,1711091981437500
40.16,1711091981453125
35.21,1711091981468750
29.76,1711091981484375
23.9,1711091981500000
17.85,1711091981515625
11.9,1711091981531250
6.3,1711091981546875
1.2,1711091981562500
-3.43,1711091981578125
-7.8,1711091981593750
-12.22,1711091981609375
-17.02,1711091981625000
-22.39,1711091981640625
-28.3,1711091981656250
-34.54,1711091981671875
-40.76,1711091981687500
-46.64,1711091981703125
-52.08,1711091981718750
-57.2,1711091981734375
-62.45,1711091981750000
-68.47,1711091981765625
-75.94,1711091981781250
-85.25,1711091981796875
-96.13,1711091981812500
-107.36,1711091981828125
-116.88,1711091981843750
-122.12,1711091981859375
-120.82,1711091981875000
-111.78,1711091981890625
-95.33,1711091981906250
-73.33,1711091981921875
-48.56,1711091981937500
-23.87,1711091981953125
-1.46,1711091981968750
17.41,1711091981984375
32.42,1711091982000000
43.74,1711091982015625
51.72,1711091982031250
56.74,1711091982046875
59.19,1711091982062500
59.58,1711091982078125
58.54,1711091982093750
56.72,1711091982109375
54.64,1711091982125000
52.65,1711091982140625
50.88,1711091982156250
49.41,1711091982171875
48.38,1711091982187500
47.96,1711091982203125
48.32,1711091982218750
49.41,1711091982234375
50.99,1711091982250000
52.57,1711091982265625
53.6,1711091982281250
53.68,1711091982296875
52.6,1711091982312500
50.38,1711091982328125
47.26,1711091982343750
43.51,1711091982359375
39.4,1711091982375000
35.09,1711091982390625
30.62,1711091982406250
25.94,1711091982421875
21.01,1711091982437500
15.87,1711091982453125
10.73,1711091982468750
5.89,1711091982484375
1.64,1711091982500000
-1.92,1711091982515625
-4.99,1711091982531250
-8.02,1711091982546875
-11.48,1711091982562500
-15.69,1711091982578125
-20.67,1711091982593750
-26.16,1711091982609375
-31.74,1711091982625000
-37.11,1711091982640625
-42.12,1711091982656250
-46.88,1711091982671875
-51.72,1711091982687500
-57.14,1711091982703125
-63.73,1711091982718750
-71.98,1711091982734375
-81.87,1711091982750000
-92.6,1711091982765625
-102.46,1711091982781250
-109.03,1711091982796875
-109.95,1711091982812500
-103.65,1711091982828125
-89.99,1711091982843750
-70.38,1711091982859375
-47.32,1711091982875000
-23.61,1711091982890625
-1.61,1711091982906250
17.18,1711091982921875
32.23,1711091982937500
43.62,1711091982953125
51.76,1711091982968750
57.09,1711091982984375
60.07,1711091983000000
61.14,1711091983015625
60.82,1711091983031250
59.67,1711091983046875
58.21,1711091983062500
56.85,1711091983078125
55.79,1711091983093750
55.13,1711091983109375
54.92,1711091983125000
55.2,1711091983140625
56.03,1711091983156250
57.34,1711091983171875
58.88,1711091983187500
60.23,1711091983203125
60.88,1711091983218750
60.47,1711091983234375
58.83,1711091983250000
56.04,1711091983265625
52.35,1711091983281250
47.98,1711091983296875
43.14,1711091983312500
38.05,1711091983328125
32.88,1711091983343750
27.8,1711091983359375
22.92,1711091983375000
18.22,1711091983390625
13.59,1711091983406250
8.89,1711091983421875
4.01,1711091983437500
-1.04,1711091983453125
-6.23,1711091983468750
-11.57,1711091983484375
-17.03,1711091983500000
-22.61,1711091983515625
-28.29,1711091983531250
-33.97,1711091983546875
-39.53,1711091983562500
-44.84,1711091983578125
-49.87,1711091983593750
-54.68,1711091983609375
-59.53,1711091983625000
-64.85,1711091983640625
-71.2,1711091983656250
-79.07,1711091983671875
-88.49,1711091983687500
-98.65,1711091983703125
-107.89,1711091983718750
-113.88,1711091983734375
-114.39,1711091983750000
-107.97,1711091983765625
-94.55,1711091983781250
-75.37,1711091983796875
-52.66,1711091983812500
-28.9,1711091983828125
-6.25,1711091983843750
13.74,1711091983859375
30.19,1711091983875000
42.73,1711091983890625
51.39,1711091983906250
56.52,1711091983921875
58.75,1711091983937500
58.9,1711091983953125
57.81,1711091983968750
56.23,1711091983984375
54.65,1711091984000000
53.29,1711091984015625
52.25,1711091984031250
51.52,1711091984046875
51.2,1711091984062500
51.43,1711091984078125
52.36,1711091984093750
53.98,1711091984109375
56.05,1711091984125000
58.09,1711091984140625
59.5,1711091984156250
59.79,1711091984171875
58.7,1711091984187500
56.31,1711091984203125
52.93,1711091984218750
48.93,1711091984234375
44.64,1711091984250000
40.21,1711091984265625
35.72,1711091984281250
31.15,1711091984296875
26.52,1711091984312500
21.87,1711091984328125
17.23,1711091984343750
12.59,1711091984359375
7.92,1711091984375000
3.16,1711091984390625
-1.71,1711091984406250
-6.67,1711091984421875
-11.67,1711091984437500
-16.62,1711091984453125
-21.5,1711091984468750
-26.33,1711091984484375
-31.18,1711091984500000
-36.09,1711091984515625
-41.1,1711091984531250
-46.2,1711091984546875
-51.44,1711091984562500
-56.97,1711091984578125
-63.13,1711091984593750
-70.32,1711091984609375
-78.76,1711091984625000
-88.16,1711091984640625
-97.47,1711091984656250
-104.91,1711091984671875
-108.33,1711091984687500
-105.91,1711091984703125
-96.77,1711091984718750
-81.39,1711091984734375
-61.45,1711091984750000
-39.39,1711091984765625
-17.65,1711091984781250
1.89,1711091984796875
18.16,1711091984812500
30.84,1711091984828125
40.09,1711091984843750
46.22,1711091984859375
49.58,1711091984875000
50.53,1711091984890625
49.54,1711091984906250
47.17,1711091984921875
44.12,1711091984937500
41.01,1711091984953125
38.39,1711091984968750
36.58,1711091984984375
35.72,1711091985000000
35.75,1711091985015625
36.53,1711091985031250
37.81,1711091985046875
39.32,1711091985062500
40.7,1711091985078125
41.62,1711091985093750
41.79,1711091985109375
41.04,1711091985125000
39.36,1711091985140625
36.89,1711091985156250
33.85,1711091985171875
30.47,1711091985187500
26.86,1711091985203125
23.0,1711091985218750
18.75,1711091985234375
13.94,1711091985250000
8.52,1711091985265625
2.73,1711091985281250
-3.04,1711091985296875
-8.28,1711091985312500
-12.64,1711091985328125
-16.12,1711091985343750
-19.02,1711091985359375
-21.89,1711091985375000
-25.16,1711091985390625
-29.09,1711091985406250
-33.61,1711091985421875
-38.45,1711091985437500
-43.32,1711091985453125
-48.08,1711091985468750
-52.76,1711091985484375
-57.58,1711091985500000
-62.88,1711091985515625
-69.08,1711091985531250
-76.61,1711091985546875
-85.61,1711091985562500
-95.69,1711091985578125
-105.71,1711091985593750
-113.77,1711091985609375
-117.64,1711091985625000
-115.39,1711091985640625
-106.06,1711091985656250
-90.05,1711091985671875
-69.02,1711091985687500
-45.38,1711091985703125
-21.61,1711091985718750
0.29,1711091985734375
19.15,1711091985750000
34.44,1711091985765625
46.21,1711091985781250
54.66,1711091985796875
60.16,1711091985812500
63.12,1711091985828125
64.06,1711091985843750
63.61,1711091985859375
62.35,1711091985875000
60.8,1711091985890625
59.3,1711091985906250
58.05,1711091985921875
57.13,1711091985937500
56.64,1711091985953125
56.64,1711091985968750
57.2,1711091985984375
58.22,1711091986000000
59.44,1711091986015625
60.45,1711091986031250
60.81,1711091986046875
60.18,1711091986062500
58.4,1711091986078125
55.54,1711091986093750
51.79,1711091986109375
47.43,1711091986125000
42.69,1711091986140625
37.74,1711091986156250
32.64,1711091986171875
27.38,1711091986187500
21.93,1711091986203125
16.33,1711091986218750
10.72,1711091986234375
5.31,1711091986250000
0.3,1711091986265625
-4.28,1711091986281250
-8.6,1711091986296875
-13.0,1711091986312500
-17.81,1711091986328125
-23.17,1711091986343750
-28.96,1711091986359375
-34.87,1711091986375000
-40.52,1711091986390625
-45.71,1711091986406250
-50.49,1711091986421875
-55.12,1711091986437500
-60.02,1711091986453125
-65.62,1711091986468750
-72.37,1711091986484375
-80.55,1711091986500000
-90.08,1711091986515625
-100.26,1711091986531250
-109.63,1711091986546875
-116.08,1711091986562500
-117.42,1711091986578125
-112.06,1711091986593750
-99.61,1711091986609375
-81.06,1711091986625000
-58.51,1711091986640625
-34.53,1711091986656250
-11.49,1711091986671875
8.95,1711091986687500
25.91,1711091986703125
39.24,1711091986718750
49.14,1711091986734375
55.97,1711091986750000
60.09,1711091986765625
61.88,1711091986781250
61.76,1711091986796875
60.28,1711091986812500
58.1,1711091986828125
55.83,1711091986843750
53.96,1711091986859375
52.76,1711091986875000
52.29,1711091986890625
52.52,1711091986906250
53.36,1711091986921875
54.75,1711091986937500
56.54,1711091986953125
58.46,1711091986968750
60.04,1711091986984375
60.75,1711091987000000
60.12,1711091987015625
58.0,1711091987031250
54.52,1711091987046875
50.08,1711091987062500
45.12,1711091987078125
40.0,1711091987093750
34.88,1711091987109375
29.74,1711091987125000
24.52,1711091987140625
19.14,1711091987156250
13.67,1711091987171875
8.23,1711091987187500
2.98,1711091987203125
-2.04,1711091987218750
-6.91,1711091987234375
-11.83,1711091987250000
-16.99,1711091987265625
-22.46,1711091987281250
-28.18,1711091987296875
-33.93,1711091987312500
-39.46,1711091987328125
-44.59,1711091987343750
-49.32,1711091987359375
-53.9,1711091987375000
-58.82,1711091987390625
-64.72,1711091987406250
-72.17,1711091987421875
-81.3,1711091987437500
-91.48,1711091987453125
-101.16,1711091987468750
-108.16,1711091987484375
-110.16,1711091987500000
-105.54,1711091987515625
-93.91,1711091987531250
-76.25,1711091987546875
-54.59,1711091987562500
-31.37,1711091987578125
-8.82,1711091987593750
11.47,1711091987609375
28.56,1711091987625000
42.06,1711091987640625
51.89,1711091987656250
58.21,1711091987671875
61.39,1711091987687500
62.0,1711091987703125
60.85,1711091987718750
58.73,1711091987734375
56.38,1711091987750000
54.28,1711091987765625
52.67,1711091987781250
51.56,1711091987796875
50.88,1711091987812500
50.61,1711091987828125
50.75,1711091987843750
51.36,1711091987859375
52.41,1711091987875000
53.7,1711091987890625
54.83,1711091987906250
55.26,1711091987921875
54.56,1711091987937500
52.51,1711091987953125
49.19,1711091987968750
44.93,1711091987984375
40.18,1711091988000000
35.31,1711091988015625
30.5,1711091988031250
25.75,1711091988046875
20.94,1711091988062500
16.01,1711091988078125
10.96,1711091988093750
5.88,1711091988109375
0.88,1711091988125000
-3.98,1711091988140625
-8.7,1711091988156250
-13.35,1711091988171875
-18.05,1711091988187500
-22.92,1711091988203125
-28.04,1711091988218750
-33.44,1711091988234375
-39.05,1711091988250000
-44.71,1711091988265625
-50.2,1711091988281250
-55.38,1711091988296875
-60.28,1711091988312500
-65.23,1711091988328125
-70.87,1711091988343750
-77.88,1711091988359375
-86.66,1711091988375000
-96.91,1711091988390625
-107.36,1711091988406250
-115.95,1711091988421875
-120.31,1711091988437500
-118.49,1711091988453125
-109.54,1711091988468750
-93.92,1711091988484375
-73.23,1711091988500000
-49.8,1711091988515625
-25.98,1711091988531250
-3.72,1711091988546875
15.66,1711091988562500
31.48,1711091988578125
43.51,1711091988593750
51.8,1711091988609375
56.7,1711091988625000
58.73,1711091988640625
58.62,1711091988656250
57.19,1711091988671875
55.17,1711091988687500
53.14,1711091988703125
51.46,1711091988718750
50.28,1711091988734375
49.67,1711091988750000
49.66,1711091988765625
50.26,1711091988781250
51.46,1711091988796875
53.08,1711091988812500
54.86,1711091988828125
56.41,1711091988843750
57.3,1711091988859375
57.19,1711091988875000
55.92,1711091988890625
53.54,1711091988906250
50.28,1711091988921875
46.5,1711091988937500
42.51,1711091988953125
38.5,1711091988968750
34.43,1711091988984375
30.08,1711091989000000
25.21,1711091989015625
19.7,1711091989031250
13.73,1711091989046875
7.67,1711091989062500
1.92,1711091989078125
-3.3,1711091989093750
-8.03,1711091989109375
-12.59,1711091989125000
-17.34,1711091989140625
-22.54,1711091989156250
-28.23,1711091989171875
-34.26,1711091989187500
-40.39,1711091989203125
-46.37,1711091989218750
-52.04,1711091989234375
-57.37,1711091989250000
-62.43,1711091989265625
-67.56,1711091989281250
-73.24,1711091989296875
-80.05,1711091989312500
-88.3,1711091989328125
-97.68,1711091989343750
-107.03,1711091989359375
-114.39,1711091989375000
-117.53,1711091989390625
-114.51,1711091989406250
-104.46,1711091989421875
-87.82,1711091989437500
-66.29,1711091989453125
-42.31,1711091989468750
-18.41,1711091989484375
3.35,1711091989500000
21.62,1711091989515625
35.78,1711091989531250
45.77,1711091989546875
51.86,1711091989562500
54.5,1711091989578125
54.37,1711091989593750
52.26,1711091989609375
49.06,1711091989625000
45.63,1711091989640625
42.67,1711091989656250
40.66,1711091989671875
39.82,1711091989687500
40.13,1711091989703125
41.42,1711091989718750
43.39,1711091989734375
45.7,1711091989750000
48.0,1711091989765625
49.96,1711091989781250
51.34,1711091989796875
51.94,1711091989812500
51.65,1711091989828125
50.39,1711091989843750
48.13,1711091989859375
44.94,1711091989875000
40.97,1711091989890625
36.45,1711091989906250
31.56,1711091989921875
26.43,1711091989937500
21.03,1711091989953125
15.31,1711091989968750
9.22,1711091989984375
2.88,1711091990000000
-3.52,1711091990015625
-9.79,1711091990031250
-15.82,1711091990046875
-21.6,1711091990062500
-27.2,1711091990078125
-32.6,1711091990093750
-37.72,1711091990109375
-42.41,1711091990125000
-46.59,1711091990140625
-50.36,1711091990156250
-54.01,1711091990171875
-57.97,1711091990187500
-62.77,1711091990203125
-68.92,1711091990218750
-76.73,1711091990234375
-85.95,1711091990250000
-95.58,1711091990265625
-103.74,1711091990281250
-108.11,1711091990296875
-106.51,1711091990312500
-97.72,1711091990328125
-81.96,1711091990343750
-60.85,1711091990359375
-36.94,1711091990375000
-12.94,1711091990390625
8.93,1711091990406250
27.29,1711091990421875
41.56,1711091990437500
51.81,1711091990453125
58.44,1711091990468750
61.99,1711091990484375
63.03,1711091990500000
62.08,1711091990515625
59.63,1711091990531250
56.12,1711091990546875
51.93,1711091990562500
47.52,1711091990578125
43.25,1711091990593750
39.44,1711091990609375
36.31,1711091990625000
33.91,1711091990640625
32.16,1711091990656250
30.84,1711091990671875
29.66,1711091990687500
28.31,1711091990703125
26.44,1711091990718750
23.79,1711091990734375
20.22,1711091990750000
15.84,1711091990765625
10.92,1711091990781250
5.94,1711091990796875
1.4,1711091990812500
-2.29,1711091990828125
-4.96,1711091990843750
-6.76,1711091990859375
-8.1,1711091990875000
-9.49,1711091990890625
-11.34,1711091990906250
-13.79,1711091990921875
-16.74,1711091990937500
-19.96,1711091990953125
-23.21,1711091990968750
-26.35,1711091990984375
-29.33,1711091991000000
-32.17,1711091991015625
-34.81,1711091991031250
-37.2,1711091991046875
-39.35,1711091991062500
-41.4,1711091991078125
-43.69,1711091991093750
-46.74,1711091991109375
-51.19,1711091991125000
-57.54,1711091991140625
-65.88,1711091991156250
-75.62,1711091991171875
-85.4,1711091991187500
-93.25,1711091991203125
-97.06,1711091991218750
-95.24,1711091991234375
-87.13,1711091991250000
-73.21,1711091991265625
-54.84,1711091991281250
-33.88,1711091991296875
-12.15,1711091991312500
8.79,1711091991328125
27.75,1711091991343750
43.84,1711091991359375
56.41,1711091991375000
65.07,1711091991390625
69.84,1711091991406250
71.15,1711091991421875
69.89,1711091991437500
67.21,1711091991453125
64.28,1711091991468750
62.07,1711091991484375
61.12,1711091991500000
61.5,1711091991515625
62.91,1711091991531250
64.89,1711091991546875
67.1,1711091991562500
69.32,1711091991578125
71.53,1711091991593750
73.7,1711091991609375
75.74,1711091991625000
77.44,1711091991640625
78.54,1711091991656250
78.88,1711091991671875
78.39,1711091991687500
77.09,1711091991703125
74.94,1711091991718750
71.84,1711091991734375
67.55,1711091991750000
61.92,1711091991765625
54.95,1711091991781250
46.9,1711091991796875
38.3,1711091991812500
29.74,1711091991828125
21.72,1711091991843750
14.41,1711091991859375
7.7,1711091991875000
1.17,1711091991890625
-5.58,1711091991906250
-12.82,1711091991921875
-20.48,1711091991937500
-28.24,1711091991953125
-35.61,1711091991968750
-42.27,1711091991984375
-48.11,1711091992000000
-53.37,1711091992015625
-58.54,1711091992031250
-64.31,1711091992046875
-71.42,1711091992062500
-80.5,1711091992078125
-91.81,1711091992093750
-104.79,1711091992109375
-117.91,1711091992125000
-128.66,1711091992140625
-134.12,1711091992156250
-131.87,1711091992171875
-120.8,1711091992187500
-101.66,1711091992203125
-76.82,1711091992218750
-49.55,1711091992234375
-23.09,1711091992250000
0.18,1711091992265625
19.02,1711091992281250
33.18,1711091992296875
43.05,1711091992312500
49.23,1711091992328125
52.34,1711091992343750
52.97,1711091992359375
51.77,1711091992375000
49.49,1711091992390625
46.91,1711091992406250
44.77,1711091992421875
43.6,1711091992437500
43.62,1711091992453125
44.72,1711091992468750
46.58,1711091992484375
48.83,1711091992500000
51.21,1711091992515625
53.56,1711091992531250
55.78,1711091992546875
57.77,1711091992562500
59.33,1711091992578125
60.22,1711091992593750
60.22,1711091992609375
59.22,1711091992625000
57.2,1711091992640625
54.26,1711091992656250
50.5,1711091992671875
46.07,1711091992687500
41.09,1711091992703125
35.7,1711091992718750
30.06,1711091992734375
24.35,1711091992750000
18.79,1711091992765625
13.52,1711091992781250
8.65,1711091992796875
4.11,1711091992812500
-0.27,1711091992828125
-4.82,1711091992843750
-9.82,1711091992859375
-15.41,1711091992875000
-21.53,1711091992890625
-27.9,1711091992906250
-34.21,1711091992921875
-40.28,1711091992937500
-46.17,1711091992953125
-52.15,1711091992968750
-58.69,1711091992984375
-66.3,1711091993000000
-75.4,1711091993015625
-86.08,1711091993031250
-97.81,1711091993046875
-109.27,1711091993062500
-118.34,1711091993078125
-122.63,1711091993093750
-120.01,1711091993109375
-109.46,1711091993125000
-91.44,1711091993140625
-67.8,1711091993156250
-41.33,1711091993171875
-14.94,1711091993187500
8.98,1711091993203125
28.93,1711091993218750
44.32,1711091993234375
55.22,1711091993250000
62.1,1711091993265625
65.56,1711091993281250
66.27,1711091993296875
64.9,1711091993312500
62.17,1711091993328125
58.82,1711091993343750
55.55,1711091993359375
52.94,1711091993375000
51.32,1711091993390625
50.74,1711091993406250
51.01,1711091993421875
51.86,1711091993437500
53.06,1711091993453125
54.48,1711091993468750
56.07,1711091993484375
57.66,1711091993500000
58.97,1711091993515625
59.61,1711091993531250
59.16,1711091993546875
57.38,1711091993562500
54.28,1711091993578125
50.09,1711091993593750
45.18,1711091993609375
39.9,1711091993625000
34.46,1711091993640625
28.97,1711091993656250
23.44,1711091993671875
17.91,1711091993687500
12.39,1711091993703125
6.85,1711091993718750
1.14,1711091993734375
-4.95,1711091993750000
-11.6,1711091993765625
-18.81,1711091993781250
-26.3,1711091993796875
-33.59,1711091993812500
-40.22,1711091993828125
-45.88,1711091993843750
-50.67,1711091993859375
-55.03,1711091993875000
-59.66,1711091993890625
-65.37,1711091993906250
-72.81,1711091993921875
-82.19,1711091993937500
-92.98,1711091993953125
-103.76,1711091993968750
-112.32,1711091993984375
-116.18,1711091994000000
-113.31,1711091994015625
-102.86,1711091994031250
-85.5,1711091994046875
-63.24,1711091994062500
-38.78,1711091994078125
-14.74,1711091994093750
6.9,1711091994109375
24.97,1711091994125000
38.98,1711091994140625
48.85,1711091994156250
54.73,1711091994171875
57.0,1711091994187500
56.27,1711091994203125
53.41,1711091994218750
49.45,1711091994234375
45.34,1711091994250000
41.83,1711091994265625
39.36,1711091994281250
38.08,1711091994296875
37.9,1711091994312500
38.59,1711091994328125
39.89,1711091994343750
41.59,1711091994359375
43.55,1711091994375000
45.67,1711091994390625
47.84,1711091994406250
49.85,1711091994421875
51.32,1711091994437500
51.85,1711091994453125
51.03,1711091994468750
48.69,1711091994484375
44.86,1711091994500000
39.84,1711091994515625
34.1,1711091994531250
28.15,1711091994546875
22.41,1711091994562500
17.09,1711091994578125
12.17,1711091994593750
7.34,1711091994609375
2.2,1711091994625000
-3.62,1711091994640625
-10.25,1711091994656250
-17.48,1711091994671875
-24.83,1711091994687500
-31.77,1711091994703125
-38.0,1711091994718750
-43.52,1711091994734375
-48.75,1711091994750000
-54.35,1711091994765625
-61.12,1711091994781250
-69.7,1711091994796875
-80.32,1711091994812500
-92.47,1711091994828125
-104.69,1711091994843750
-114.74,1711091994859375
-120.02,1711091994875000
-118.39,1711091994890625
-108.87,1711091994906250
-92.0,1711091994921875
-69.72,1711091994937500
-44.71,1711091994953125
-19.7,1711091994968750
3.19,1711091994984375
22.62,1711091995000000
38.0,1711091995015625
49.26,1711091995031250
56.62,1711091995046875
60.46,1711091995062500
61.33,1711091995078125
59.89,1711091995093750
56.99,1711091995109375
53.57,1711091995125000
50.51,1711091995140625
48.5,1711091995156250
47.9,1711091995171875
48.61,1711091995187500
50.22,1711091995203125
52.14,1711091995218750
53.87,1711091995234375
55.14,1711091995250000
55.89,1711091995265625
56.17,1711091995281250
56.03,1711091995296875
55.41,1711091995312500
54.18,1711091995328125
52.15,1711091995343750
49.16,1711091995359375
45.15,1711091995375000
40.13,1711091995390625
34.27,1711091995406250
27.86,1711091995421875
21.25,1711091995437500
14.79,1711091995453125
8.68,1711091995468750
2.92,1711091995484375
-2.69,1711091995500000
-8.45,1711091995515625
-14.58,1711091995531250
-21.2,1711091995546875
-28.17,1711091995562500
-35.24,1711091995578125
-42.11,1711091995593750
-48.58,1711091995609375
-54.6,1711091995625000
-60.34,1711091995640625
-66.16,1711091995656250
-72.57,1711091995671875
-80.14,1711091995687500
-89.28,1711091995703125
-99.95,1711091995718750
-111.33,1711091995734375
-121.67,1711091995750000
-128.58,1711091995765625
-129.57,1711091995781250
-122.84,1711091995796875
-107.97,1711091995812500
-86.16,1711091995828125
-59.87,1711091995843750
-32.12,1711091995859375
-5.67,1711091995875000
17.54,1711091995890625
36.59,1711091995906250
51.27,1711091995921875
61.8,1711091995937500
68.55,1711091995953125
71.99,1711091995968750
72.8,1711091995984375
71.79,1711091996000000
69.92,1711091996015625
67.99,1711091996031250
66.57,1711091996046875
65.83,1711091996062500
65.66,1711091996078125
65.79,1711091996093750
66.0,1711091996109375
66.15,1711091996125000
66.16,1711091996140625
65.99,1711091996156250
65.54,1711091996171875
64.66,1711091996187500
63.18,1711091996203125
60.98,1711091996218750
58.01,1711091996234375
54.3,1711091996250000
49.93,1711091996265625
45.0,1711091996281250
39.6,1711091996296875
33.86,1711091996312500
27.93,1711091996328125
22.03,1711091996343750
16.33,1711091996359375
10.91,1711091996375000
5.67,1711091996390625
0.37,1711091996406250
-5.3,1711091996421875
-11.5,1711091996437500
-18.15,1711091996453125
-25.0,1711091996468750
-31.76,1711091996484375
-38.25,1711091996500000
-44.46,1711091996515625
-50.51,1711091996531250
-56.5,1711091996546875
-62.5,1711091996562500
-68.67,1711091996578125
-75.38,1711091996593750
-83.22,1711091996609375
-92.69,1711091996625000
-103.62,1711091996640625
-114.77,1711091996656250
-123.79,1711091996671875
-127.83,1711091996687500
-124.51,1711091996703125
-112.83,1711091996718750
-93.64,1711091996734375
-69.3,1711091996750000
-42.89,1711091996765625
-17.29,1711091996781250
5.49,1711091996796875
24.46,1711091996812500
39.39,1711091996828125
50.46,1711091996843750
57.98,1711091996859375
62.3,1711091996875000
63.93,1711091996890625
63.53,1711091996906250
61.93,1711091996921875
59.98,1711091996937500
58.36,1711091996953125
57.42,1711091996968750
57.25,1711091996984375
57.69,1711091997000000
58.56,1711091997015625
59.69,1711091997031250
61.0,1711091997046875
62.39,1711091997062500
63.68,1711091997078125
64.61,1711091997093750
64.84,1711091997109375
64.06,1711091997125000
62.13,1711091997140625
59.04,1711091997156250
55.03,1711091997171875
50.4,1711091997187500
45.47,1711091997203125
40.41,1711091997218750
35.28,1711091997234375
29.98,1711091997250000
24.38,1711091997265625
18.53,1711091997281250
12.59,1711091997296875
6.88,1711091997312500
1.66,1711091997328125
-3.05,1711091997343750
-7.51,1711091997359375
-12.1,1711091997375000
-17.22,1711091997390625
-22.97,1711091997406250
-29.12,1711091997421875
-35.22,1711091997437500
-40.83,1711091997453125
-45.74,1711091997468750
-50.09,1711091997484375
-54.33,1711091997500000
-59.09,1711091997515625
-65.06,1711091997531250
-72.78,1711091997546875
-82.41,1711091997562500
-93.46,1711091997578125
-104.6,1711091997593750
-113.73,1711091997609375
-118.41,1711091997625000
-116.56,1711091997640625
-107.11,1711091997656250
-90.48,1711091997671875
-68.44,1711091997687500
-43.61,1711091997703125
-18.76,1711091997718750
3.91,1711091997734375
22.95,1711091997750000
37.78,1711091997765625
48.39,1711091997781250
55.11,1711091997796875
58.48,1711091997812500
59.14,1711091997828125
57.86,1711091997843750
55.46,1711091997859375
52.7,1711091997875000
50.25,1711091997890625
48.59,1711091997906250
47.94,1711091997921875
48.27,1711091997937500
49.35,1711091997953125
50.86,1711091997968750
52.51,1711091997984375
54.07,1711091998000000
55.43,1711091998015625
56.48,1711091998031250
57.08,1711091998046875
56.99,1711091998062500
55.93,1711091998078125
53.71,1711091998093750
50.27,1711091998109375
45.68,1711091998125000
40.19,1711091998140625
34.16,1711091998156250
27.97,1711091998171875
21.99,1711091998187500
16.52,1711091998203125
11.71,1711091998218750
7.5,1711091998234375
3.67,1711091998250000
-0.22,1711091998265625
-4.59,1711091998281250
-9.71,1711091998296875
-15.58,1711091998312500
-21.91,1711091998328125
-28.29,1711091998343750
-34.26,1711091998359375
-39.58,1711091998375000
-44.27,1711091998390625
-48.59,1711091998406250
-52.97,1711091998421875
-57.97,1711091998437500
-64.17,1711091998453125
-71.97,1711091998468750
-81.34,1711091998484375
-91.55,1711091998500000
-101.03,1711091998515625
-107.59,1711091998531250
-108.96,1711091998546875
-103.51,1711091998562500
-90.88,1711091998578125
-72.16,1711091998593750
-49.57,1711091998609375
-25.79,1711091998625000
-3.26,1711091998640625
16.37,1711091998656250
32.31,1711091998671875
44.44,1711091998687500
52.98,1711091998703125
58.26,1711091998718750
60.59,1711091998734375
60.42,1711091998750000
58.33,1711091998765625
55.09,1711091998781250
51.52,1711091998796875
48.33,1711091998812500
46.0,1711091998828125
44.69,1711091998843750
44.28,1711091998859375
44.55,1711091998875000
45.23,1711091998890625
46.08,1711091998906250
46.93,1711091998921875
47.54,1711091998937500
47.71,1711091998953125
47.22,1711091998968750
45.94,1711091998984375
43.87,1711091999000000
41.08,1711091999015625
37.65,1711091999031250
33.62,1711091999046875
28.98,1711091999062500
23.71,1711091999078125
17.99,1711091999093750
12.11,1711091999109375
6.46,1711091999125000
1.38,1711091999140625
-3.04,1711091999156250
-6.98,1711091999171875
-10.81,1711091999187500
-14.92,1711091999203125
-19.54,1711091999218750
-24.64,1711091999234375
-30.09,1711091999250000
-35.65,1711091999265625
-41.19,1711091999281250
-46.61,1711091999296875
-51.95,1711091999312500
-57.32,1711091999328125
-63.01,1711091999343750
-69.53,1711091999359375
-77.46,1711091999375000
-87.13,1711091999390625
-98.21,1711091999406250
-109.39,1711091999421875
-118.51,1711091999437500
-123.07,1711091999453125
-121.01,1711091999468750
-111.42,1711091999484375
-94.89,1711091999500000
-73.29,1711091999515625
-49.25,1711091999531250
-25.32,1711091999546875
-3.59,1711091999562500
14.72,1711091999578125
29.07,1711091999593750
39.47,1711091999609375
46.18,1711091999625000
49.62,1711091999640625
50.41,1711091999656250
49.3,1711091999671875
47.21,1711091999687500
45.06,1711091999703125
43.61,1711091999718750
43.2,1711091999734375
43.84,1711091999750000
45.18,1711091999765625
46.88,1711091999781250
48.72,1711091999796875
50.7,1711091999812500
52.95,1711091999828125
55.52,1711091999843750
58.27,1711091999859375
60.78,1711091999875000
62.54,1711091999890625
63.05,1711091999906250
62.04,1711091999921875
59.54,1711091999937500
55.8,1711091999953125
51.19,1711091999968750
46.04,1711091999984375
40.53,1711092000000000
34.69,1711092000015625
28.57,1711092000031250
22.25,1711092000046875
15.99,1711092000062500
10.13,1711092000078125
4.91,1711092000093750
0.34,1711092000109375
-3.83,1711092000125000
-8.04,1711092000140625
-12.7,1711092000156250
-18.0,1711092000171875
-23.88,1711092000187500
-30.06,1711092000203125
-36.25,1711092000218750
-42.22,1711092000234375
-47.89,1711092000250000
-53.37,1711092000265625
-58.93,1711092000281250
-65.0,1711092000296875
-72.11,1711092000312500
-80.69,1711092000328125
-90.66,1711092000343750
-101.19,1711092000359375
-110.57,1711092000375000
-116.52,1711092000390625
-116.77,1711092000406250
-109.84,1711092000421875
-95.6,1711092000437500
-75.34,1711092000453125
-51.46,1711092000468750
-26.72,1711092000484375
-3.59,1711092000500000
16.24,1711092000515625
31.99,1711092000531250
43.61,1711092000546875
51.5,1711092000562500
56.23,1711092000578125
58.44,1711092000593750
58.76,1711092000609375
57.81,1711092000625000
56.17,1711092000640625
54.39,1711092000656250
52.84,1711092000671875
51.77,1711092000687500
51.23,1711092000703125
51.15,1711092000718750
51.46,1711092000734375
52.05,1711092000750000
52.86,1711092000765625
53.86,1711092000781250
54.97,1711092000796875
56.05,1711092000812500
56.8,1711092000828125
56.85,1711092000843750
55.85,1711092000859375
53.59,1711092000875000
50.13,1711092000890625
45.75,1711092000906250
40.88,1711092000921875
35.88,1711092000937500
30.94,1711092000953125
26.02,1711092000968750
20.97,1711092000984375
15.66,1711092001000000
10.15,1711092001015625
4.66,1711092001031250
-0.45,1711092001046875
-4.91,1711092001062500
-8.71,1711092001078125
-12.1,1711092001093750
-15.58,1711092001109375
-19.68,1711092001125000
-24.7,1711092001140625
-30.62,1711092001156250
-37.06,1711092001171875
-43.45,1711092001187500
-49.36,1711092001203125
-54.61,1711092001218750
-59.46,1711092001234375
-64.49,1711092001250000
-70.4,1711092001265625
-77.8,1711092001281250
-86.87,1711092001296875
-97.13,1711092001312500
-107.3,1711092001328125
-115.37,1711092001343750
-119.05,1711092001359375
-116.44,1711092001375000
-106.62,1711092001390625
-90.12,1711092001406250
-68.72,1711092001421875
-44.98,1711092001437500
-21.49,1711092001453125
-0.28,1711092001468750
17.43,1711092001484375
31.21,1711092001500000
41.07,1711092001515625
47.32,1711092001531250
50.35,1711092001546875
50.73,1711092001562500
49.14,1711092001578125
46.37,1711092001593750
43.3,1711092001609375
40.65,1711092001625000
38.93,1711092001640625
38.35,1711092001656250
38.82,1711092001671875
40.06,1711092001687500
41.75,1711092001703125
43.65,1711092001718750
45.64,1711092001734375
47.65,1711092001750000
49.58,1711092001765625
51.21,1711092001781250
52.18,1711092001796875
52.23,1711092001812500
51.18,1711092001828125
49.13,1711092001843750
46.37,1711092001859375
43.17,1711092001875000
39.66,1711092001890625
35.82,1711092001906250
31.51,1711092001921875
26.64,1711092001937500
21.29,1711092001953125
15.75,1711092001968750
10.4,1711092001984375
5.51,1711092002000000
1.12,1711092002015625
-2.95,1711092002031250
-7.04,1711092002046875
-11.53,1711092002062500
-16.64,1711092002078125
-22.36,1711092002093750
-28.45,1711092002109375
-34.45,1711092002125000
-39.92,1711092002140625
-44.63,1711092002156250
-48.6,1711092002171875
-52.27,1711092002187500
-56.27,1711092002203125
-61.42,1711092002218750
-68.33,1711092002234375
-77.18,1711092002250000
-87.37,1711092002265625
-97.44,1711092002281250
-105.17,1711092002296875
-108.16,1711092002312500
-104.48,1711092002328125
-93.38,1711092002343750
-75.61,1711092002359375
-53.28,1711092002375000
-29.19,1711092002390625
-6.01,1711092002406250
14.28,1711092002421875
30.66,1711092002437500
42.93,1711092002453125
51.38,1711092002468750
56.52,1711092002484375
58.89,1711092002500000
59.11,1711092002515625
57.79,1711092002531250
55.55,1711092002546875
52.96,1711092002562500
50.49,1711092002578125
48.47,1711092002593750
47.11,1711092002609375
46.43,1711092002625000
46.35,1711092002640625
46.71,1711092002656250
47.42,1711092002671875
48.38,1711092002687500
49.51,1711092002703125
50.66,1711092002718750
51.5,1711092002734375
51.58,1711092002750000
50.55,1711092002765625
48.23,1711092002781250
44.77,1711092002796875
40.51,1711092002812500
35.8,1711092002828125
30.88,1711092002843750
25.82,1711092002859375
20.54,1711092002875000
15.04,1711092002890625
9.41,1711092002906250
3.87,1711092002921875
-1.33,1711092002937500
-6.06,1711092002953125
-10.37,1711092002968750
-14.49,1711092002984375
-18.84,1711092003000000
-23.85,1711092003015625
-29.81,1711092003031250
-36.7,1711092003046875
-44.15,1711092003062500
-51.5,1711092003078125
-58.09,1711092003093750
-63.5,1711092003109375
-67.76,1711092003125000
-71.36,1711092003140625
-75.08,1711092003156250
-79.84,1711092003171875
-86.42,1711092003187500
-95.21,1711092003203125
-105.88,1711092003218750
-117.13,1711092003234375
-126.7,1711092003250000
-131.78,1711092003265625
-129.85,1711092003281250
-119.53,1711092003296875
-101.22,1711092003312500
-77.0,1711092003328125
-50.04,1711092003343750
-23.59,1711092003359375
-0.16,1711092003375000
18.93,1711092003390625
33.45,1711092003406250
43.89,1711092003421875
50.97,1711092003437500
55.42,1711092003453125
57.87,1711092003468750
58.86,1711092003484375
58.92,1711092003500000
58.53,1711092003515625
58.08,1711092003531250
57.81,1711092003546875
57.74,1711092003562500
57.85,1711092003578125
58.11,1711092003593750
58.65,1711092003609375
59.72,1711092003625000
61.55,1711092003640625
64.16,1711092003656250
67.18,1711092003671875
69.89,1711092003687500
71.44,1711092003703125
71.22,1711092003718750
69.04,1711092003734375
65.22,1711092003750000
60.36,1711092003765625
55.14,1711092003781250
50.02,1711092003796875
45.22,1711092003812500
40.71,1711092003828125
36.32,1711092003843750
31.78,1711092003859375
26.88,1711092003875000
21.46,1711092003890625
15.62,1711092003906250
9.62,1711092003921875
3.81,1711092003937500
-1.51,1711092003953125
-6.28,1711092003968750
-10.73,1711092003984375
-15.25,1711092004000000
-20.2,1711092004015625
-25.74,1711092004031250
-31.75,1711092004046875
-37.92,1711092004062500
-43.91,1711092004078125
-49.53,1711092004093750
-54.82,1711092004109375
-60.08,1711092004125000
-65.91,1711092004140625
-72.94,1711092004156250
-81.67,1711092004171875
-91.96,1711092004187500
-102.77,1711092004203125
-112.11,1711092004218750
-117.47,1711092004234375
-116.55,1711092004250000
-108.04,1711092004265625
-92.1,1711092004281250
-70.39,1711092004296875
-45.54,1711092004312500
-20.4,1711092004328125
2.68,1711092004343750
22.21,1711092004359375
37.57,1711092004375000
48.8,1711092004390625
56.3,1711092004406250
60.54,1711092004421875
62.08,1711092004437500
61.53,1711092004453125
59.57,1711092004468750
56.92,1711092004484375
54.2,1711092004500000
51.89,1711092004515625
50.23,1711092004531250
49.28,1711092004546875
48.98,1711092004562500
49.26,1711092004578125
50.09,1711092004593750
51.4,1711092004609375
53.03,1711092004625000
54.71,1711092004640625
56.02,1711092004656250
56.54,1711092004671875
55.88,1711092004687500
53.86,1711092004703125
50.53,1711092004718750
46.21,1711092004734375
41.32,1711092004750000
36.29,1711092004765625
31.37,1711092004781250
26.56,1711092004796875
21.67,1711092004812500
16.55,1711092004828125
11.15,1711092004843750
5.68,1711092004859375
0.4,1711092004875000
-4.46,1711092004890625
-8.9,1711092004906250
-13.08,1711092004921875
-17.27,1711092004937500
-21.63,1711092004953125
-26.13,1711092004968750
-30.57,1711092004984375
-34.72,1711092005000000
-38.43,1711092005015625
-41.71,1711092005031250
-44.71,1711092005046875
-47.74,1711092005062500
-51.23,1711092005078125
-55.64,1711092005093750
-61.48,1711092005109375
-69.07,1711092005125000
-78.2,1711092005140625
-87.94,1711092005156250
-96.59,1711092005171875
-102.01,1711092005187500
-102.21,1711092005203125
-96.01,1711092005218750
-83.47,1711092005234375
-65.87,1711092005250000
-45.32,1711092005265625
-24.12,1711092005281250
-4.19,1711092005296875
13.22,1711092005312500
27.52,1711092005328125
38.57,1711092005343750
46.45,1711092005359375
51.31,1711092005375000
53.4,1711092005390625
53.11,1711092005406250
51.03,1711092005421875
47.83,1711092005437500
44.23,1711092005453125
40.84,1711092005468750
38.13,1711092005484375
36.34,1711092005500000
35.55,1711092005515625
35.69,1711092005531250
36.62,1711092005546875
38.16,1711092005562500
40.1,1711092005578125
42.24,1711092005593750
44.24,1711092005609375
45.71,1711092005625000
46.22,1711092005640625
45.42,1711092005656250
43.13,1711092005671875
39.46,1711092005687500
34.77,1711092005703125
29.54,1711092005718750
24.3,1711092005734375
19.37,1711092005750000
14.87,1711092005765625
10.7,1711092005781250
6.59,1711092005796875
2.18,1711092005812500
-2.79,1711092005828125
-8.45,1711092005843750
-14.69,1711092005859375
-21.18,1711092005875000
-27.52,1711092005890625
-33.33,1711092005906250
-38.46,1711092005921875
-42.99,1711092005937500
-47.23,1711092005953125
-51.62,1711092005968750
-56.68,1711092005984375
-62.89,1711092006000000
-70.6,1711092006015625
-79.85,1711092006031250
-90.0,1711092006046875
-99.65,1711092006062500
-106.74,1711092006078125
-109.05,1711092006093750
-104.88,1711092006109375
-93.67,1711092006125000
-76.23,1711092006140625
-54.53,1711092006156250
-31.12,1711092006171875
-8.44,1711092006187500
11.65,1711092006203125
28.13,1711092006218750
40.7,1711092006234375
49.53,1711092006250000
55.03,1711092006265625
57.73,1711092006281250
58.17,1711092006296875
56.87,1711092006312500
54.44,1711092006328125
51.44,1711092006343750
48.41,1711092006359375
45.79,1711092006375000
43.88,1711092006390625
42.82,1711092006406250
42.65,1711092006421875
43.3,1711092006437500
44.64,1711092006453125
46.46,1711092006468750
48.43,1711092006484375
50.13,1711092006500000
51.17,1711092006515625
51.21,1711092006531250
50.09,1711092006546875
47.8,1711092006562500
44.49,1711092006578125
40.35,1711092006593750
35.58,1711092006609375
30.33,1711092006625000
24.78,1711092006640625
19.14,1711092006656250
13.7,1711092006671875
8.68,1711092006687500
4.17,1711092006703125
-0.03,1711092006718750
-4.31,1711092006734375
-9.16,1711092006750000
-14.94,1711092006765625
-21.68,1711092006781250
-29.03,1711092006796875
-36.39,1711092006812500
-43.15,1711092006828125
-48.94,1711092006843750
-53.75,1711092006859375
-57.96,1711092006875000
-62.24,1711092006890625
-67.43,1711092006906250
-74.35,1711092006921875
-83.47,1711092006937500
-94.59,1711092006953125
-106.54,1711092006968750
-117.2,1711092006984375
-123.92,1711092007000000
-124.32,1711092007015625
-117.0,1711092007031250
-102.12,1711092007046875
-81.29,1711092007062500
-57.08,1711092007078125
-32.27,1711092007093750
-9.15,1711092007109375
10.81,1711092007125000
26.97,1711092007140625
39.31,1711092007156250
48.09,1711092007171875
53.75,1711092007187500
56.77,1711092007203125
57.7,1711092007218750
57.12,1711092007234375
55.6,1711092007250000
53.65,1711092007265625
51.74,1711092007281250
50.21,1711092007296875
49.36,1711092007312500
49.37,1711092007328125
50.29,1711092007343750
52.03,1711092007359375
54.35,1711092007375000
56.87,1711092007390625
59.13,1711092007406250
60.71,1711092007421875
61.26,1711092007437500
60.61,1711092007453125
58.75,1711092007468750
55.78,1711092007484375
51.87,1711092007500000
47.23,1711092007515625
42.05,1711092007531250
36.47,1711092007546875
30.65,1711092007562500
24.77,1711092007578125
19.06,1711092007593750
13.72,1711092007609375
8.86,1711092007625000
4.4,1711092007640625
0.06,1711092007656250
-4.49,1711092007671875
-9.49,1711092007687500
-15.0,1711092007703125
-20.89,1711092007718750
-26.91,1711092007734375
-32.84,1711092007750000
-38.51,1711092007765625
-43.86,1711092007781250
-48.95,1711092007796875
-53.91,1711092007812500
-59.1,1711092007828125
-65.05,1711092007843750
-72.37,1711092007859375
-81.42,1711092007875000
-91.8,1711092007890625
-102.18,1711092007906250
-110.41,1711092007921875
-114.04,1711092007937500
-111.19,1711092007953125
-101.15,1711092007968750
-84.65,1711092007984375
-63.62,1711092008000000
-40.51,1711092008015625
-17.62,1711092008031250
3.26,1711092008046875
21.07,1711092008062500
35.27,1711092008078125
45.75,1711092008093750
52.62,1711092008109375
56.24,1711092008125000
57.23,1711092008140625
56.38,1711092008156250
54.54,1711092008171875
52.44,1711092008187500
50.62,1711092008203125
49.4,1711092008218750
48.9,1711092008234375
49.13,1711092008250000
50.02,1711092008265625
51.46,1711092008281250
53.27,1711092008296875
55.22,1711092008312500
57.03,1711092008328125
58.46,1711092008343750
59.3,1711092008359375
59.39,1711092008375000
58.62,1711092008390625
56.88,1711092008406250
54.13,1711092008421875
50.37,1711092008437500
45.75,1711092008453125
40.49,1711092008468750
34.9,1711092008484375
29.29,1711092008500000
23.88,1711092008515625
18.82,1711092008531250
14.15,1711092008546875
9.82,1711092008562500
5.7,1711092008578125
1.61,1711092008593750
-2.65,1711092008609375
-7.22,1711092008625000
-12.13,1711092008640625
-17.29,1711092008656250
-22.52,1711092008671875
-27.58,1711092008687500
-32.35,1711092008703125
-36.78,1711092008718750
-41.07,1711092008734375
-45.54,1711092008750000
-50.69,1711092008765625
-57.05,1711092008781250
-64.89,1711092008796875
-73.99,1711092008812500
-83.35,1711092008828125
-91.25,1711092008843750
-95.59,1711092008859375
-94.47,1711092008875000
-86.87,1711092008890625
-73.01,1711092008906250
-54.4,1711092008921875
-33.3,1711092008937500
-12.1,1711092008953125
7.26,1711092008968750
23.59,1711092008984375
36.46,1711092009000000
45.88,1711092009015625
52.08,1711092009031250
55.38,1711092009046875
56.21,1711092009062500
55.14,1711092009078125
52.96,1711092009093750
50.45,1711092009109375
48.29,1711092009125000
46.84,1711092009140625
46.09,1711092009156250
45.85,1711092009171875
45.89,1711092009187500
46.12,1711092009203125
46.65,1711092009218750
47.6,1711092009234375
48.92,1711092009250000
50.29,1711092009265625
51.2,1711092009281250
51.07,1711092009296875
49.62,1711092009312500
46.91,1711092009328125
43.32,1711092009343750
39.32,1711092009359375
35.27,1711092009375000
31.23,1711092009390625
27.11,1711092009406250
22.74,1711092009421875
18.09,1711092009437500
13.31,1711092009453125
8.65,1711092009468750
4.37,1711092009484375
0.5,1711092009500000
-3.05,1711092009515625
-6.6,1711092009531250
-10.48,1711092009546875
-14.97,1711092009562500
-20.18,1711092009578125
-26.0,1711092009593750
-32.13,1711092009609375
-38.18,1711092009625000
-43.77,1711092009640625
-48.68,1711092009656250
-52.98,1711092009671875
-57.05,1711092009687500
-61.52,1711092009703125
-67.13,1711092009718750
-74.42,1711092009734375
-83.43,1711092009750000
-93.34,1711092009765625
-102.47,1711092009781250
-108.54,1711092009796875
-109.38,1711092009812500
-103.58,1711092009828125
-91.1,1711092009843750
-73.29,1711092009859375
-52.45,1711092009875000
-31.12,1711092009890625
-11.34,1711092009906250
5.72,1711092009921875
19.64,1711092009937500
30.54,1711092009953125
38.7,1711092009968750
44.43,1711092009984375
48.03,1711092010000000
49.84,1711092010015625
50.31,1711092010031250
49.89,1711092010046875
49.0,1711092010062500
47.98,1711092010078125
47.11,1711092010093750
46.57,1711092010109375
46.49,1711092010125000
46.92,1711092010140625
47.82,1711092010156250
49.06,1711092010171875
50.48,1711092010187500
51.85,1711092010203125
52.93,1711092010218750
53.46,1711092010234375
53.19,1711092010250000
51.93,1711092010265625
49.62,1711092010281250
46.38,1711092010296875
42.49,1711092010312500
38.23,1711092010328125
33.83,1711092010343750
29.35,1711092010359375
24.78,1711092010375000
20.08,1711092010390625
15.26,1711092010406250
10.46,1711092010421875
5.83,1711092010437500
1.57,1711092010453125
-2.29,1711092010468750
-5.75,1711092010484375
-8.94,1711092010500000
-12.05,1711092010515625
-15.31,1711092010531250
-18.93,1711092010546875
-23.0,1711092010562500
-27.49,1711092010578125
-32.2,1711092010593750
-36.86,1711092010609375
-41.25,1711092010625000
-45.33,1711092010640625
-49.35,1711092010656250
-53.77,1711092010671875
-59.18,1711092010687500
-66.08,1711092010703125
-74.59,1711092010718750
-84.21,1711092010734375
-93.7,1711092010750000
-101.26,1711092010765625
-104.85,1711092010781250
-102.83,1711092010796875
-94.51,1711092010812500
-80.36,1711092010828125
-61.97,1711092010843750
-41.55,1711092010859375
-21.3,1711092010875000
-2.96,1711092010890625
12.47,1711092010906250
24.7,1711092010921875
33.88,1711092010937500
40.38,1711092010953125
44.67,1711092010968750
47.19,1711092010984375
48.34,1711092011000000
48.48,1711092011015625
47.88,1711092011031250
46.73,1711092011046875
45.22,1711092011062500
43.57,1711092011078125
42.05,1711092011093750
41.02,1711092011109375
40.78,1711092011125000
41.55,1711092011140625
43.29,1711092011156250
45.67,1711092011171875
48.14,1711092011187500
50.04,1711092011203125
50.77,1711092011218750
49.98,1711092011234375
47.71,1711092011250000
44.29,1711092011265625
40.29,1711092011281250
36.31,1711092011296875
32.74,1711092011312500
29.69,1711092011328125
27.02,1711092011343750
24.38,1711092011359375
21.42,1711092011375000
17.89,1711092011390625
13.78,1711092011406250
9.33,1711092011421875
4.91,1711092011437500
0.85,1711092011453125
-2.71,1711092011468750
-5.92,1711092011484375
-9.15,1711092011500000
-12.82,1711092011515625
-17.22,1711092011531250
-22.34,1711092011546875
-27.94,1711092011562500
-33.62,1711092011578125
-39.09,1711092011593750
-44.27,1711092011609375
-49.32,1711092011625000
-54.58,1711092011640625
-60.52,1711092011656250
-67.47,1711092011671875
-75.55,1711092011687500
-84.31,1711092011703125
-92.7,1711092011718750
-99.06,1711092011734375
-101.53,1711092011750000
-98.63,1711092011765625
-89.77,1711092011781250
-75.54,1711092011796875
-57.55,1711092011812500
-37.93,1711092011828125
-18.72,1711092011843750
-1.41,1711092011859375
13.2,1711092011875000
24.88,1711092011890625
33.67,1711092011906250
39.8,1711092011921875
43.51,1711092011937500
45.22,1711092011953125
45.44,1711092011968750
44.75,1711092011984375
43.71,1711092012000000
42.71,1711092012015625
42.01,1711092012031250
41.72,1711092012046875
41.84,1711092012062500
42.39,1711092012078125
43.34,1711092012093750
44.68,1711092012109375
46.31,1711092012125000
48.08,1711092012140625
49.73,1711092012156250
50.94,1711092012171875
51.34,1711092012187500
50.65,1711092012203125
48.69,1711092012218750
45.55,1711092012234375
41.53,1711092012250000
37.12,1711092012265625
32.85,1711092012281250
29.05,1711092012296875
25.79,1711092012312500
22.82,1711092012328125
19.7,1711092012343750
16.06,1711092012359375
11.76,1711092012375000
6.96,1711092012390625
2.08,1711092012406250
-2.47,1711092012421875
-6.43,1711092012437500
-9.84,1711092012453125
-13.03,1711092012468750
-16.49,1711092012484375
-20.59,1711092012500000
-25.52,1711092012515625
-31.16,1711092012531250
-37.18,1711092012546875
-43.16,1711092012562500
-48.82,1711092012578125
-54.0,1711092012593750
-58.85,1711092012609375
-63.77,1711092012625000
-69.33,1711092012640625
-76.16,1711092012656250
-84.58,1711092012671875
-94.32,1711092012687500
-104.31,1711092012703125
-112.72,1711092012718750
-117.35,1711092012734375
-116.29,1711092012750000
-108.56,1711092012765625
-94.49,1711092012781250
-75.62,1711092012796875
-54.28,1711092012812500
-32.81,1711092012828125
-13.08,1711092012843750
3.84,1711092012859375
17.58,1711092012875000
28.26,1711092012890625
36.19,1711092012906250
41.76,1711092012921875
45.28,1711092012937500
47.08,1711092012953125
47.59,1711092012968750
47.27,1711092012984375
46.66,1711092013000000
46.29,1711092013015625
46.48,1711092013031250
47.35,1711092013046875
48.73,1711092013062500
50.37,1711092013078125
51.98,1711092013093750
53.46,1711092013109375
54.82,1711092013125000
56.1,1711092013140625
57.21,1711092013156250
57.88,1711092013171875
57.75,1711092013187500
56.52,1711092013203125
54.16,1711092013218750
50.85,1711092013234375
46.98,1711092013250000
42.86,1711092013265625
38.73,1711092013281250
34.62,1711092013296875
30.52,1711092013312500
26.37,1711092013328125
22.14,1711092013343750
17.82,1711092013359375
13.37,1711092013375000
8.82,1711092013390625
4.27,1711092013406250
-0.16,1711092013421875
-4.33,1711092013437500
-8.23,1711092013453125
-12.03,1711092013468750
-16.02,1711092013484375
-20.48,1711092013500000
-25.56,1711092013515625
-31.24,1711092013531250
-37.31,1711092013546875
-43.45,1711092013562500
-49.37,1711092013578125
-54.87,1711092013593750
-59.99,1711092013609375
-65.03,1711092013625000
-70.64,1711092013640625
-77.58,1711092013656250
-86.39,1711092013671875
-96.89,1711092013687500
-107.84,1711092013703125
-117.05,1711092013718750
-121.92,1711092013734375
-120.27,1711092013750000
-111.14,1711092013765625
-95.17,1711092013781250
-74.28,1711092013796875
-51.11,1711092013812500
-28.16,1711092013828125
-7.29,1711092013843750
10.46,1711092013859375
24.72,1711092013875000
35.58,1711092013890625
43.33,1711092013906250
48.39,1711092013921875
51.25,1711092013937500
52.49,1711092013953125
52.72,1711092013968750
52.5,1711092013984375
52.23,1711092014000000
52.18,1711092014015625
52.4,1711092014031250
52.88,1711092014046875
53.57,1711092014062500
54.47,1711092014078125
55.65,1711092014093750
57.16,1711092014109375
59.01,1711092014125000
61.0,1711092014140625
62.77,1711092014156250
63.85,1711092014171875
63.78,1711092014187500
62.3,1711092014203125
59.45,1711092014218750
55.53,1711092014234375
51.05,1711092014250000
46.47,1711092014265625
42.12,1711092014281250
38.08,1711092014296875
34.19,1711092014312500
30.2,1711092014328125
25.93,1711092014343750
21.36,1711092014359375
16.63,1711092014375000
12.0,1711092014390625
7.72,1711092014406250
3.9,1711092014421875
0.46,1711092014437500
-2.89,1711092014453125
-6.56,1711092014468750
-10.87,1711092014484375
-15.97,1711092014500000
-21.74,1711092014515625
-27.82,1711092014531250
-33.79,1711092014546875
-39.34,1711092014562500
-44.37,1711092014578125
-49.08,1711092014593750
-53.91,1711092014609375
-59.45,1711092014625000
-66.29,1711092014640625
-74.8,1711092014656250
-84.85,1711092014671875
-95.49,1711092014687500
-104.99,1711092014703125
-111.08,1711092014718750
-111.59,1711092014734375
-105.2,1711092014750000
-91.91,1711092014765625
-73.11,1711092014781250
-51.11,1711092014796875
-28.45,1711092014812500
-7.19,1711092014828125
11.34,1711092014843750
26.61,1711092014859375
38.53,1711092014875000
47.26,1711092014890625
53.02,1711092014906250
56.1,1711092014921875
56.93,1711092014937500
56.04,1711092014953125
54.11,1711092014968750
51.81,1711092014984375
49.72,1711092015000000
48.23,1711092015015625
47.49,1711092015031250
47.46,1711092015046875
47.98,1711092015062500
48.91,1711092015078125
50.17,1711092015093750
51.74,1711092015109375
53.52,1711092015125000
55.27,1711092015140625
56.52,1711092015156250
56.76,1711092015171875
55.63,1711092015187500
53.03,1711092015203125
49.26,1711092015218750
44.84,1711092015234375
40.38,1711092015250000
36.31,1711092015265625
32.76,1711092015281250
29.51,1711092015296875
26.15,1711092015312500
22.3,1711092015328125
17.73,1711092015343750
12.53,1711092015359375
7.06,1711092015375000
1.76,1711092015390625
-2.99,1711092015406250
-7.1,1711092015421875
-10.76,1711092015437500
-14.35,1711092015453125
-18.23,1711092015468750
-22.66,1711092015484375
-27.64,1711092015500000
-33.05,1711092015515625
-38.68,1711092015531250
-44.34,1711092015546875
-49.82,1711092015562500
-55.01,1711092015578125
-59.92,1711092015593750
-64.83,1711092015609375
-70.25,1711092015625000
-76.84,1711092015640625
-85.11,1711092015656250
-94.93,1711092015671875
-105.29,1711092015687500
-114.33,1711092015703125
-119.76,1711092015718750
-119.52,1711092015734375
-112.46,1711092015750000
-98.72,1711092015765625
-79.61,1711092015781250
-57.22,1711092015796875
-33.84,1711092015812500
-11.44,1711092015828125
8.55,1711092015843750
25.28,1711092015859375
38.34,1711092015875000
47.71,1711092015890625
53.64,1711092015906250
56.65,1711092015921875
57.44,1711092015937500
56.8,1711092015953125
55.47,1711092015968750
54.0,1711092015984375
52.79,1711092016000000
52.04,1711092016015625
51.82,1711092016031250
52.15,1711092016046875
53.0,1711092016062500
54.31,1711092016078125
55.99,1711092016093750
57.95,1711092016109375
60.03,1711092016125000
61.95,1711092016140625
63.31,1711092016156250
63.62,1711092016171875
62.51,1711092016187500
59.84,1711092016203125
55.82,1711092016218750
50.9,1711092016234375
45.66,1711092016250000
40.55,1711092016265625
35.8,1711092016281250
31.43,1711092016296875
27.33,1711092016312500
23.29,1711092016328125
19.12,1711092016343750
14.66,1711092016359375
9.79,1711092016375000
4.51,1711092016390625
-1.0,1711092016406250
-6.45,1711092016421875
-11.55,1711092016437500
-16.2,1711092016453125
-20.55,1711092016468750
-24.96,1711092016484375
-29.77,1711092016500000
-35.19,1711092016515625
-41.15,1711092016531250
-47.36,1711092016546875
-53.46,1711092016562500
-59.19,1711092016578125
-64.57,1711092016593750
-69.85,1711092016609375
-75.48,1711092016625000
-82.07,1711092016640625
-90.07,1711092016656250
-99.53,1711092016671875
-109.79,1711092016687500
-119.36,1711092016703125
-126.03,1711092016718750
-127.45,1711092016734375
-121.83,1711092016750000
-108.57,1711092016765625
-88.51,1711092016781250
-63.8,1711092016796875
-37.2,1711092016812500
-11.43,1711092016828125
11.49,1711092016843750
30.41,1711092016859375
45.02,1711092016875000
55.54,1711092016890625
62.47,1711092016906250
66.41,1711092016921875
67.98,1711092016937500
67.8,1711092016953125
66.5,1711092016968750
64.62,1711092016984375
62.62,1711092017000000
60.91,1711092017015625
59.72,1711092017031250
59.23,1711092017046875
59.49,1711092017062500
60.49,1711092017078125
62.06,1711092017093750
64.02,1711092017109375
66.07,1711092017125000
67.89,1711092017140625
69.16,1711092017156250
69.6,1711092017171875
69.01,1711092017187500
67.24,1711092017203125
64.21,1711092017218750
59.97,1711092017234375
54.7,1711092017250000
48.78,1711092017265625
42.73,1711092017281250
37.04,1711092017296875
32.02,1711092017312500
27.7,1711092017328125
23.78,1711092017343750
19.9,1711092017359375
15.78,1711092017375000
11.44,1711092017390625
7.19,1711092017406250
3.37,1711092017421875
0.18,1711092017437500
-2.54,1711092017453125
-5.21,1711092017468750
-8.38,1711092017484375
-12.44,1711092017500000
-17.47,1711092017515625
-23.26,1711092017531250
-29.43,1711092017546875
-35.59,1711092017562500
-41.45,1711092017578125
-46.96,1711092017593750
-52.23,1711092017609375
-57.45,1711092017625000
-62.92,1711092017640625
-68.94,1711092017656250
-75.87,1711092017671875
-83.91,1711092017687500
-92.99,1711092017703125
-102.47,1711092017718750
-111.0,1711092017734375
-116.7,1711092017750000
-117.59,1711092017765625
-112.23,1711092017781250
-100.28,1711092017796875
-82.6,1711092017812500
-61.09,1711092017828125
-38.1,1711092017843750
-15.83,1711092017859375
4.07,1711092017875000
20.69,1711092017890625
33.71,1711092017906250
43.19,1711092017921875
49.39,1711092017937500
52.67,1711092017953125
53.46,1711092017968750
52.29,1711092017984375
49.83,1711092018000000
46.82,1711092018015625
44.02,1711092018031250
42.05,1711092018046875
41.23,1711092018062500
41.56,1711092018078125
42.82,1711092018093750
44.67,1711092018109375
46.86,1711092018125000
49.16,1711092018140625
51.38,1711092018156250
53.25,1711092018171875
54.41,1711092018187500
54.51,1711092018203125
53.39,1711092018218750
51.11,1711092018234375
47.97,1711092018250000
44.34,1711092018265625
40.46,1711092018281250
36.4,1711092018296875
32.05,1711092018312500
27.26,1711092018328125
21.99,1711092018343750
16.41,1711092018359375
10.8,1711092018375000
5.46,1711092018390625
0.59,1711092018406250
-3.86,1711092018421875
-8.13,1711092018437500
-12.61,1711092018453125
-17.67,1711092018468750
-23.54,1711092018484375
-30.12,1711092018500000
-37.07,1711092018515625
-43.9,1711092018531250
-50.16,1711092018546875
-55.65,1711092018562500
-60.53,1711092018578125
-65.34,1711092018593750
-70.81,1711092018609375
-77.68,1711092018625000
-86.31,1711092018640625
-96.4,1711092018656250
-106.8,1711092018671875
-115.56,1711092018687500
-120.38,1711092018703125
-119.18,1711092018718750
-110.79,1711092018734375
-95.36,1711092018750000
-74.39,1711092018765625
-50.29,1711092018781250
-25.69,1711092018796875
-2.78,1711092018812500
17.03,1711092018828125
33.04,1711092018843750
45.16,1711092018859375
53.54,1711092018875000
58.55,1711092018890625
60.62,1711092018906250
60.39,1711092018921875
58.64,1711092018937500
56.17,1711092018953125
53.67,1711092018968750
51.64,1711092018984375
50.3,1711092019000000
49.67,1711092019015625
49.68,1711092019031250
50.23,1711092019046875
51.25,1711092019062500
52.66,1711092019078125
54.34,1711092019093750
56.03,1711092019109375
57.44,1711092019125000
58.21,1711092019140625
58.01,1711092019156250
56.65,1711092019171875
54.09,1711092019187500
50.43,1711092019203125
45.93,1711092019218750
40.93,1711092019234375
35.72,1711092019250000
30.54,1711092019265625
25.48,1711092019281250
20.52,1711092019296875
15.62,1711092019312500
10.75,1711092019328125
5.91,1711092019343750
1.09,1711092019359375
-3.79,1711092019375000
-8.9,1711092019390625
-14.41,1711092019406250
-20.36,1711092019421875
-26.67,1711092019437500
-33.02,1711092019453125
-39.09,1711092019468750
-44.61,1711092019484375
-49.6,1711092019500000
-54.29,1711092019515625
-59.16,1711092019531250
-64.82,1711092019546875
-71.91,1711092019562500
-80.85,1711092019578125
-91.5,1711092019593750
-102.96,1711092019609375
-113.4,1711092019625000
-120.43,1711092019640625
-121.69,1711092019656250
-115.6,1711092019671875
-101.9,1711092019687500
-81.8,1711092019703125
-57.6,1711092019718750
-32.05,1711092019734375
-7.64,1711092019750000
13.87,1711092019765625
31.52,1711092019781250
45.06,1711092019796875
54.65,1711092019812500
60.67,1711092019828125
63.58,1711092019843750
63.98,1711092019859375
62.61,1711092019875000
60.24,1711092019890625
57.63,1711092019906250
55.37,1711092019921875
53.81,1711092019937500
53.03,1711092019953125
53.03,1711092019968750
53.75,1711092019984375
55.19,1711092020000000
57.3,1711092020015625
59.96,1711092020031250
62.8,1711092020046875
65.31,1711092020062500
66.87,1711092020078125
66.97,1711092020093750
65.37,1711092020109375
62.17,1711092020125000
57.78,1711092020140625
52.75,1711092020156250
47.64,1711092020171875
42.8,1711092020187500
38.25,1711092020203125
33.78,1711092020218750
29.05,1711092020234375
23.8,1711092020250000
18.03,1711092020265625
12.01,1711092020281250
6.08,1711092020296875
0.46,1711092020312500
-4.88,1711092020328125
-10.22,1711092020343750
-15.9,1711092020359375
-22.09,1711092020375000
-28.7,1711092020390625
-35.39,1711092020406250
-41.8,1711092020421875
-47.68,1711092020437500
-53.05,1711092020453125
-58.16,1711092020468750
-63.39,1711092020484375
-69.24,1711092020500000
-76.23,1711092020515625
-84.8,1711092020531250
-95.03,1711092020546875
-106.34,1711092020562500
-117.25,1711092020578125
-125.49,1711092020593750
-128.49,1711092020609375
-124.27,1711092020625000
-112.08,1711092020640625
-92.87,1711092020656250
-68.85,1711092020671875
-42.91,1711092020687500
-17.68,1711092020703125
4.99,1711092020718750
24.2,1711092020734375
39.67,1711092020750000
51.42,1711092020765625
59.52,1711092020781250
64.1,1711092020796875
65.5,1711092020812500
64.47,1711092020828125
62.0,1711092020843750
59.21,1711092020859375
56.93,1711092020875000
55.59,1711092020890625
55.13,1711092020906250
55.28,1711092020921875
55.77,1711092020937500
56.57,1711092020953125
57.79,1711092020968750
59.62,1711092020984375
61.98,1711092021000000
64.48,1711092021015625
66.47,1711092021031250
67.23,1711092021046875
66.27,1711092021062500
63.53,1711092021078125
59.32,1711092021093750
54.24,1711092021109375
48.87,1711092021125000
43.66,1711092021140625
38.72,1711092021156250
33.93,1711092021171875
29.06,1711092021187500
23.91,1711092021203125
18.46,1711092021218750
12.86,1711092021234375
7.34,1711092021250000
2.04,1711092021265625
-3.01,1711092021281250
-7.97,1711092021296875
-13.06,1711092021312500
-18.44,1711092021328125
-24.11,1711092021343750
-29.92,1711092021359375
-35.6,1711092021375000
-40.93,1711092021390625
-45.83,1711092021406250
-50.41,1711092021421875
-54.98,1711092021437500
-59.95,1711092021453125
-65.81,1711092021468750
-73.02,1711092021484375
-81.79,1711092021500000
-91.79,1711092021515625
-101.96,1711092021531250
-110.46,1711092021546875
-114.99,1711092021562500
-113.45,1711092021578125
-104.65,1711092021593750
-88.81,1711092021609375
-67.57,1711092021625000
-43.48,1711092021640625
-19.24,1711092021656250
2.95,1711092021671875
21.7,1711092021687500
36.5,1711092021703125
47.34,1711092021718750
54.52,1711092021734375
58.42,1711092021750000
59.49,1711092021765625
58.27,1711092021781250
55.52,1711092021796875
52.03,1711092021812500
48.66,1711092021828125
46.08,1711092021843750
44.67,1711092021859375
44.45,1711092021875000
45.16,1711092021890625
46.41,1711092021906250
47.89,1711092021921875
49.44,1711092021937500
51.04,1711092021953125
52.7,1711092021968750
54.28,1711092021984375
55.45,1711092022000000
55.83,1711092022015625
55.08,1711092022031250
53.08,1711092022046875
49.9,1711092022062500
45.8,1711092022078125
41.02,1711092022093750
35.8,1711092022109375
30.26,1711092022125000
24.46,1711092022140625
18.5,1711092022156250
12.49,1711092022171875
6.65,1711092022187500
1.19,1711092022203125
-3.74,1711092022218750
-8.16,1711092022234375
-12.27,1711092022250000
-16.45,1711092022265625
-21.05,1711092022281250
-26.27,1711092022296875
-32.0,1711092022312500
-37.86,1711092022328125
-43.39,1711092022343750
-48.21,1711092022359375
-52.3,1711092022375000
-55.97,1711092022390625
-59.86,1711092022406250
-64.69,1711092022421875
-71.09,1711092022437500
-79.28,1711092022453125
-88.82,1711092022468750
-98.52,1711092022484375
-106.5,1711092022500000
-110.6,1711092022515625
-108.9,1711092022531250
-100.35,1711092022546875
-85.14,1711092022562500
-64.67,1711092022578125
-41.26,1711092022593750
-17.42,1711092022609375
4.69,1711092022625000
23.64,1711092022640625
38.75,1711092022656250
49.91,1711092022671875
57.31,1711092022687500
61.26,1711092022703125
62.2,1711092022718750
60.77,1711092022734375
57.82,1711092022750000
54.34,1711092022765625
51.26,1711092022781250
49.17,1711092022796875
48.21,1711092022812500
48.14,1711092022828125
48.57,1711092022843750
49.14,1711092022859375
49.69,1711092022875000
50.23,1711092022890625
50.77,1711092022906250
51.26,1711092022921875
51.53,1711092022937500
51.38,1711092022953125
50.54,1711092022968750
48.8,1711092022984375
45.96,1711092023000000
41.92,1711092023015625
36.73,1711092023031250
30.66,1711092023046875
24.15,1711092023062500
17.77,1711092023078125
11.95,1711092023093750
6.85,1711092023109375
2.25,1711092023125000
-2.29,1711092023140625
-7.32,1711092023156250
-13.18,1711092023171875
-19.86,1711092023187500
-27.04,1711092023203125
-34.17,1711092023218750
-40.76,1711092023234375
-46.51,1711092023250000
-51.47,1711092023265625
-55.94,1711092023281250
-60.43,1711092023296875
-65.53,1711092023312500
-71.79,1711092023328125
-79.6,1711092023343750
-88.93,1711092023359375
-99.14,1711092023375000
-108.79,1711092023390625
-115.83,1711092023406250
-118.05,1711092023421875
-113.73,1711092023437500
-102.23,1711092023453125
-84.29,1711092023468750
-61.81,1711092023484375
-37.35,1711092023500000
-13.45,1711092023515625
7.89,1711092023531250
25.45,1711092023546875
38.79,1711092023562500
48.09,1711092023578125
53.92,1711092023593750
57.02,1711092023609375
58.13,1711092023625000
57.89,1711092023640625
56.83,1711092023656250
55.34,1711092023671875
53.79,1711092023687500
52.55,1711092023703125
51.91,1711092023718750
52.03,1711092023734375
52.84,1711092023750000
54.1,1711092023765625
55.48,1711092023781250
56.72,1711092023796875
57.69,1711092023812500
58.35,1711092023828125
58.63,1711092023843750
58.35,1711092023859375
57.19,1711092023875000
54.89,1711092023890625
51.32,1711092023906250
46.58,1711092023921875
40.99,1711092023937500
34.98,1711092023953125
28.9,1711092023968750
23.01,1711092023984375
17.46,1711092024000000
12.26,1711092024015625
7.3,1711092024031250
2.37,1711092024046875
-2.8,1711092024062500
-8.48,1711092024078125
-14.75,1711092024093750
-21.5,1711092024109375
-28.4,1711092024125000
-35.11,1711092024140625
-41.35,1711092024156250
-47.05,1711092024171875
-52.32,1711092024187500
-57.4,1711092024203125
-62.65,1711092024218750
-68.58,1711092024234375
-75.73,1711092024250000
-84.54,1711092024265625
-94.93,1711092024281250
-105.9,1711092024296875
-115.43,1711092024312500
-120.87,1711092024328125
-119.77,1711092024343750
-110.74,1711092024359375
-94.14,1711092024375000
-71.9,1711092024390625
-46.96,1711092024406250
-22.25,1711092024421875
0.01,1711092024437500
18.66,1711092024453125
33.43,1711092024468750
44.53,1711092024484375
52.31,1711092024500000
57.06,1711092024515625
59.16,1711092024531250
59.11,1711092024546875
57.62,1711092024562500
55.47,1711092024578125
53.39,1711092024593750
51.89,1711092024609375
51.19,1711092024625000
51.26,1711092024640625
51.91,1711092024656250
52.95,1711092024671875
54.29,1711092024687500
55.94,1711092024703125
57.9,1711092024718750
60.03,1711092024734375
61.96,1711092024750000
63.12,1711092024765625
62.99,1711092024781250
61.26,1711092024796875
58.0,1711092024812500
53.61,1711092024828125
48.67,1711092024843750
43.68,1711092024859375
38.94,1711092024875000
34.45,1711092024890625
30.0,1711092024906250
25.32,1711092024921875
20.21,1711092024937500
14.7,1711092024953125
8.96,1711092024968750
3.32,1711092024984375
-1.9,1711092025000000
-6.53,1711092025015625
-10.69,1711092025031250
-14.73,1711092025046875
-19.14,1711092025062500
-24.31,1711092025078125
-30.27,1711092025093750
-36.71,1711092025109375
-43.04,1711092025125000
-48.7,1711092025140625
-53.39,1711092025156250
-57.33,1711092025171875
-61.13,1711092025187500
-65.7,1711092025203125
-71.96,1711092025218750
-80.43,1711092025234375
-90.98,1711092025250000
-102.66,1711092025265625
-113.59,1711092025281250
-121.44,1711092025296875
-123.87,1711092025312500
-119.24,1711092025328125
-107.13,1711092025343750
-88.54,1711092025359375
-65.59,1711092025375000
-41.03,1711092025390625
-17.46,1711092025406250
3.2,1711092025421875
19.96,1711092025437500
32.67,1711092025453125
41.79,1711092025468750
47.97,1711092025484375
51.79,1711092025500000
53.74,1711092025515625
54.19,1711092025531250
53.53,1711092025546875
52.19,1711092025562500
50.63,1711092025578125
49.22,1711092025593750
48.23,1711092025609375
47.8,1711092025625000
48.02,1711092025640625
48.98,1711092025656250
50.73,1711092025671875
53.2,1711092025687500
56.11,1711092025703125
59.0,1711092025718750
61.23,1711092025734375
62.24,1711092025750000
61.59,1711092025765625
59.21,1711092025781250
55.33,1711092025796875
50.5,1711092025812500
45.38,1711092025828125
40.55,1711092025843750
36.31,1711092025859375
32.55,1711092025875000
28.88,1711092025890625
24.82,1711092025906250
20.14,1711092025921875
14.92,1711092025937500
9.48,1711092025953125
4.18,1711092025968750
-0.84,1711092025984375
-5.72,1711092026000000
-10.74,1711092026015625
-16.11,1711092026031250
-21.85,1711092026046875
-27.77,1711092026062500
-33.56,1711092026078125
-39.01,1711092026093750
-44.05,1711092026109375
-48.8,1711092026125000
-53.59,1711092026140625
-58.92,1711092026156250
-65.37,1711092026171875
-73.44,1711092026187500
-83.23,1711092026203125
-94.15,1711092026218750
-104.71,1711092026234375
-112.7,1711092026250000
-115.78,1711092026265625
-112.15,1711092026281250
-101.29,1711092026296875
-84.04,1711092026312500
-62.48,1711092026328125
-39.13,1711092026343750
-16.34,1711092026359375
4.22,1711092026375000
21.64,1711092026390625
35.56,1711092026406250
45.93,1711092026421875
52.83,1711092026437500
56.55,1711092026453125
57.63,1711092026468750
56.92,1711092026484375
55.36,1711092026500000
53.72,1711092026515625
52.48,1711092026531250
51.7,1711092026546875
51.23,1711092026562500
50.9,1711092026578125
50.69,1711092026593750
50.75,1711092026609375
51.29,1711092026625000
52.36,1711092026640625
53.75,1711092026656250
55.05,1711092026671875
55.72,1711092026687500
55.4,1711092026703125
53.89,1711092026718750
51.29,1711092026734375
47.76,1711092026750000
43.54,1711092026765625
38.81,1711092026781250
33.69,1711092026796875
28.35,1711092026812500
22.95,1711092026828125
17.64,1711092026843750
12.47,1711092026859375
7.45,1711092026875000
2.51,1711092026890625
-2.38,1711092026906250
-7.22,1711092026921875
-12.04,1711092026937500
-16.89,1711092026953125
-21.96,1711092026968750
-27.45,1711092026984375
-33.51,1711092027000000
-40.1,1711092027015625
-46.99,1711092027031250
-53.88,1711092027046875
-60.52,1711092027062500
-66.86,1711092027078125
-73.12,1711092027093750
-79.81,1711092027109375
-87.54,1711092027125000
-96.76,1711092027140625
-107.41,1711092027156250
-118.63,1711092027171875
-128.66,1711092027187500
-135.17,1711092027203125
-135.88,1711092027218750
-129.23,1711092027234375
-114.94,1711092027250000
-94.14,1711092027265625
-69.03,1711092027281250
-42.25,1711092027296875
-16.24,1711092027312500
7.13,1711092027328125
26.82,1711092027343750
42.37,1711092027359375
53.82,1711092027375000
61.51,1711092027390625
65.99,1711092027406250
67.94,1711092027421875
68.17,1711092027437500
67.41,1711092027453125
66.3,1711092027468750
65.27,1711092027484375
64.53,1711092027500000
64.09,1711092027515625
63.92,1711092027531250
64.03,1711092027546875
64.49,1711092027562500
65.38,1711092027578125
66.74,1711092027593750
68.39,1711092027609375
70.0,1711092027625000
71.09,1711092027640625
71.17,1711092027656250
69.91,1711092027671875
67.24,1711092027687500
63.32,1711092027703125
58.56,1711092027718750
53.44,1711092027734375
48.32,1711092027750000
43.36,1711092027765625
38.49,1711092027781250
33.51,1711092027796875
28.24,1711092027812500
22.65,1711092027828125
16.87,1711092027843750
11.15,1711092027859375
5.68,1711092027875000
0.52,1711092027890625
-4.46,1711092027906250
-9.55,1711092027921875
-15.04,1711092027937500
-21.12,1711092027953125
-27.74,1711092027968750
-34.67,1711092027984375
-41.5,1711092028000000
-47.93,1711092028015625
-53.81,1711092028031250
-59.25,1711092028046875
-64.56,1711092028062500
-70.24,1711092028078125
-76.86,1711092028093750
-84.97,1711092028109375
-94.77,1711092028125000
-105.88,1711092028140625
-117.0,1711092028156250
-125.99,1711092028171875
-130.37,1711092028187500
-128.02,1711092028203125
-117.96,1711092028218750
-100.71,1711092028234375
-78.14,1711092028250000
-52.86,1711092028265625
-27.49,1711092028281250
-4.03,1711092028296875
16.29,1711092028312500
32.94,1711092028328125
45.77,1711092028343750
54.88,1711092028359375
60.56,1711092028375000
63.3,1711092028390625
63.78,1711092028406250
62.84,1711092028421875
61.26,1711092028437500
59.65,1711092028453125
58.42,1711092028468750
57.72,1711092028484375
57.53,1711092028500000
57.79,1711092028515625
58.51,1711092028531250
59.67,1711092028546875
61.25,1711092028562500
63.04,1711092028578125
64.68,1711092028593750
65.63,1711092028609375
65.42,1711092028625000
63.74,1711092028640625
60.64,1711092028656250
56.46,1711092028671875
51.7,1711092028687500
46.85,1711092028703125
42.23,1711092028718750
37.9,1711092028734375
33.64,1711092028750000
29.17,1711092028765625
24.17,1711092028781250
18.57,1711092028796875
12.55,1711092028812500
6.55,1711092028828125
1.1,1711092028843750
-3.45,1711092028859375
-7.07,1711092028875000
-10.15,1711092028890625
-13.33,1711092028906250
-17.18,1711092028921875
-21.98,1711092028937500
-27.65,1711092028953125
-33.79,1711092028968750
-39.86,1711092028984375
-45.49,1711092029000000
-50.56,1711092029015625
-55.24,1711092029031250
-60.0,1711092029046875
-65.55,1711092029062500
-72.61,1711092029078125
-81.64,1711092029093750
-92.4,1711092029109375
-103.7,1711092029125000
-113.42,1711092029140625
-119.01,1711092029156250
-118.18,1711092029171875
-109.68,1711092029187500
-93.75,1711092029203125
-72.02,1711092029218750
-47.05,1711092029234375
-21.55,1711092029250000
2.18,1711092029265625
22.6,1711092029281250
38.98,1711092029296875
51.2,1711092029312500
59.51,1711092029328125
64.36,1711092029343750
66.3,1711092029359375
65.98,1711092029375000
64.14,1711092029390625
61.57,1711092029406250
59.01,1711092029421875
57.02,1711092029437500
55.89,1711092029453125
55.6,1711092029468750
55.95,1711092029484375
56.69,1711092029500000
57.66,1711092029515625
58.87,1711092029531250
60.36,1711092029546875
62.13,1711092029562500
63.93,1711092029578125
65.3,1711092029593750
65.67,1711092029609375
64.57,1711092029625000
61.84,1711092029640625
57.68,1711092029656250
52.63,1711092029671875
47.31,1711092029687500
42.21,1711092029703125
37.49,1711092029718750
32.97,1711092029734375
28.34,1711092029750000
23.28,1711092029765625
17.72,1711092029781250
11.89,1711092029796875
6.2,1711092029812500
1.04,1711092029828125
-3.39,1711092029843750
-7.21,1711092029859375
-10.84,1711092029875000
-14.89,1711092029890625
-19.85,1711092029906250
-25.97,1711092029921875
-33.06,1711092029937500
-40.57,1711092029953125
-47.75,1711092029968750
-53.97,1711092029984375
-58.94,1711092030000000
-62.89,1711092030015625
-66.55,1711092030031250
-70.96,1711092030046875
-77.16,1711092030062500
-85.79,1711092030078125
-96.63,1711092030093750
-108.36,1711092030109375
-118.71,1711092030125000
-124.87,1711092030140625
-124.41,1711092030156250
-116.01,1711092030171875
-99.98,1711092030187500
-78.16,1711092030203125
-53.25,1711092030218750
-28.06,1711092030234375
-4.82,1711092030250000
15.1,1711092030265625
31.05,1711092030281250
42.89,1711092030296875
50.83,1711092030312500
55.26,1711092030328125
56.83,1711092030343750
56.35,1711092030359375
54.62,1711092030375000
52.37,1711092030390625
50.07,1711092030406250
48.06,1711092030421875
46.57,1711092030437500
45.76,1711092030453125
45.82,1711092030468750
46.8,1711092030484375
48.61,1711092030500000
51.02,1711092030515625
53.66,1711092030531250
56.11,1711092030546875
57.98,1711092030562500
58.92,1711092030578125
58.67,1711092030593750
57.07,1711092030609375
54.2,1711092030625000
50.28,1711092030640625
45.72,1711092030656250
40.96,1711092030671875
36.31,1711092030687500
31.84,1711092030703125
27.41,1711092030718750
22.75,1711092030734375
17.63,1711092030750000
12.05,1711092030765625
6.24,1711092030781250
0.57,1711092030796875
-4.57,1711092030812500
-9.03,1711092030828125
-12.93,1711092030843750
-16.65,1711092030859375
-20.65,1711092030875000
-25.25,1711092030890625
-30.5,1711092030906250
-36.18,1711092030921875
-41.89,1711092030937500
-47.23,1711092030953125
-52.02,1711092030968750
-56.34,1711092030984375
-60.63,1711092031000000
-65.48,1711092031015625
-71.6,1711092031031250
-79.44,1711092031046875
-88.92,1711092031062500
-99.1,1711092031078125
-108.17,1711092031093750
-113.79,1711092031109375
-113.8,1711092031125000
-106.88,1711092031140625
-93.07,1711092031156250
-73.77,1711092031171875
-51.28,1711092031187500
-28.08,1711092031203125
-6.24,1711092031218750
12.84,1711092031234375
28.51,1711092031250000
40.54,1711092031265625
49.01,1711092031281250
54.2,1711092031296875
56.52,1711092031312500
56.56,1711092031328125
55.02,1711092031343750
52.56,1711092031359375
49.76,1711092031375000
47.05,1711092031390625
44.73,1711092031406250
42.98,1711092031421875
41.9,1711092031437500
