value,timestamp
-0.0,1711417037000000
-0.0,1711417037015625
-0.0,1711417037031250
-0.0,1711417037046875
-0.0,1711417037062500
-0.0,1711417037078125
-0.0,1711417037093750
-0.0,1711417037109375
-0.0,1711417037125000
-0.0,1711417037140625
0.0,1711417037156250
0.01,1711417037171875
0.01,1711417037187500
-0.0,1711417037203125
-0.03,1711417037218750
-0.05,1711417037234375
-0.05,1711417037250000
0.0,1711417037265625
0.13,1711417037281250
0.36,1711417037296875
0.66,1711417037312500
1.01,1711417037328125
1.37,1711417037343750
1.72,1711417037359375
2.06,1711417037375000
2.4,1711417037390625
2.79,1711417037406250
3.24,1711417037421875
3.8,1711417037437500
4.42,1711417037453125
5.06,1711417037468750
5.66,1711417037484375
6.2,1711417037500000
6.68,1711417037515625
7.15,1711417037531250
7.68,1711417037546875
8.31,1711417037562500
9.14,1711417037578125
10.09,1711417037593750
11.04,1711417037609375
11.88,1711417037625000
12.56,1711417037640625
13.14,1711417037656250
13.76,1711417037671875
14.65,1711417037687500
15.96,1711417037703125
17.91,1711417037718750
20.32,1711417037734375
22.9,1711417037750000
25.38,1711417037765625
27.58,1711417037781250
29.57,1711417037796875
31.68,1711417037812500
34.32,1711417037828125
37.81,1711417037843750
42.54,1711417037859375
48.15,1711417037875000
54.1,1711417037890625
59.83,1711417037906250
64.97,1711417037921875
69.58,1711417037937500
74.14,1711417037953125
79.34,1711417037968750
85.71,1711417037984375
93.76,1711417038000000
103.0,1711417038015625
112.62,1711417038031250
121.73,1711417038046875
129.77,1711417038062500
136.75,1711417038078125
143.3,1711417038093750
150.75,1711417038109375
157.77,1711417038125000
166.64,1711417038140625
177.95,1711417038156250
191.79,1711417038171875
206.97,1711417038187500
220.57,1711417038203125
228.25,1711417038218750
225.36,1711417038234375
208.53,1711417038250000
176.87,1711417038265625
132.76,1711417038281250
80.05,1711417038296875
23.07,1711417038312500
-34.94,1711417038328125
-92.44,1711417038343750
-149.16,1711417038359375
-205.23,1711417038375000
-260.37,1711417038390625
-313.74,1711417038406250
-363.87,1711417038421875
-409.83,1711417038437500
-450.91,1711417038453125
-486.5,1711417038468750
-515.74,1711417038484375
-537.23,1711417038500000
-549.22,1711417038515625
-549.96,1711417038531250
-538.37,1711417038546875
-514.21,1711417038562500
-478.67,1711417038578125
-433.88,1711417038593750
-382.45,1711417038609375
-327.02,1711417038625000
-269.84,1711417038640625
-212.63,1711417038656250
-156.66,1711417038671875
-102.95,1711417038687500
-52.37,1711417038703125
-5.9,1711417038718750
35.58,1711417038734375
71.43,1711417038750000
101.35,1711417038765625
125.5,1711417038781250
144.38,1711417038796875
158.69,1711417038812500
169.15,1711417038828125
176.37,1711417038843750
180.75,1711417038859375
182.57,1711417038875000
182.07,1711417038890625
179.51,1711417038906250
175.23,1711417038921875
169.65,1711417038937500
163.18,1711417038953125
156.15,1711417038968750
148.81,1711417038984375
141.3,1711417039000000
133.69,1711417039015625
126.02,1711417039031250
118.33,1711417039046875
110.69,1711417039062500
103.16,1711417039078125
95.8,1711417039093750
88.68,1711417039109375
81.83,1711417039125000
75.25,1711417039140625
68.95,1711417039156250
62.95,1711417039171875
57.25,1711417039187500
51.86,1711417039203125
46.78,1711417039218750
42.03,1711417039234375
37.59,1711417039250000
33.45,1711417039265625
29.61,1711417039281250
26.07,1711417039296875
22.81,1711417039312500
19.83,1711417039328125
17.11,1711417039343750
14.67,1711417039359375
12.48,1711417039375000
10.54,1711417039390625
8.83,1711417039406250
7.35,1711417039421875
6.07,1711417039437500
4.97,1711417039453125
4.05,1711417039468750
3.27,1711417039484375
2.62,1711417039500000
2.09,1711417039515625
1.65,1711417039531250
1.3,1711417039546875
1.01,1711417039562500
0.79,1711417039578125
0.61,1711417039593750
0.48,1711417039609375
0.37,1711417039625000
0.28,1711417039640625
0.22,1711417039656250
0.17,1711417039671875
0.15,1711417039687500
0.14,1711417039703125
0.15,1711417039718750
0.18,1711417039734375
0.19,1711417039750000
0.17,1711417039765625
0.11,1711417039781250
0.02,1711417039796875
-0.08,1711417039812500
-0.16,1711417039828125
-0.19,1711417039843750
-0.17,1711417039859375
-0.09,1711417039875000
-0.02,1711417039890625
0.03,1711417039906250
0.02,1711417039921875
-0.04,1711417039937500
-0.12,1711417039953125
-0.18,1711417039968750
-0.17,1711417039984375
-0.08,1711417040000000
0.05,1711417040015625
0.16,1711417040031250
0.19,1711417040046875
0.09,1711417040062500
-0.1,1711417040078125
-0.32,1711417040093750
-0.46,1711417040109375
-0.42,1711417040125000
-0.19,1711417040140625
0.16,1711417040156250
0.46,1711417040171875
0.53,1711417040187500
0.28,1711417040203125
-0.25,1711417040218750
-0.86,1711417040234375
-1.29,1711417040250000
-1.3,1711417040265625
-0.82,1711417040281250
-0.06,1711417040296875
0.64,1711417040312500
0.88,1711417040328125
0.45,1711417040343750
-0.57,1711417040359375
-1.8,1711417040375000
-2.7,1711417040390625
-2.82,1711417040406250
-2.07,1711417040421875
-0.75,1711417040437500
0.5,1711417040453125
1.02,1711417040468750
0.44,1711417040484375
-1.09,1711417040500000
-2.96,1711417040515625
-4.36,1711417040531250
-4.7,1711417040546875
-3.8,1711417040562500
-2.04,1711417040578125
-0.17,1711417040593750
1.05,1711417040609375
0.99,1711417040625000
-0.84,1711417040640625
-4.71,1711417040656250
-10.46,1711417040671875
-17.1,1711417040687500
-22.66,1711417040703125
-24.54,1711417040718750
-20.56,1711417040734375
-10.21,1711417040750000
4.84,1711417040765625
20.97,1711417040781250
34.02,1711417040796875
41.03,1711417040812500
41.27,1711417040828125
36.23,1711417040843750
28.54,1711417040859375
20.52,1711417040875000
13.42,1711417040890625
7.4,1711417040906250
2.18,1711417040921875
-2.22,1711417040937500
-5.26,1711417040953125
-6.32,1711417040968750
-5.28,1711417040984375
-2.8,1711417041000000
-0.17,1711417041015625
1.34,1711417041031250
1.03,1711417041046875
-0.91,1711417041062500
-3.49,1711417041078125
-5.53,1711417041093750
-6.27,1711417041109375
-5.72,1711417041125000
-4.59,1711417041140625
-3.88,1711417041156250
-4.29,1711417041171875
-5.85,1711417041187500
-8.05,1711417041203125
-10.04,1711417041218750
-11.15,1711417041234375
-11.13,1711417041250000
-10.14,1711417041265625
-8.7,1711417041281250
-7.35,1711417041296875
-6.66,1711417041312500
-6.93,1711417041328125
-8.11,1711417041343750
-9.75,1711417041359375
-10.98,1711417041375000
-10.72,1711417041390625
-8.11,1711417041406250
-2.9,1711417041421875
4.3,1711417041437500
12.2,1711417041453125
19.26,1711417041468750
24.28,1711417041484375
26.74,1711417041500000
26.81,1711417041515625
25.1,1711417041531250
22.31,1711417041546875
18.99,1711417041562500
15.47,1711417041578125
12.0,1711417041593750
8.89,1711417041609375
6.49,1711417041625000
5.12,1711417041640625
4.91,1711417041656250
5.72,1711417041671875
7.12,1711417041687500
8.63,1711417041703125
9.86,1711417041718750
10.64,1711417041734375
11.05,1711417041750000
11.17,1711417041765625
11.07,1711417041781250
10.67,1711417041796875
9.81,1711417041812500
8.37,1711417041828125
6.3,1711417041843750
3.72,1711417041859375
0.81,1711417041875000
-2.18,1711417041890625
-5.13,1711417041906250
-7.98,1711417041921875
-10.81,1711417041937500
-13.77,1711417041953125
-17.11,1711417041968750
-21.17,1711417041984375
-26.27,1711417042000000
-32.53,1711417042015625
-39.68,1711417042031250
-46.79,1711417042046875
-52.36,1711417042062500
-54.71,1711417042078125
-52.5,1711417042093750
-45.33,1711417042109375
-33.87,1711417042125000
-19.72,1711417042140625
-4.85,1711417042156250
9.01,1711417042171875
20.8,1711417042187500
30.15,1711417042203125
37.08,1711417042218750
41.78,1711417042234375
44.32,1711417042250000
44.79,1711417042265625
43.44,1711417042281250
40.85,1711417042296875
37.8,1711417042312500
35.06,1711417042328125
33.11,1711417042343750
31.95,1711417042359375
31.24,1711417042375000
30.51,1711417042390625
29.44,1711417042406250
27.93,1711417042421875
26.0,1711417042437500
23.68,1711417042453125
20.79,1711417042468750
17.04,1711417042484375
12.15,1711417042500000
6.05,1711417042515625
-0.97,1711417042531250
-8.33,1711417042546875
-15.31,1711417042562500
-21.27,1711417042578125
-25.84,1711417042593750
-29.05,1711417042609375
-31.33,1711417042625000
-33.4,1711417042640625
-36.11,1711417042656250
-40.08,1711417042671875
-45.43,1711417042687500
-51.59,1711417042703125
-57.32,1711417042718750
-61.06,1711417042734375
-61.34,1711417042750000
-57.3,1711417042765625
-48.92,1711417042781250
-37.03,1711417042796875
-22.98,1711417042812500
-8.38,1711417042828125
5.36,1711417042843750
17.21,1711417042859375
26.55,1711417042875000
33.16,1711417042890625
37.05,1711417042906250
38.53,1711417042921875
38.07,1711417042937500
36.32,1711417042953125
33.95,1711417042968750
31.57,1711417042984375
29.58,1711417043000000
28.17,1711417043015625
27.36,1711417043031250
26.97,1711417043046875
26.75,1711417043062500
26.35,1711417043078125
25.4,1711417043093750
23.54,1711417043109375
20.57,1711417043125000
16.52,1711417043140625
11.66,1711417043156250
6.43,1711417043171875
1.26,1711417043187500
-3.6,1711417043203125
-8.12,1711417043218750
-12.47,1711417043234375
-16.9,1711417043250000
-21.67,1711417043265625
-27.02,1711417043281250
-33.17,1711417043296875
-40.3,1711417043312500
-48.34,1711417043328125
-56.76,1711417043343750
-64.48,1711417043359375
-70.0,1711417043375000
-71.77,1711417043390625
-68.8,1711417043406250
-61.0,1711417043421875
-49.36,1711417043437500
-35.57,1711417043453125
-21.54,1711417043468750
-8.79,1711417043484375
1.79,1711417043500000
10.0,1711417043515625
16.08,1711417043531250
20.3,1711417043546875
22.77,1711417043562500
23.39,1711417043578125
22.0,1711417043593750
18.69,1711417043609375
14.01,1711417043625000
8.95,1711417043640625
4.69,1711417043656250
2.13,1711417043671875
1.58,1711417043687500
2.61,1711417043703125
4.31,1711417043718750
5.76,1711417043734375
6.38,1711417043750000
6.15,1711417043765625
5.45,1711417043781250
4.79,1711417043796875
4.55,1711417043812500
4.83,1711417043828125
5.47,1711417043843750
6.18,1711417043859375
6.58,1711417043875000
6.19,1711417043890625
4.47,1711417043906250
0.86,1711417043921875
-5.11,1711417043937500
-13.49,1711417043953125
-23.71,1711417043968750
-34.41,1711417043984375
-43.67,1711417044000000
-49.37,1711417044015625
-49.86,1711417044031250
-44.52,1711417044046875
-33.95,1711417044062500
-19.83,1711417044078125
-4.3,1711417044093750
10.62,1711417044109375
23.66,1711417044125000
34.31,1711417044140625
42.74,1711417044156250
49.34,1711417044171875
54.51,1711417044187500
58.45,1711417044203125
61.26,1711417044218750
63.07,1711417044234375
64.11,1711417044250000
64.67,1711417044265625
65.05,1711417044281250
65.36,1711417044296875
65.43,1711417044312500
64.85,1711417044328125
63.14,1711417044343750
59.98,1711417044359375
55.42,1711417044375000
49.84,1711417044390625
43.8,1711417044406250
37.71,1711417044421875
31.66,1711417044437500
25.32,1711417044453125
18.16,1711417044468750
9.62,1711417044484375
-0.62,1711417044500000
-12.71,1711417044515625
-26.72,1711417044531250
-42.79,1711417044546875
-61.12,1711417044562500
-81.83,1711417044578125
-104.57,1711417044593750
-128.22,1711417044609375
-150.69,1711417044625000
-169.16,1711417044640625
-180.71,1711417044656250
-183.12,1711417044671875
-175.58,1711417044687500
-159.01,1711417044703125
-135.78,1711417044718750
-108.83,1711417044734375
-80.87,1711417044750000
-53.72,1711417044765625
-28.23,1711417044781250
-4.64,1711417044796875
16.77,1711417044812500
35.33,1711417044828125
50.05,1711417044843750
59.93,1711417044859375
64.63,1711417044875000
64.74,1711417044890625
61.82,1711417044906250
57.93,1711417044921875
55.1,1711417044937500
54.84,1711417044953125
57.97,1711417044968750
64.58,1711417044984375
74.18,1711417045000000
85.75,1711417045015625
97.69,1711417045031250
107.88,1711417045046875
114.05,1711417045062500
114.42,1711417045078125
108.42,1711417045093750
97.22,1711417045109375
83.51,1711417045125000
70.61,1711417045140625
61.33,1711417045156250
56.97,1711417045171875
56.97,1711417045187500
59.47,1711417045203125
62.1,1711417045218750
62.89,1711417045234375
60.66,1711417045250000
55.04,1711417045265625
46.32,1711417045281250
35.49,1711417045296875
24.01,1711417045312500
13.4,1711417045328125
4.39,1711417045343750
-4.02,1711417045359375
-14.89,1711417045375000
-32.44,1711417045390625
-60.13,1711417045406250
-98.48,1711417045421875
-143.92,1711417045437500
-189.37,1711417045453125
-226.48,1711417045468750
-248.71,1711417045484375
-253.44,1711417045500000
-242.55,1711417045515625
-221.11,1711417045531250
-195.28,1711417045546875
-170.34,1711417045562500
-149.69,1711417045578125
-134.84,1711417045593750
-125.87,1711417045609375
-121.87,1711417045625000
-121.1,1711417045640625
-121.27,1711417045656250
-119.94,1711417045671875
-114.95,1711417045687500
-104.88,1711417045703125
-89.09,1711417045718750
-67.76,1711417045734375
-41.69,1711417045750000
-12.31,1711417045765625
18.38,1711417045781250
48.05,1711417045796875
74.55,1711417045812500
96.55,1711417045828125
113.98,1711417045843750
127.73,1711417045859375
138.99,1711417045875000
148.39,1711417045890625
155.68,1711417045906250
160.13,1711417045921875
161.24,1711417045937500
159.32,1711417045953125
155.41,1711417045968750
150.5,1711417045984375
144.83,1711417046000000
137.66,1711417046015625
127.71,1711417046031250
113.98,1711417046046875
96.36,1711417046062500
75.91,1711417046078125
54.68,1711417046093750
35.29,1711417046109375
20.36,1711417046125000
12.07,1711417046140625
11.68,1711417046156250
19.18,1711417046171875
33.2,1711417046187500
51.33,1711417046203125
70.66,1711417046218750
88.53,1711417046234375
103.08,1711417046250000
113.44,1711417046265625
119.54,1711417046281250
121.81,1711417046296875
120.82,1711417046312500
117.15,1711417046328125
111.55,1711417046343750
104.86,1711417046359375
97.98,1711417046375000
91.56,1711417046390625
85.64,1711417046406250
79.65,1711417046421875
72.62,1711417046437500
63.65,1711417046453125
52.4,1711417046468750
39.23,1711417046484375
25.04,1711417046500000
10.86,1711417046515625
-2.5,1711417046531250
-14.61,1711417046546875
-25.3,1711417046562500
-34.62,1711417046578125
-42.77,1711417046593750
-50.25,1711417046609375
-57.75,1711417046625000
-65.94,1711417046640625
-75.09,1711417046656250
-84.79,1711417046671875
-94.01,1711417046687500
-101.52,1711417046703125
-106.45,1711417046718750
-108.56,1711417046734375
-108.28,1711417046750000
-106.41,1711417046765625
-103.75,1711417046781250
-100.89,1711417046796875
-98.03,1711417046812500
-95.07,1711417046828125
-91.76,1711417046843750
-87.87,1711417046859375
-83.33,1711417046875000
-78.42,1711417046890625
-73.64,1711417046906250
-69.53,1711417046921875
-66.45,1711417046937500
-64.4,1711417046953125
-63.03,1711417046968750
-61.79,1711417046984375
-60.26,1711417047000000
-58.28,1711417047015625
-56.03,1711417047031250
-53.93,1711417047046875
-52.45,1711417047062500
-51.98,1711417047078125
-52.74,1711417047093750
-54.63,1711417047109375
-57.37,1711417047125000
-60.45,1711417047140625
-63.31,1711417047156250
-65.39,1711417047171875
-66.11,1711417047187500
-64.86,1711417047203125
-61.18,1711417047218750
-54.83,1711417047234375
-46.07,1711417047250000
-35.69,1711417047265625
-24.74,1711417047281250
-14.13,1711417047296875
-4.27,1711417047312500
5.05,1711417047328125
14.4,1711417047343750
24.15,1711417047359375
33.96,1711417047375000
42.76,1711417047390625
49.24,1711417047406250
52.6,1711417047421875
53.29,1711417047437500
52.91,1711417047453125
53.58,1711417047468750
56.81,1711417047484375
62.69,1711417047500000
69.71,1711417047515625
75.47,1711417047531250
77.76,1711417047546875
75.58,1711417047562500
69.51,1711417047578125
61.35,1711417047593750
53.3,1711417047609375
47.17,1711417047625000
43.89,1711417047640625
43.4,1711417047656250
44.77,1711417047671875
46.33,1711417047687500
46.01,1711417047703125
41.86,1711417047718750
32.83,1711417047734375
19.51,1711417047750000
4.31,1711417047765625
-9.09,1711417047781250
-16.94,1711417047796875
-16.86,1711417047812500
-8.72,1711417047828125
5.46,1711417047843750
22.43,1711417047859375
39.07,1711417047875000
53.39,1711417047890625
64.83,1711417047906250
73.93,1711417047921875
81.53,1711417047937500
88.04,1711417047953125
93.04,1711417047968750
95.25,1711417047984375
92.97,1711417048000000
84.62,1711417048015625
69.55,1711417048031250
48.65,1711417048046875
24.49,1711417048062500
0.93,1711417048078125
-17.87,1711417048093750
-28.7,1711417048109375
-30.26,1711417048125000
-23.49,1711417048140625
-11.27,1711417048156250
2.53,1711417048171875
13.93,1711417048187500
19.82,1711417048203125
18.52,1711417048218750
10.04,1711417048234375
-4.09,1711417048250000
-21.42,1711417048265625
-39.48,1711417048281250
-56.61,1711417048296875
-72.39,1711417048312500
-87.5,1711417048328125
-102.99,1711417048343750
-119.42,1711417048359375
-136.25,1711417048375000
-151.89,1711417048390625
-164.09,1711417048406250
-170.89,1711417048421875
-171.2,1711417048437500
-165.16,1711417048453125
-154.1,1711417048468750
-140.0,1711417048484375
-125.0,1711417048500000
-110.91,1711417048515625
-98.84,1711417048531250
-89.23,1711417048546875
-81.82,1711417048562500
-76.01,1711417048578125
-70.99,1711417048593750
-66.0,1711417048609375
-60.39,1711417048625000
-53.76,1711417048640625
-46.03,1711417048656250
-37.5,1711417048671875
-28.79,1711417048687500
-20.72,1711417048703125
-14.01,1711417048718750
-9.08,1711417048734375
-5.85,1711417048750000
-3.87,1711417048765625
-2.44,1711417048781250
-1.0,1711417048796875
0.63,1711417048812500
2.17,1711417048828125
2.98,1711417048843750
2.4,1711417048859375
0.07,1711417048875000
-3.89,1711417048890625
-8.91,1711417048906250
-14.27,1711417048921875
-19.38,1711417048937500
-24.03,1711417048953125
-28.42,1711417048968750
-33.11,1711417048984375
-38.77,1711417049000000
-45.97,1711417049015625
-54.98,1711417049031250
-65.48,1711417049046875
-76.53,1711417049062500
-86.62,1711417049078125
-94.01,1711417049093750
-97.23,1711417049109375
-95.45,1711417049125000
-88.75,1711417049140625
-77.95,1711417049156250
-64.31,1711417049171875
-49.04,1711417049187500
-33.16,1711417049203125
-17.33,1711417049218750
-2.01,1711417049234375
12.4,1711417049250000
25.52,1711417049265625
37.07,1711417049281250
46.92,1711417049296875
55.21,1711417049312500
62.36,1711417049328125
68.86,1711417049343750
75.19,1711417049359375
81.59,1711417049375000
87.99,1711417049390625
94.1,1711417049406250
99.54,1711417049421875
104.07,1711417049437500
107.74,1711417049453125
110.77,1711417049468750
113.36,1711417049484375
115.44,1711417049500000
116.5,1711417049515625
115.79,1711417049531250
112.63,1711417049546875
106.74,1711417049562500
98.46,1711417049578125
88.7,1711417049593750
78.58,1711417049609375
69.13,1711417049625000
60.87,1711417049640625
53.77,1711417049656250
47.31,1711417049671875
40.78,1711417049687500
33.48,1711417049703125
25.01,1711417049718750
15.41,1711417049734375
5.28,1711417049750000
-4.17,1711417049765625
-11.28,1711417049781250
-14.13,1711417049796875
-11.09,1711417049812500
-1.17,1711417049828125
15.61,1711417049843750
38.18,1711417049859375
64.77,1711417049875000
93.45,1711417049890625
122.62,1711417049906250
151.36,1711417049921875
179.5,1711417049937500
207.36,1711417049953125
235.52,1711417049968750
264.58,1711417049984375
295.1,1711417050000000
327.49,1711417050015625
361.96,1711417050031250
398.29,1711417050046875
435.41,1711417050062500
471.13,1711417050078125
502.19,1711417050093750
524.76,1711417050109375
535.5,1711417050125000
532.56,1711417050140625
516.35,1711417050156250
489.47,1711417050171875
455.84,1711417050187500
419.36,1711417050203125
382.82,1711417050218750
347.3,1711417050234375
312.47,1711417050250000
277.31,1711417050265625
241.05,1711417050281250
203.57,1711417050296875
165.5,1711417050312500
127.72,1711417050328125
90.95,1711417050343750
55.38,1711417050359375
20.72,1711417050375000
-13.66,1711417050390625
-48.35,1711417050406250
-83.77,1711417050421875
-120.14,1711417050437500
-157.53,1711417050453125
-195.83,1711417050468750
-234.44,1711417050484375
-272.05,1711417050500000
-306.52,1711417050515625
-335.3,1711417050531250
-356.14,1711417050546875
-367.91,1711417050562500
-371.06,1711417050578125
-367.38,1711417050593750
-359.29,1711417050609375
-348.98,1711417050625000
-337.91,1711417050640625
-326.89,1711417050656250
-316.41,1711417050671875
-307.09,1711417050687500
-299.67,1711417050703125
-294.73,1711417050718750
-292.22,1711417050734375
-291.16,1711417050750000
-289.86,1711417050765625
-286.36,1711417050781250
-279.19,1711417050796875
-267.87,1711417050812500
-253.23,1711417050828125
-237.18,1711417050843750
-221.99,1711417050859375
-209.33,1711417050875000
-199.45,1711417050890625
-190.88,1711417050906250
-180.89,1711417050921875
-166.47,1711417050937500
-145.65,1711417050953125
-118.26,1711417050968750
-86.05,1711417050984375
-51.91,1711417051000000
-18.78,1711417051015625
11.42,1711417051031250
38.11,1711417051046875
61.82,1711417051062500
83.28,1711417051078125
102.79,1711417051093750
119.77,1711417051109375
133.04,1711417051125000
141.59,1711417051140625
145.27,1711417051156250
145.21,1711417051171875
143.52,1711417051187500
142.41,1711417051203125
143.18,1711417051218750
145.44,1711417051234375
147.13,1711417051250000
145.29,1711417051265625
137.25,1711417051281250
121.77,1711417051296875
99.53,1711417051312500
72.81,1711417051328125
44.49,1711417051343750
17.0,1711417051359375
-8.45,1711417051375000
-31.81,1711417051390625
-53.68,1711417051406250
-74.53,1711417051421875
-94.25,1711417051437500
-112.11,1711417051453125
-127.21,1711417051468750
-139.04,1711417051484375
-147.79,1711417051500000
-154.34,1711417051515625
-159.92,1711417051531250
-165.6,1711417051546875
-172.08,1711417051562500
-179.51,1711417051578125
-187.55,1711417051593750
-195.4,1711417051609375
-202.21,1711417051625000
-207.36,1711417051640625
-210.88,1711417051656250
-213.54,1711417051671875
-216.51,1711417051687500
-220.95,1711417051703125
-227.55,1711417051718750
-236.24,1711417051734375
-246.36,1711417051750000
-257.05,1711417051765625
-267.6,1711417051781250
-277.44,1711417051796875
-285.81,1711417051812500
-291.23,1711417051828125
-292.07,1711417051843750
-287.19,1711417051859375
-276.65,1711417051875000
-261.78,1711417051890625
-244.54,1711417051906250
-226.52,1711417051921875
-208.24,1711417051937500
-189.13,1711417051953125
-167.59,1711417051968750
-142.86,1711417051984375
-115.71,1711417052000000
-88.09,1711417052015625
-62.04,1711417052031250
-38.74,1711417052046875
-18.34,1711417052062500
-0.39,1711417052078125
15.57,1711417052093750
30.98,1711417052109375
46.64,1711417052125000
62.85,1711417052140625
79.91,1711417052156250
98.67,1711417052171875
120.55,1711417052187500
146.59,1711417052203125
176.66,1711417052218750
208.98,1711417052234375
242.31,1711417052250000
274.29,1711417052265625
302.02,1711417052281250
323.38,1711417052296875
338.33,1711417052312500
348.93,1711417052328125
357.99,1711417052343750
367.58,1711417052359375
378.14,1711417052375000
390.9,1711417052390625
404.94,1711417052406250
417.25,1711417052421875
423.87,1711417052437500
421.84,1711417052453125
410.54,1711417052468750
391.65,1711417052484375
368.48,1711417052500000
329.48,1711417052515625
271.78,1711417052531250
201.6,1711417052546875
130.56,1711417052562500
67.68,1711417052578125
16.17,1711417052593750
-24.13,1711417052609375
-54.36,1711417052625000
-76.05,1711417052640625
-91.35,1711417052656250
-100.7,1711417052671875
-105.45,1711417052687500
-107.66,1711417052703125
-109.26,1711417052718750
-111.17,1711417052734375
-113.4,1711417052750000
-116.26,1711417052765625
-121.57,1711417052781250
-131.05,1711417052796875
-144.2,1711417052812500
-159.65,1711417052828125
-175.39,1711417052843750
-188.81,1711417052859375
-196.98,1711417052875000
-197.59,1711417052890625
-190.29,1711417052906250
-176.95,1711417052921875
-160.87,1711417052937500
-144.35,1711417052953125
-128.92,1711417052968750
-115.28,1711417052984375
-103.62,1711417053000000
-93.86,1711417053015625
-85.87,1711417053031250
-80.25,1711417053046875
-77.65,1711417053062500
-78.15,1711417053078125
-80.56,1711417053093750
-83.26,1711417053109375
-84.7,1711417053125000
-83.47,1711417053140625
-78.16,1711417053156250
-67.28,1711417053171875
-49.8,1711417053187500
-25.62,1711417053203125
4.22,1711417053218750
37.85,1711417053234375
73.14,1711417053250000
108.41,1711417053265625
142.93,1711417053281250
176.71,1711417053296875
209.92,1711417053312500
242.16,1711417053328125
272.28,1711417053343750
298.6,1711417053359375
319.54,1711417053375000
334.2,1711417053390625
342.53,1711417053406250
345.14,1711417053421875
342.91,1711417053437500
336.57,1711417053453125
326.7,1711417053468750
313.75,1711417053484375
298.26,1711417053500000
280.86,1711417053515625
262.22,1711417053531250
242.89,1711417053546875
223.14,1711417053562500
202.93,1711417053578125
181.92,1711417053593750
159.6,1711417053609375
135.47,1711417053625000
109.21,1711417053640625
80.7,1711417053656250
50.13,1711417053671875
18.02,1711417053687500
-14.84,1711417053703125
-47.58,1711417053718750
-79.52,1711417053734375
-110.42,1711417053750000
-140.37,1711417053765625
-169.39,1711417053781250
-196.81,1711417053796875
-220.95,1711417053812500
-239.2,1711417053828125
-248.87,1711417053843750
-248.19,1711417053859375
-237.12,1711417053875000
-217.4,1711417053890625
-191.92,1711417053906250
-163.61,1711417053921875
-134.69,1711417053937500
-106.32,1711417053953125
-78.95,1711417053968750
-52.82,1711417053984375
-28.31,1711417054000000
-5.97,1711417054015625
13.73,1711417054031250
30.59,1711417054046875
44.67,1711417054062500
56.09,1711417054078125
64.86,1711417054093750
70.82,1711417054109375
73.81,1711417054125000
73.91,1711417054140625
71.5,1711417054156250
67.05,1711417054171875
60.71,1711417054187500
51.9,1711417054203125
39.37,1711417054218750
21.89,1711417054234375
-0.87,1711417054250000
-27.65,1711417054265625
-55.63,1711417054281250
-81.24,1711417054296875
-101.16,1711417054312500
-112.92,1711417054328125
-114.99,1711417054343750
-106.57,1711417054359375
-87.65,1711417054375000
-59.51,1711417054390625
-25.39,1711417054406250
9.39,1711417054421875
38.21,1711417054437500
54.72,1711417054453125
54.46,1711417054468750
35.74,1711417054484375
-0.39,1711417054500000
-50.92,1711417054515625
-111.44,1711417054531250
-176.19,1711417054546875
-238.07,1711417054562500
-289.11,1711417054578125
-321.65,1711417054593750
-330.49,1711417054609375
-314.59,1711417054625000
-277.96,1711417054640625
-228.76,1711417054656250
-177.07,1711417054671875
-132.01,1711417054687500
-99.61,1711417054703125
-81.96,1711417054718750
-77.57,1711417054734375
-82.98,1711417054750000
-94.39,1711417054765625
-108.58,1711417054781250
-123.18,1711417054796875
-136.22,1711417054812500
-145.81,1711417054828125
-150.16,1711417054843750
-148.19,1711417054859375
-140.16,1711417054875000
-127.88,1711417054890625
-114.14,1711417054906250
-101.71,1711417054921875
-92.47,1711417054937500
-86.98,1711417054953125
-84.67,1711417054968750
-84.44,1711417054984375
-85.12,1711417055000000
-85.85,1711417055015625
-85.85,1711417055031250
-84.15,1711417055046875
-79.38,1711417055062500
-70.13,1711417055078125
-55.62,1711417055093750
-36.41,1711417055109375
-14.59,1711417055125000
6.87,1711417055140625
25.47,1711417055156250
40.39,1711417055171875
53.17,1711417055187500
66.97,1711417055203125
85.05,1711417055218750
109.17,1711417055234375
138.64,1711417055250000
170.7,1711417055265625
201.77,1711417055281250
228.78,1711417055296875
249.88,1711417055312500
264.25,1711417055328125
271.53,1711417055343750
271.34,1711417055359375
263.46,1711417055375000
248.42,1711417055390625
227.95,1711417055406250
204.97,1711417055421875
182.85,1711417055437500
164.37,1711417055453125
150.9,1711417055468750
142.22,1711417055484375
136.85,1711417055500000
132.96,1711417055515625
129.05,1711417055531250
124.46,1711417055546875
119.41,1711417055562500
114.68,1711417055578125
111.01,1711417055593750
108.72,1711417055609375
107.53,1711417055625000
106.57,1711417055640625
104.83,1711417055656250
101.64,1711417055671875
96.85,1711417055687500
90.88,1711417055703125
84.32,1711417055718750
77.66,1711417055734375
71.07,1711417055750000
64.58,1711417055765625
58.22,1711417055781250
52.15,1711417055796875
46.75,1711417055812500
42.3,1711417055828125
38.82,1711417055843750
36.08,1711417055859375
33.62,1711417055875000
30.97,1711417055890625
27.65,1711417055906250
22.92,1711417055921875
15.59,1711417055937500
4.27,1711417055953125
-12.12,1711417055968750
-33.76,1711417055984375
-59.46,1711417056000000
-86.79,1711417056015625
-112.89,1711417056031250
-135.25,1711417056046875
-152.79,1711417056062500
-166.12,1711417056078125
-176.68,1711417056093750
-185.82,1711417056109375
-194.0,1711417056125000
-200.65,1711417056140625
-204.76,1711417056156250
-205.7,1711417056171875
-203.36,1711417056187500
-198.74,1711417056203125
-193.67,1711417056218750
-189.35,1711417056234375
-186.19,1711417056250000
-183.86,1711417056265625
-181.95,1711417056281250
-180.53,1711417056296875
-180.49,1711417056312500
-182.37,1711417056328125
-186.57,1711417056343750
-193.19,1711417056359375
-200.83,1711417056375000
-207.3,1711417056390625
-210.41,1711417056406250
-208.66,1711417056421875
-201.46,1711417056437500
-188.93,1711417056453125
-170.51,1711417056468750
-145.97,1711417056484375
-116.17,1711417056500000
-81.9,1711417056515625
-44.42,1711417056531250
-5.13,1711417056546875
34.96,1711417056562500
76.46,1711417056578125
114.89,1711417056593750
149.43,1711417056609375
183.99,1711417056625000
217.62,1711417056640625
248.16,1711417056656250
272.94,1711417056671875
289.93,1711417056687500
298.47,1711417056703125
299.29,1711417056718750
293.66,1711417056734375
283.57,1711417056750000
269.92,1711417056765625
252.08,1711417056781250
229.97,1711417056796875
204.27,1711417056812500
176.79,1711417056828125
150.03,1711417056843750
126.41,1711417056859375
107.32,1711417056875000
93.58,1711417056890625
84.53,1711417056906250
78.17,1711417056921875
72.85,1711417056937500
67.43,1711417056953125
61.36,1711417056968750
54.51,1711417056984375
46.95,1711417057000000
38.64,1711417057015625
30.03,1711417057031250
21.39,1711417057046875
12.74,1711417057062500
4.41,1711417057078125
-3.1,1711417057093750
-9.43,1711417057109375
-14.54,1711417057125000
-18.74,1711417057140625
-22.65,1711417057156250
-26.68,1711417057171875
-31.21,1711417057187500
-36.52,1711417057203125
-42.6,1711417057218750
-49.4,1711417057234375
-56.83,1711417057250000
-64.78,1711417057265625
-72.92,1711417057281250
-80.56,1711417057296875
-86.59,1711417057312500
-89.84,1711417057328125
-89.44,1711417057343750
-85.06,1711417057359375
-77.01,1711417057375000
-66.19,1711417057390625
-53.79,1711417057406250
-40.97,1711417057421875
-28.64,1711417057437500
-17.45,1711417057453125
-7.79,1711417057468750
0.09,1711417057484375
6.05,1711417057500000
10.09,1711417057515625
12.37,1711417057531250
13.22,1711417057546875
13.02,1711417057562500
12.09,1711417057578125
10.58,1711417057593750
8.49,1711417057609375
5.82,1711417057625000
2.76,1711417057640625
-0.29,1711417057656250
-2.76,1711417057671875
-4.17,1711417057687500
-4.42,1711417057703125
-3.86,1711417057718750
-3.25,1711417057734375
-3.49,1711417057750000
-5.26,1711417057765625
-8.83,1711417057781250
-13.94,1711417057796875
-19.93,1711417057812500
-26.11,1711417057828125
-31.95,1711417057843750
-37.3,1711417057859375
-42.42,1711417057875000
-47.76,1711417057890625
-53.74,1711417057906250
-60.56,1711417057921875
-68.03,1711417057937500
-75.66,1711417057953125
-82.71,1711417057968750
-88.3,1711417057984375
-91.47,1711417058000000
-91.31,1711417058015625
-87.06,1711417058031250
-78.35,1711417058046875
-65.42,1711417058062500
-49.08,1711417058078125
-30.61,1711417058093750
-11.45,1711417058109375
7.16,1711417058125000
24.34,1711417058140625
39.51,1711417058156250
52.22,1711417058171875
61.95,1711417058187500
68.13,1711417058203125
70.28,1711417058218750
68.38,1711417058234375
62.97,1711417058250000
55.15,1711417058265625
46.36,1711417058281250
37.92,1711417058296875
30.71,1711417058312500
25.09,1711417058328125
20.89,1711417058343750
17.7,1711417058359375
15.14,1711417058375000
12.95,1711417058390625
11.04,1711417058406250
9.4,1711417058421875
7.98,1711417058437500
6.64,1711417058453125
5.24,1711417058468750
3.62,1711417058484375
1.73,1711417058500000
-0.49,1711417058515625
-3.17,1711417058531250
-6.55,1711417058546875
-10.93,1711417058562500
-16.58,1711417058578125
-23.61,1711417058593750
-31.81,1711417058609375
-40.59,1711417058625000
-49.01,1711417058640625
-55.81,1711417058656250
-59.72,1711417058671875
-59.77,1711417058687500
-55.68,1711417058703125
-47.9,1711417058718750
-37.54,1711417058734375
-25.88,1711417058750000
-13.96,1711417058765625
-2.41,1711417058781250
8.54,1711417058796875
18.74,1711417058812500
27.8,1711417058828125
35.1,1711417058843750
40.05,1711417058859375
42.37,1711417058875000
42.29,1711417058890625
40.37,1711417058906250
37.3,1711417058921875
33.59,1711417058937500
29.62,1711417058953125
25.69,1711417058968750
22.13,1711417058984375
19.33,1711417059000000
17.51,1711417059015625
16.57,1711417059031250
16.13,1711417059046875
15.56,1711417059062500
14.37,1711417059078125
12.32,1711417059093750
9.45,1711417059109375
5.96,1711417059125000
1.99,1711417059140625
-2.44,1711417059156250
-7.42,1711417059171875
-13.02,1711417059187500
-19.25,1711417059203125
-26.11,1711417059218750
-33.63,1711417059234375
-41.92,1711417059250000
-51.01,1711417059265625
-60.6,1711417059281250
-69.87,1711417059296875
-77.46,1711417059312500
-81.78,1711417059328125
-81.51,1711417059343750
-76.12,1711417059359375
-66.06,1711417059375000
-52.64,1711417059390625
-37.56,1711417059406250
-22.36,1711417059421875
-8.07,1711417059437500
4.84,1711417059453125
16.24,1711417059468750
26.02,1711417059484375
33.94,1711417059500000
39.67,1711417059515625
42.93,1711417059531250
43.81,1711417059546875
42.76,1711417059562500
40.57,1711417059578125
38.08,1711417059593750
35.88,1711417059609375
34.22,1711417059625000
32.87,1711417059640625
31.43,1711417059656250
29.45,1711417059671875
26.74,1711417059687500
23.37,1711417059703125
19.58,1711417059718750
15.67,1711417059734375
11.79,1711417059750000
7.89,1711417059765625
3.88,1711417059781250
-0.28,1711417059796875
-4.61,1711417059812500
-9.09,1711417059828125
-13.91,1711417059843750
-19.46,1711417059859375
-26.25,1711417059875000
-34.49,1711417059890625
-43.8,1711417059906250
-53.03,1711417059921875
-60.48,1711417059937500
-64.41,1711417059953125
-63.58,1711417059968750
-57.73,1711417059984375
-47.59,1711417060000000
-34.55,1711417060015625
-20.29,1711417060031250
-6.33,1711417060046875
6.27,1711417060062500
16.98,1711417060078125
25.69,1711417060093750
32.5,1711417060109375
37.57,1711417060125000
41.02,1711417060140625
42.93,1711417060156250
43.44,1711417060171875
42.77,1711417060187500
41.2,1711417060203125
38.94,1711417060218750
36.08,1711417060234375
32.71,1711417060250000
28.97,1711417060265625
25.16,1711417060281250
21.71,1711417060296875
18.93,1711417060312500
16.82,1711417060328125
15.01,1711417060343750
12.9,1711417060359375
9.97,1711417060375000
6.09,1711417060390625
1.49,1711417060406250
-3.35,1711417060421875
-8.05,1711417060437500
-12.48,1711417060453125
-16.83,1711417060468750
-21.36,1711417060484375
-26.39,1711417060500000
-32.04,1711417060515625
-38.2,1711417060531250
-44.45,1711417060546875
-50.0,1711417060562500
-53.69,1711417060578125
-54.24,1711417060593750
-50.65,1711417060609375
-42.57,1711417060625000
-30.55,1711417060640625
-15.94,1711417060656250
-0.46,1711417060671875
14.36,1711417060687500
27.48,1711417060703125
38.43,1711417060718750
47.15,1711417060734375
53.76,1711417060750000
58.38,1711417060765625
61.15,1711417060781250
62.28,1711417060796875
62.08,1711417060812500
60.95,1711417060828125
59.25,1711417060843750
57.33,1711417060859375
55.38,1711417060875000
53.56,1711417060890625
51.94,1711417060906250
50.5,1711417060921875
49.1,1711417060937500
47.42,1711417060953125
45.14,1711417060968750
41.98,1711417060984375
37.9,1711417061000000
33.06,1711417061015625
27.83,1711417061031250
22.53,1711417061046875
17.35,1711417061062500
12.3,1711417061078125
7.26,1711417061093750
2.1,1711417061109375
-3.31,1711417061125000
-9.06,1711417061140625
-15.31,1711417061156250
-22.18,1711417061171875
-29.64,1711417061187500
-37.2,1711417061203125
-43.82,1711417061218750
-48.03,1711417061234375
-48.3,1711417061250000
-43.74,1711417061265625
-34.47,1711417061281250
-21.68,1711417061296875
-7.24,1711417061312500
7.02,1711417061328125
19.75,1711417061343750
30.4,1711417061359375
39.0,1711417061375000
45.73,1711417061390625
50.65,1711417061406250
53.67,1711417061421875
54.64,1711417061437500
53.68,1711417061453125
51.29,1711417061468750
48.24,1711417061484375
45.35,1711417061500000
43.11,1711417061515625
41.58,1711417061531250
40.38,1711417061546875
38.95,1711417061562500
36.81,1711417061578125
33.77,1711417061593750
29.97,1711417061609375
25.8,1711417061625000
21.64,1711417061640625
17.68,1711417061656250
13.87,1711417061671875
9.86,1711417061687500
5.22,1711417061703125
-0.5,1711417061718750
-7.61,1711417061734375
-16.22,1711417061750000
-26.25,1711417061765625
-37.41,1711417061781250
-49.16,1711417061796875
-60.65,1711417061812500
-70.73,1711417061828125
-78.05,1711417061843750
-81.33,1711417061859375
-79.66,1711417061875000
-72.86,1711417061890625
-61.67,1711417061906250
-47.56,1711417061921875
-32.34,1711417061937500
-17.57,1711417061953125
-4.21,1711417061968750
7.53,1711417061984375
17.83,1711417062000000
26.86,1711417062015625
34.47,1711417062031250
40.17,1711417062046875
43.4,1711417062062500
43.98,1711417062078125
42.26,1711417062093750
39.1,1711417062109375
35.58,1711417062125000
32.65,1711417062140625
30.8,1711417062156250
29.99,1711417062171875
29.81,1711417062187500
29.63,1711417062203125
28.94,1711417062218750
27.38,1711417062234375
24.86,1711417062250000
21.45,1711417062265625
17.29,1711417062281250
12.5,1711417062296875
7.2,1711417062312500
1.46,1711417062328125
-4.6,1711417062343750
-10.86,1711417062359375
-17.3,1711417062375000
-24.02,1711417062390625
-31.25,1711417062406250
-39.12,1711417062421875
-47.36,1711417062437500
-55.09,1711417062453125
-60.92,1711417062468750
-63.27,1711417062484375
-60.96,1711417062500000
-53.61,1711417062515625
-41.85,1711417062531250
-27.1,1711417062546875
-11.12,1711417062562500
4.52,1711417062578125
18.71,1711417062593750
30.86,1711417062609375
40.7,1711417062625000
48.09,1711417062640625
52.94,1711417062656250
55.24,1711417062671875
55.26,1711417062687500
53.63,1711417062703125
51.22,1711417062718750
48.95,1711417062734375
47.4,1711417062750000
46.71,1711417062765625
46.52,1711417062781250
46.22,1711417062796875
45.28,1711417062812500
43.46,1711417062828125
40.91,1711417062843750
38.02,1711417062859375
35.17,1711417062875000
32.45,1711417062890625
29.58,1711417062906250
26.04,1711417062921875
21.34,1711417062937500
15.28,1711417062953125
8.15,1711417062968750
0.65,1711417062984375
-6.37,1711417063000000
-12.28,1711417063015625
-16.98,1711417063031250
-20.93,1711417063046875
-24.97,1711417063062500
-30.04,1711417063078125
-36.8,1711417063093750
-45.44,1711417063109375
-55.69,1711417063125000
-66.77,1711417063140625
-77.49,1711417063156250
-86.29,1711417063171875
-91.48,1711417063187500
-91.57,1711417063203125
-85.74,1711417063218750
-74.24,1711417063234375
-58.39,1711417063250000
-40.25,1711417063265625
-21.97,1711417063281250
-5.11,1711417063296875
9.64,1711417063312500
22.3,1711417063328125
33.2,1711417063343750
42.52,1711417063359375
50.12,1711417063375000
55.66,1711417063390625
58.96,1711417063406250
60.21,1711417063421875
59.98,1711417063437500
59.04,1711417063453125
57.96,1711417063468750
56.99,1711417063484375
56.04,1711417063500000
54.89,1711417063515625
53.44,1711417063531250
51.86,1711417063546875
50.41,1711417063562500
49.28,1711417063578125
48.37,1711417063593750
47.24,1711417063609375
45.36,1711417063625000
42.36,1711417063640625
38.27,1711417063656250
33.56,1711417063671875
28.91,1711417063687500
24.78,1711417063703125
21.25,1711417063718750
17.91,1711417063734375
14.15,1711417063750000
9.47,1711417063765625
3.76,1711417063781250
-2.65,1711417063796875
-9.24,1711417063812500
-15.6,1711417063828125
-21.64,1711417063843750
-27.6,1711417063859375
-33.96,1711417063875000
-41.19,1711417063890625
-49.58,1711417063906250
-59.14,1711417063921875
-69.52,1711417063937500
-79.89,1711417063953125
-89.0,1711417063968750
-95.31,1711417063984375
-97.28,1711417064000000
-93.94,1711417064015625
-85.18,1711417064031250
-71.84,1711417064046875
-55.45,1711417064062500
-37.8,1711417064078125
-20.42,1711417064093750
-4.31,1711417064109375
9.99,1711417064125000
22.29,1711417064140625
32.46,1711417064156250
40.36,1711417064171875
45.9,1711417064187500
49.16,1711417064203125
50.52,1711417064218750
50.57,1711417064234375
50.04,1711417064250000
49.53,1711417064265625
49.34,1711417064281250
49.44,1711417064296875
49.51,1711417064312500
49.21,1711417064328125
48.33,1711417064343750
46.89,1711417064359375
45.09,1711417064375000
43.09,1711417064390625
40.83,1711417064406250
38.06,1711417064421875
34.42,1711417064437500
29.65,1711417064453125
23.85,1711417064468750
17.41,1711417064484375
10.91,1711417064500000
4.87,1711417064515625
-0.54,1711417064531250
-5.58,1711417064546875
-10.81,1711417064562500
-16.82,1711417064578125
-23.94,1711417064593750
-32.08,1711417064609375
-40.68,1711417064625000
-49.04,1711417064640625
-56.55,1711417064656250
-62.93,1711417064671875
-68.27,1711417064687500
-72.97,1711417064703125
-77.46,1711417064718750
-82.03,1711417064734375
-86.68,1711417064750000
-91.05,1711417064765625
-94.32,1711417064781250
-95.25,1711417064796875
-92.34,1711417064812500
-84.24,1711417064828125
-70.22,1711417064843750
-50.59,1711417064859375
-26.89,1711417064875000
-1.61,1711417064890625
22.46,1711417064906250
43.0,1711417064921875
58.75,1711417064937500
69.74,1711417064953125
77.1,1711417064968750
82.51,1711417064984375
87.59,1711417065000000
93.37,1711417065015625
100.1,1711417065031250
107.3,1711417065046875
114.08,1711417065062500
119.59,1711417065078125
123.4,1711417065093750
125.58,1711417065109375
126.66,1711417065125000
127.21,1711417065140625
127.62,1711417065156250
127.86,1711417065171875
127.68,1711417065187500
126.76,1711417065203125
124.98,1711417065218750
122.42,1711417065234375
119.18,1711417065250000
115.17,1711417065265625
110.02,1711417065281250
103.25,1711417065296875
94.58,1711417065312500
84.28,1711417065328125
73.15,1711417065343750
62.39,1711417065359375
53.06,1711417065375000
45.7,1711417065390625
40.14,1711417065406250
35.64,1711417065421875
31.28,1711417065437500
26.21,1711417065453125
19.94,1711417065468750
12.29,1711417065484375
3.41,1711417065500000
-6.38,1711417065515625
-16.66,1711417065531250
-27.14,1711417065546875
-37.87,1711417065562500
-49.4,1711417065578125
-62.72,1711417065593750
-78.92,1711417065609375
-98.57,1711417065625000
-121.28,1711417065640625
-145.51,1711417065656250
-168.91,1711417065671875
-188.8,1711417065687500
-202.75,1711417065703125
-208.97,1711417065718750
-206.48,1711417065734375
-195.29,1711417065750000
-176.36,1711417065765625
-151.45,1711417065781250
-122.72,1711417065796875
-91.97,1711417065812500
-60.0,1711417065828125
-26.32,1711417065843750
10.29,1711417065859375
50.65,1711417065875000
93.95,1711417065890625
137.2,1711417065906250
175.76,1711417065921875
204.84,1711417065937500
221.2,1711417065953125
224.18,1711417065968750
215.72,1711417065984375
199.29,1711417066000000
178.59,1711417066015625
156.58,1711417066031250
135.26,1711417066046875
116.11,1711417066062500
100.51,1711417066078125
89.67,1711417066093750
84.03,1711417066109375
82.53,1711417066125000
82.51,1711417066140625
80.48,1711417066156250
73.35,1711417066171875
59.51,1711417066187500
38.97,1711417066203125
12.67,1711417066218750
-18.41,1711417066234375
-53.79,1711417066250000
-93.02,1711417066265625
-134.76,1711417066281250
-176.14,1711417066296875
-213.21,1711417066312500
-242.3,1711417066328125
-261.79,1711417066343750
-272.98,1711417066359375
-279.56,1711417066375000
-285.85,1711417066390625
-294.77,1711417066406250
-306.38,1711417066421875
-317.72,1711417066437500
-323.78,1711417066453125
-319.17,1711417066468750
-299.59,1711417066484375
-262.94,1711417066500000
-209.67,1711417066515625
-142.6,1711417066531250
-66.35,1711417066546875
13.48,1711417066562500
91.13,1711417066578125
161.46,1711417066593750
220.49,1711417066609375
265.88,1711417066625000
296.95,1711417066640625
314.56,1711417066656250
320.87,1711417066671875
318.71,1711417066687500
311.06,1711417066703125
300.39,1711417066718750
288.22,1711417066734375
275.02,1711417066750000
260.42,1711417066765625
243.78,1711417066781250
224.64,1711417066796875
203.15,1711417066812500
180.12,1711417066828125
156.68,1711417066843750
133.88,1711417066859375
112.34,1711417066875000
92.07,1711417066890625
72.68,1711417066906250
53.63,1711417066921875
34.53,1711417066937500
15.33,1711417066953125
-3.73,1711417066968750
-22.26,1711417066984375
-39.87,1711417067000000
-56.2,1711417067015625
-70.94,1711417067031250
-83.82,1711417067046875
-94.62,1711417067062500
-103.33,1711417067078125
-110.18,1711417067093750
-115.69,1711417067109375
-120.58,1711417067125000
-125.62,1711417067140625
-131.44,1711417067156250
-138.51,1711417067171875
-147.08,1711417067187500
-157.13,1711417067203125
-168.36,1711417067218750
-179.99,1711417067234375
-190.74,1711417067250000
-198.78,1711417067265625
-202.12,1711417067281250
-198.98,1711417067296875
-188.51,1711417067312500
-171.06,1711417067328125
-148.33,1711417067343750
-122.95,1711417067359375
-97.76,1711417067375000
-75.05,1711417067390625
-56.01,1711417067406250
-40.65,1711417067421875
-28.19,1711417067437500
-17.71,1711417067453125
-8.71,1711417067468750
-1.21,1711417067484375
4.38,1711417067500000
7.83,1711417067515625
9.3,1711417067531250
9.48,1711417067546875
9.21,1711417067562500
9.16,1711417067578125
9.51,1711417067593750
9.99,1711417067609375
10.02,1711417067625000
9.05,1711417067640625
6.75,1711417067656250
3.08,1711417067671875
-1.74,1711417067687500
-7.29,1711417067703125
-13.06,1711417067718750
-18.64,1711417067734375
-23.9,1711417067750000
-29.05,1711417067765625
-34.64,1711417067781250
-41.31,1711417067796875
-49.45,1711417067812500
-59.01,1711417067828125
-69.47,1711417067843750
-80.12,1711417067859375
-90.41,1711417067875000
-100.16,1711417067890625
-109.54,1711417067906250
-118.92,1711417067921875
-128.67,1711417067937500
-139.04,1711417067953125
-150.23,1711417067968750
-162.27,1711417067984375
-174.84,1711417068000000
-186.94,1711417068015625
-196.74,1711417068031250
-201.73,1711417068046875
-199.43,1711417068062500
-188.27,1711417068078125
-168.3,1711417068093750
-141.32,1711417068109375
-110.4,1711417068125000
-78.83,1711417068140625
-49.25,1711417068156250
-23.07,1711417068171875
-0.51,1711417068187500
18.77,1711417068203125
35.2,1711417068218750
48.89,1711417068234375
59.66,1711417068250000
67.29,1711417068265625
71.85,1711417068281250
73.75,1711417068296875
73.73,1711417068312500
72.52,1711417068328125
70.7,1711417068343750
68.63,1711417068359375
66.47,1711417068375000
64.27,1711417068390625
62.09,1711417068406250
59.96,1711417068421875
57.84,1711417068437500
55.67,1711417068453125
53.34,1711417068468750
50.7,1711417068484375
47.67,1711417068500000
44.25,1711417068515625
40.5,1711417068531250
36.59,1711417068546875
32.66,1711417068562500
28.79,1711417068578125
24.92,1711417068593750
20.84,1711417068609375
16.28,1711417068625000
11.1,1711417068640625
5.29,1711417068656250
-0.91,1711417068671875
-7.14,1711417068687500
-13.08,1711417068703125
-18.65,1711417068718750
-24.06,1711417068734375
-29.85,1711417068750000
-36.69,1711417068765625
-45.11,1711417068781250
-55.09,1711417068796875
-65.78,1711417068812500
-75.46,1711417068828125
-81.86,1711417068843750
-82.89,1711417068859375
-77.35,1711417068875000
-65.46,1711417068890625
-48.8,1711417068906250
-29.71,1711417068921875
-10.59,1711417068937500
6.87,1711417068953125
21.82,1711417068968750
34.06,1711417068984375
43.57,1711417069000000
50.25,1711417069015625
53.93,1711417069031250
54.64,1711417069046875
52.85,1711417069062500
49.58,1711417069078125
46.06,1711417069093750
43.39,1711417069109375
42.13,1711417069125000
42.22,1711417069140625
43.16,1711417069156250
44.25,1711417069171875
44.93,1711417069187500
44.89,1711417069203125
44.04,1711417069218750
42.45,1711417069234375
40.29,1711417069250000
37.69,1711417069265625
34.75,1711417069281250
31.53,1711417069296875
27.95,1711417069312500
23.85,1711417069328125
19.03,1711417069343750
13.43,1711417069359375
7.12,1711417069375000
0.42,1711417069390625
-6.22,1711417069406250
-12.4,1711417069421875
-17.88,1711417069437500
-22.78,1711417069453125
-27.53,1711417069468750
-32.71,1711417069484375
-38.96,1711417069500000
-46.79,1711417069515625
-56.4,1711417069531250
-67.55,1711417069546875
-79.46,1711417069562500
-90.74,1711417069578125
-99.56,1711417069593750
-104.07,1711417069609375
-102.95,1711417069625000
-95.8,1711417069640625
-83.36,1711417069656250
-67.26,1711417069671875
-49.51,1711417069687500
-31.89,1711417069703125
-15.65,1711417069718750
-1.36,1711417069734375
10.89,1711417069750000
21.11,1711417069765625
29.33,1711417069781250
35.49,1711417069796875
39.66,1711417069812500
42.1,1711417069828125
43.37,1711417069843750
44.26,1711417069859375
45.46,1711417069875000
47.38,1711417069890625
49.96,1711417069906250
52.77,1711417069921875
55.23,1711417069937500
56.88,1711417069953125
57.59,1711417069968750
57.49,1711417069984375
56.8,1711417070000000
55.72,1711417070015625
54.26,1711417070031250
52.35,1711417070046875
49.86,1711417070062500
46.67,1711417070078125
42.71,1711417070093750
37.93,1711417070109375
32.42,1711417070125000
26.34,1711417070140625
20.04,1711417070156250
13.93,1711417070171875
8.29,1711417070187500
3.18,1711417070203125
-1.69,1711417070218750
-6.88,1711417070234375
-13.0,1711417070250000
-20.51,1711417070265625
-29.39,1711417070281250
-38.93,1711417070296875
-47.71,1711417070312500
-53.78,1711417070328125
-55.16,1711417070343750
-50.38,1711417070359375
-38.85,1711417070375000
-21.03,1711417070390625
1.77,1711417070406250
27.77,1711417070421875
55.03,1711417070437500
81.75,1711417070453125
106.38,1711417070468750
127.67,1711417070484375
144.73,1711417070500000
157.11,1711417070515625
164.76,1711417070531250
167.9,1711417070546875
166.79,1711417070562500
161.55,1711417070578125
152.17,1711417070593750
138.62,1711417070609375
121.14,1711417070625000
100.4,1711417070640625
77.51,1711417070656250
53.93,1711417070671875
31.29,1711417070687500
11.07,1711417070703125
-5.62,1711417070718750
-18.28,1711417070734375
-27.07,1711417070750000
-32.8,1711417070765625
-36.66,1711417070781250
-39.86,1711417070796875
-43.39,1711417070812500
-47.69,1711417070828125
-52.76,1711417070843750
-58.23,1711417070859375
-63.61,1711417070875000
-68.49,1711417070890625
-72.66,1711417070906250
-76.19,1711417070921875
-79.4,1711417070937500
-82.8,1711417070953125
-87.02,1711417070968750
-92.65,1711417070984375
-100.01,1711417071000000
-108.79,1711417071015625
-117.88,1711417071031250
-125.32,1711417071046875
-128.74,1711417071062500
-126.16,1711417071078125
-116.71,1711417071093750
-101.18,1711417071109375
-81.75,1711417071125000
-61.27,1711417071140625
-42.23,1711417071156250
-25.93,1711417071171875
-12.42,1711417071187500
-0.91,1711417071203125
9.43,1711417071218750
18.9,1711417071234375
27.2,1711417071250000
33.8,1711417071265625
38.45,1711417071281250
41.41,1711417071296875
43.45,1711417071312500
45.39,1711417071328125
47.8,1711417071343750
50.77,1711417071359375
53.99,1711417071375000
56.95,1711417071390625
59.23,1711417071406250
60.66,1711417071421875
61.31,1711417071437500
61.38,1711417071453125
61.07,1711417071468750
60.44,1711417071484375
59.37,1711417071500000
57.65,1711417071515625
54.97,1711417071531250
51.18,1711417071546875
46.27,1711417071562500
40.46,1711417071578125
34.13,1711417071593750
27.71,1711417071609375
21.52,1711417071625000
15.66,1711417071640625
10.02,1711417071656250
4.31,1711417071671875
-1.77,1711417071687500
-8.46,1711417071703125
-15.9,1711417071718750
-24.12,1711417071734375
-33.07,1711417071750000
-42.54,1711417071765625
-52.0,1711417071781250
-60.47,1711417071796875
-66.6,1711417071812500
-68.89,1711417071828125
-66.15,1711417071843750
-57.97,1711417071859375
-44.98,1711417071875000
-28.7,1711417071890625
-11.1,1711417071906250
5.97,1711417071921875
21.21,1711417071937500
33.97,1711417071953125
44.15,1711417071968750
51.97,1711417071984375
57.66,1711417072000000
61.46,1711417072015625
63.6,1711417072031250
64.39,1711417072046875
64.24,1711417072062500
63.61,1711417072078125
62.88,1711417072093750
62.29,1711417072109375
61.88,1711417072125000
61.48,1711417072140625
60.83,1711417072156250
59.69,1711417072171875
57.92,1711417072187500
55.5,1711417072203125
52.55,1711417072218750
49.21,1711417072234375
45.55,1711417072250000
41.55,1711417072265625
37.15,1711417072281250
32.37,1711417072296875
27.35,1711417072312500
22.3,1711417072328125
17.4,1711417072343750
12.72,1711417072359375
8.14,1711417072375000
3.49,1711417072390625
-1.45,1711417072406250
-6.73,1711417072421875
-12.35,1711417072437500
-18.2,1711417072453125
-24.28,1711417072468750
-30.68,1711417072484375
-37.6,1711417072500000
-45.23,1711417072515625
-53.53,1711417072531250
-62.1,1711417072546875
-70.03,1711417072562500
-76.01,1711417072578125
-78.64,1711417072593750
-76.8,1711417072609375
-70.09,1711417072625000
-58.99,1711417072640625
-44.82,1711417072656250
-29.24,1711417072671875
-13.89,1711417072687500
0.02,1711417072703125
11.79,1711417072718750
21.17,1711417072734375
28.14,1711417072750000
32.83,1711417072765625
35.46,1711417072781250
36.4,1711417072796875
36.19,1711417072812500
35.45,1711417072828125
34.82,1711417072843750
34.76,1711417072859375
35.5,1711417072875000
36.87,1711417072890625
38.45,1711417072906250
39.68,1711417072921875
40.08,1711417072937500
39.48,1711417072953125
38.0,1711417072968750
36.05,1711417072984375
33.99,1711417073000000
32.01,1711417073015625
29.94,1711417073031250
27.39,1711417073046875
23.95,1711417073062500
19.44,1711417073078125
14.01,1711417073093750
8.06,1711417073109375
2.03,1711417073125000
-3.75,1711417073140625
-9.19,1711417073156250
-14.44,1711417073171875
-19.85,1711417073187500
-25.79,1711417073203125
-32.64,1711417073218750
-40.6,1711417073234375
-49.62,1711417073250000
-59.27,1711417073265625
-68.66,1711417073281250
-76.51,1711417073296875
-81.39,1711417073312500
-82.05,1711417073328125
-77.82,1711417073343750
-68.91,1711417073359375
-56.3,1711417073375000
-41.57,1711417073390625
-26.37,1711417073406250
-12.01,1711417073421875
0.74,1711417073437500
11.58,1711417073453125
20.48,1711417073468750
27.43,1711417073484375
32.41,1711417073500000
35.49,1711417073515625
36.95,1711417073531250
37.33,1711417073546875
37.28,1711417073562500
37.42,1711417073578125
38.01,1711417073593750
39.04,1711417073609375
40.15,1711417073625000
40.92,1711417073640625
41.01,1711417073656250
40.26,1711417073671875
38.75,1711417073687500
36.74,1711417073703125
34.53,1711417073718750
32.37,1711417073734375
30.27,1711417073750000
28.01,1711417073765625
25.16,1711417073781250
21.37,1711417073796875
16.5,1711417073812500
10.77,1711417073828125
4.71,1711417073843750
-1.11,1711417073859375
-6.3,1711417073875000
-10.86,1711417073890625
-15.13,1711417073906250
-19.64,1711417073921875
-24.96,1711417073937500
-31.48,1711417073953125
-39.33,1711417073968750
-48.31,1711417073984375
-57.76,1711417074000000
-66.63,1711417074015625
-73.48,1711417074031250
-76.84,1711417074046875
-75.58,1711417074062500
-69.29,1711417074078125
-58.48,1711417074093750
-44.39,1711417074109375
-28.64,1711417074125000
-12.79,1711417074140625
2.05,1711417074156250
15.23,1711417074171875
26.51,1711417074187500
35.79,1711417074203125
42.99,1711417074218750
48.03,1711417074234375
50.95,1711417074250000
51.98,1711417074265625
51.64,1711417074281250
50.61,1711417074296875
49.57,1711417074312500
48.97,1711417074328125
48.92,1711417074343750
49.18,1711417074359375
49.43,1711417074375000
49.27,1711417074390625
48.53,1711417074406250
47.19,1711417074421875
45.29,1711417074437500
42.88,1711417074453125
39.94,1711417074468750
36.37,1711417074484375
32.14,1711417074500000
27.22,1711417074515625
21.7,1711417074531250
15.7,1711417074546875
9.39,1711417074562500
3.0,1711417074578125
-3.22,1711417074593750
-9.04,1711417074609375
-14.32,1711417074625000
-19.18,1711417074640625
-23.97,1711417074656250
-29.21,1711417074671875
-35.42,1711417074687500
-42.96,1711417074703125
-51.78,1711417074718750
-61.38,1711417074734375
-70.76,1711417074750000
-78.58,1711417074765625
-83.4,1711417074781250
-84.04,1711417074796875
-79.97,1711417074812500
-71.48,1711417074828125
-59.61,1711417074843750
-45.8,1711417074859375
-31.52,1711417074875000
-17.91,1711417074890625
-5.65,1711417074906250
4.87,1711417074921875
13.44,1711417074937500
19.85,1711417074953125
24.01,1711417074968750
26.04,1711417074984375
26.41,1711417075000000
25.82,1711417075015625
25.05,1711417075031250
24.65,1711417075046875
24.84,1711417075062500
25.47,1711417075078125
26.22,1711417075093750
26.76,1711417075109375
26.94,1711417075125000
26.78,1711417075140625
26.38,1711417075156250
25.77,1711417075171875
24.88,1711417075187500
23.5,1711417075203125
21.39,1711417075218750
18.41,1711417075234375
14.58,1711417075250000
10.04,1711417075265625
5.02,1711417075281250
-0.24,1711417075296875
-5.55,1711417075312500
-10.75,1711417075328125
-15.73,1711417075343750
-20.48,1711417075359375
-25.11,1711417075375000
-29.93,1711417075390625
-35.39,1711417075406250
-41.94,1711417075421875
-49.77,1711417075437500
-58.61,1711417075453125
-67.53,1711417075468750
-75.08,1711417075484375
-79.6,1711417075500000
-79.72,1711417075515625
-74.82,1711417075531250
-65.29,1711417075546875
-52.33,1711417075562500
-37.64,1711417075578125
-22.86,1711417075593750
-9.24,1711417075609375
2.57,1711417075625000
12.3,1711417075640625
19.95,1711417075656250
25.49,1711417075671875
28.94,1711417075687500
30.5,1711417075703125
30.61,1711417075718750
29.97,1711417075734375
29.32,1711417075750000
29.18,1711417075765625
29.66,1711417075781250
30.44,1711417075796875
31.02,1711417075812500
31.02,1711417075828125
30.41,1711417075843750
29.45,1711417075859375
28.55,1711417075875000
27.93,1711417075890625
27.39,1711417075906250
26.35,1711417075921875
24.1,1711417075937500
20.14,1711417075953125
14.42,1711417075968750
7.46,1711417075984375
0.07,1711417076000000
-6.9,1711417076015625
-12.9,1711417076031250
-17.85,1711417076046875
-22.09,1711417076062500
-26.29,1711417076078125
-31.16,1711417076093750
-37.32,1711417076109375
-45.09,1711417076125000
-54.36,1711417076140625
-64.42,1711417076156250
-73.95,1711417076171875
-81.22,1711417076187500
-84.51,1711417076203125
-82.6,1711417076218750
-75.21,1711417076234375
-63.14,1711417076250000
-48.01,1711417076265625
-31.7,1711417076281250
-15.88,1711417076296875
-1.67,1711417076312500
10.42,1711417076328125
20.27,1711417076343750
27.94,1711417076359375
33.52,1711417076375000
37.14,1711417076390625
39.09,1711417076406250
39.91,1711417076421875
40.25,1711417076437500
40.71,1711417076453125
41.6,1711417076468750
42.89,1711417076484375
44.17,1711417076500000
44.91,1711417076515625
44.74,1711417076531250
43.56,1711417076546875
41.66,1711417076562500
39.45,1711417076578125
37.25,1711417076593750
35.16,1711417076609375
32.91,1711417076625000
30.07,1711417076640625
26.26,1711417076656250
21.3,1711417076671875
15.36,1711417076687500
8.91,1711417076703125
2.48,1711417076718750
-3.48,1711417076734375
-8.81,1711417076750000
-13.72,1711417076765625
-18.74,1711417076781250
-24.54,1711417076796875
-31.78,1711417076812500
-40.81,1711417076828125
-51.48,1711417076843750
-62.93,1711417076859375
-73.68,1711417076875000
-81.9,1711417076890625
-85.82,1711417076906250
-84.35,1711417076921875
-77.41,1711417076937500
-65.92,1711417076953125
-51.58,1711417076968750
-36.19,1711417076984375
-21.3,1711417077000000
-7.84,1711417077015625
3.82,1711417077031250
13.54,1711417077046875
21.3,1711417077062500
27.01,1711417077078125
30.68,1711417077093750
32.53,1711417077109375
33.03,1711417077125000
32.85,1711417077140625
32.65,1711417077156250
32.89,1711417077171875
33.69,1711417077187500
34.86,1711417077203125
35.99,1711417077218750
36.62,1711417077234375
36.4,1711417077250000
35.23,1711417077265625
33.21,1711417077281250
30.62,1711417077296875
27.72,1711417077312500
24.62,1711417077328125
21.16,1711417077343750
17.06,1711417077359375
12.05,1711417077375000
6.07,1711417077390625
-0.58,1711417077406250
-7.44,1711417077421875
-14.05,1711417077437500
-20.18,1711417077453125
-26.01,1711417077468750
-31.95,1711417077484375
-38.63,1711417077500000
-46.53,1711417077515625
-55.91,1711417077531250
-66.65,1711417077546875
-78.14,1711417077562500
-89.32,1711417077578125
-98.7,1711417077593750
-104.66,1711417077609375
-105.8,1711417077625000
-101.39,1711417077640625
-91.62,1711417077656250
-77.54,1711417077671875
-60.76,1711417077687500
-42.96,1711417077703125
-25.56,1711417077718750
-9.54,1711417077734375
4.48,1711417077750000
16.18,1711417077765625
25.38,1711417077781250
32.11,1711417077796875
36.59,1711417077812500
39.22,1711417077828125
40.54,1711417077843750
41.11,1711417077859375
41.39,1711417077875000
41.73,1711417077890625
42.28,1711417077906250
43.0,1711417077921875
43.71,1711417077937500
44.14,1711417077953125
44.06,1711417077968750
43.49,1711417077984375
42.62,1711417078000000
41.8,1711417078015625
41.31,1711417078031250
41.09,1711417078046875
40.7,1711417078062500
39.44,1711417078078125
36.74,1711417078093750
32.43,1711417078109375
26.93,1711417078125000
21.03,1711417078140625
15.53,1711417078156250
10.86,1711417078171875
6.86,1711417078187500
2.93,1711417078203125
-1.58,1711417078218750
-7.21,1711417078234375
-14.16,1711417078250000
-22.43,1711417078265625
-31.92,1711417078281250
-42.48,1711417078296875
-53.69,1711417078312500
-64.67,1711417078328125
-74.01,1711417078343750
-80.03,1711417078359375
-81.3,1711417078375000
-77.06,1711417078390625
-67.58,1711417078406250
-54.02,1711417078421875
-38.03,1711417078437500
-21.26,1711417078453125
-4.96,1711417078468750
10.11,1711417078484375
23.61,1711417078500000
35.3,1711417078515625
44.93,1711417078531250
52.2,1711417078546875
56.95,1711417078562500
59.38,1711417078578125
60.09,1711417078593750
60.02,1711417078609375
60.02,1711417078625000
60.6,1711417078640625
61.64,1711417078656250
62.59,1711417078671875
62.78,1711417078687500
61.74,1711417078703125
59.47,1711417078718750
56.31,1711417078734375
52.71,1711417078750000
48.9,1711417078765625
44.87,1711417078781250
40.34,1711417078796875
35.12,1711417078812500
29.33,1711417078828125
23.41,1711417078843750
18.02,1711417078859375
13.67,1711417078875000
10.5,1711417078890625
8.13,1711417078906250
5.88,1711417078921875
3.04,1711417078937500
-0.82,1711417078953125
-5.6,1711417078968750
-10.82,1711417078984375
-15.9,1711417079000000
-20.39,1711417079015625
-24.3,1711417079031250
-28.06,1711417079046875
-32.39,1711417079062500
-38.08,1711417079078125
-45.61,1711417079093750
-54.86,1711417079109375
-64.9,1711417079125000
-74.07,1711417079140625
-80.38,1711417079156250
-82.03,1711417079171875
-78.1,1711417079187500
-68.77,1711417079203125
-55.35,1711417079218750
-39.68,1711417079234375
-23.56,1711417079250000
-8.32,1711417079265625
5.42,1711417079281250
17.47,1711417079296875
27.78,1711417079312500
36.28,1711417079328125
42.88,1711417079343750
47.62,1711417079359375
50.83,1711417079375000
53.14,1711417079390625
55.2,1711417079406250
57.55,1711417079421875
60.28,1711417079437500
63.14,1711417079453125
65.63,1711417079468750
67.36,1711417079484375
68.17,1711417079500000
68.22,1711417079515625
67.83,1711417079531250
67.29,1711417079546875
66.68,1711417079562500
65.76,1711417079578125
64.14,1711417079593750
61.42,1711417079609375
57.44,1711417079625000
52.36,1711417079640625
46.66,1711417079656250
40.93,1711417079671875
35.68,1711417079687500
31.18,1711417079703125
27.25,1711417079718750
23.52,1711417079734375
19.48,1711417079750000
14.79,1711417079765625
9.46,1711417079781250
3.76,1711417079796875
-1.85,1711417079812500
-7.01,1711417079828125
-11.61,1711417079843750
-15.94,1711417079859375
-20.51,1711417079875000
-25.97,1711417079890625
-32.83,1711417079906250
-41.28,1711417079921875
-51.04,1711417079937500
-61.23,1711417079953125
-70.52,1711417079968750
-77.33,1711417079984375
-80.2,1711417080000000
-78.19,1711417080015625
-71.26,1711417080031250
-60.22,1711417080046875
-46.58,1711417080062500
-32.04,1711417080078125
-18.01,1711417080093750
-5.35,1711417080109375
5.64,1711417080125000
14.97,1711417080140625
22.74,1711417080156250
28.88,1711417080171875
33.32,1711417080187500
36.09,1711417080203125
37.48,1711417080218750
38.13,1711417080234375
38.77,1711417080250000
40.03,1711417080265625
42.14,1711417080281250
44.87,1711417080296875
47.65,1711417080312500
49.85,1711417080328125
51.0,1711417080343750
50.96,1711417080359375
49.91,1711417080375000
48.21,1711417080390625
46.2,1711417080406250
44.11,1711417080421875
42.01,1711417080437500
39.78,1711417080453125
37.26,1711417080468750
34.26,1711417080484375
30.67,1711417080500000
26.46,1711417080515625
21.73,1711417080531250
16.67,1711417080546875
11.51,1711417080562500
6.45,1711417080578125
1.62,1711417080593750
-2.98,1711417080609375
-7.51,1711417080625000
-12.25,1711417080640625
-17.55,1711417080656250
-23.78,1711417080671875
-31.13,1711417080687500
-39.45,1711417080703125
-48.08,1711417080718750
-55.88,1711417080734375
-61.44,1711417080750000
-63.47,1711417080765625
-61.22,1711417080781250
-54.78,1711417080796875
-45.04,1711417080812500
-33.36,1711417080828125
-21.19,1711417080843750
-9.58,1711417080859375
0.88,1711417080875000
10.06,1711417080890625
17.96,1711417080906250
24.5,1711417080921875
29.49,1711417080937500
32.68,1711417080953125
34.08,1711417080968750
34.0,1711417080984375
33.09,1711417081000000
32.13,1711417081015625
31.73,1711417081031250
32.17,1711417081046875
33.29,1711417081062500
34.64,1711417081078125
35.7,1711417081093750
36.05,1711417081109375
35.49,1711417081125000
34.07,1711417081140625
32.01,1711417081156250
29.59,1711417081171875
27.04,1711417081187500
24.51,1711417081203125
21.92,1711417081218750
19.13,1711417081234375
15.93,1711417081250000
12.21,1711417081265625
7.96,1711417081281250
3.29,1711417081296875
-1.62,1711417081312500
-6.56,1711417081328125
-11.32,1711417081343750
-15.8,1711417081359375
-19.97,1711417081375000
-24.0,1711417081390625
-28.22,1711417081406250
-33.04,1711417081421875
-38.87,1711417081437500
-45.87,1711417081453125
-53.76,1711417081468750
-61.81,1711417081484375
-68.77,1711417081500000
-73.18,1711417081515625
-73.78,1711417081531250
-69.87,1711417081546875
-61.57,1711417081562500
-49.89,1711417081578125
-36.37,1711417081593750
-22.68,1711417081609375
-10.13,1711417081625000
0.57,1711417081640625
9.27,1711417081656250
16.13,1711417081671875
21.33,1711417081687500
25.02,1711417081703125
27.33,1711417081718750
28.56,1711417081734375
29.17,1711417081750000
29.7,1711417081765625
30.59,1711417081781250
32.02,1711417081796875
33.82,1711417081812500
35.67,1711417081828125
37.17,1711417081843750
38.05,1711417081859375
38.18,1711417081875000
37.57,1711417081890625
36.34,1711417081906250
34.62,1711417081921875
32.61,1711417081937500
30.45,1711417081953125
28.27,1711417081968750
26.05,1711417081984375
23.68,1711417082000000
20.96,1711417082015625
17.72,1711417082031250
13.84,1711417082046875
9.31,1711417082062500
4.29,1711417082078125
-0.97,1711417082093750
-6.17,1711417082109375
-11.07,1711417082125000
-15.56,1711417082140625
-19.73,1711417082156250
-23.9,1711417082171875
-28.47,1711417082187500
-33.87,1711417082203125
-40.4,1711417082218750
-48.04,1711417082234375
-56.29,1711417082250000
-64.12,1711417082265625
-70.15,1711417082281250
-72.98,1711417082296875
-71.61,1711417082312500
-65.79,1711417082328125
-56.14,1711417082343750
-43.94,1711417082359375
-30.71,1711417082375000
-17.81,1711417082390625
-6.09,1711417082406250
4.03,1711417082421875
12.43,1711417082437500
19.15,1711417082453125
24.2,1711417082468750
27.66,1711417082484375
29.66,1711417082500000
30.54,1711417082515625
30.68,1711417082531250
30.47,1711417082546875
30.21,1711417082562500
30.07,1711417082578125
30.07,1711417082593750
30.11,1711417082609375
30.04,1711417082625000
29.74,1711417082640625
29.16,1711417082656250
28.28,1711417082671875
27.14,1711417082687500
25.79,1711417082703125
24.23,1711417082718750
22.42,1711417082734375
20.23,1711417082750000
17.52,1711417082765625
14.15,1711417082781250
10.0,1711417082796875
5.12,1711417082812500
-0.28,1711417082828125
-5.79,1711417082843750
-10.98,1711417082859375
-15.47,1711417082875000
-19.17,1711417082890625
-22.28,1711417082906250
-25.23,1711417082921875
-28.5,1711417082937500
-32.45,1711417082953125
-37.24,1711417082968750
-42.93,1711417082984375
-49.46,1711417083000000
-56.58,1711417083015625
-63.73,1711417083031250
-69.89,1711417083046875
-73.73,1711417083062500
-73.98,1711417083078125
-69.88,1711417083093750
-61.53,1711417083109375
-49.94,1711417083125000
-36.69,1711417083140625
-23.36,1711417083156250
-11.18,1711417083171875
-0.8,1711417083187500
7.6,1711417083203125
14.13,1711417083218750
18.88,1711417083234375
21.96,1711417083250000
23.49,1711417083265625
23.72,1711417083281250
23.08,1711417083296875
22.15,1711417083312500
21.53,1711417083328125
21.55,1711417083343750
22.27,1711417083359375
23.42,1711417083375000
24.56,1711417083390625
25.32,1711417083406250
25.55,1711417083421875
25.37,1711417083437500
24.98,1711417083453125
24.58,1711417083468750
24.12,1711417083484375
23.4,1711417083500000
22.08,1711417083515625
19.92,1711417083531250
16.79,1711417083546875
12.73,1711417083562500
7.94,1711417083578125
2.72,1711417083593750
-2.52,1711417083609375
-7.37,1711417083625000
-11.55,1711417083640625
-15.04,1711417083656250
-18.13,1711417083671875
-21.35,1711417083687500
-25.28,1711417083703125
-30.31,1711417083718750
-36.63,1711417083734375
-44.1,1711417083750000
-52.25,1711417083765625
-60.23,1711417083781250
-66.91,1711417083796875
-70.97,1711417083812500
-71.28,1711417083828125
-67.2,1711417083843750
-58.9,1711417083859375
-47.36,1711417083875000
-34.13,1711417083890625
-20.85,1711417083906250
-8.85,1711417083921875
1.1,1711417083937500
8.86,1711417083953125
14.72,1711417083968750
19.11,1711417083984375
22.45,1711417084000000
24.99,1711417084015625
26.78,1711417084031250
27.84,1711417084046875
28.23,1711417084062500
28.11,1711417084078125
27.77,1711417084093750
27.4,1711417084109375
27.1,1711417084125000
26.74,1711417084140625
26.12,1711417084156250
25.06,1711417084171875
23.59,1711417084187500
21.85,1711417084203125
20.08,1711417084218750
18.38,1711417084234375
16.7,1711417084250000
14.83,1711417084265625
12.53,1711417084281250
9.59,1711417084296875
5.9,1711417084312500
1.54,1711417084328125
-3.34,1711417084343750
-8.44,1711417084359375
-13.42,1711417084375000
-17.92,1711417084390625
-21.75,1711417084406250
-24.93,1711417084421875
-27.79,1711417084437500
-30.9,1711417084453125
-34.88,1711417084468750
-40.29,1711417084484375
-47.43,1711417084500000
-56.09,1711417084515625
-65.44,1711417084531250
-74.04,1711417084546875
-80.11,1711417084562500
-81.99,1711417084578125
-78.78,1711417084593750
-70.57,1711417084609375
-58.57,1711417084625000
-44.58,1711417084640625
-30.42,1711417084656250
-17.38,1711417084671875
-6.04,1711417084687500
3.66,1711417084703125
11.94,1711417084718750
18.95,1711417084734375
24.61,1711417084750000
28.75,1711417084765625
31.33,1711417084781250
32.56,1711417084796875
32.85,1711417084812500
32.73,1711417084828125
32.64,1711417084843750
32.77,1711417084859375
33.08,1711417084875000
33.43,1711417084890625
33.69,1711417084906250
33.82,1711417084921875
33.87,1711417084937500
33.86,1711417084953125
33.74,1711417084968750
33.34,1711417084984375
32.46,1711417085000000
30.96,1711417085015625
28.81,1711417085031250
25.99,1711417085046875
22.53,1711417085062500
18.47,1711417085078125
13.9,1711417085093750
9.03,1711417085109375
4.12,1711417085125000
-0.56,1711417085140625
-4.9,1711417085156250
-8.99,1711417085171875
-13.04,1711417085187500
-17.28,1711417085203125
-21.91,1711417085218750
-27.06,1711417085234375
-32.94,1711417085250000
-39.79,1711417085265625
-47.75,1711417085281250
-56.58,1711417085296875
-65.42,1711417085312500
-72.78,1711417085328125
-76.95,1711417085343750
-76.5,1711417085359375
-70.9,1711417085375000
-60.71,1711417085390625
-47.41,1711417085406250
-32.93,1711417085421875
-18.99,1711417085437500
-6.7,1711417085453125
3.52,1711417085468750
11.72,1711417085484375
18.16,1711417085500000
23.05,1711417085515625
26.48,1711417085531250
28.55,1711417085546875
29.49,1711417085562500
29.72,1711417085578125
29.74,1711417085593750
29.95,1711417085609375
30.51,1711417085625000
31.35,1711417085640625
32.28,1711417085656250
33.1,1711417085671875
33.71,1711417085687500
34.09,1711417085703125
34.21,1711417085718750
33.97,1711417085734375
33.22,1711417085750000
31.85,1711417085765625
29.87,1711417085781250
27.41,1711417085796875
24.59,1711417085812500
21.5,1711417085828125
18.13,1711417085843750
14.42,1711417085859375
10.39,1711417085875000
6.17,1711417085890625
1.9,1711417085906250
-2.28,1711417085921875
-6.4,1711417085937500
-10.59,1711417085953125
-15.02,1711417085968750
-19.87,1711417085984375
-25.32,1711417086000000
-31.51,1711417086015625
-38.57,1711417086031250
-46.48,1711417086046875
-54.9,1711417086062500
-62.95,1711417086078125
-69.28,1711417086093750
-72.41,1711417086109375
-71.15,1711417086125000
-65.11,1711417086140625
-54.87,1711417086156250
-41.84,1711417086171875
-27.84,1711417086187500
-14.44,1711417086203125
-2.66,1711417086218750
7.15,1711417086234375
15.11,1711417086250000
21.43,1711417086265625
26.22,1711417086281250
29.43,1711417086296875
31.05,1711417086312500
31.31,1711417086328125
30.72,1711417086343750
29.96,1711417086359375
29.61,1711417086375000
29.95,1711417086390625
30.87,1711417086406250
31.93,1711417086421875
32.66,1711417086437500
32.71,1711417086453125
32.0,1711417086468750
30.73,1711417086484375
29.21,1711417086500000
27.73,1711417086515625
26.34,1711417086531250
24.81,1711417086546875
22.68,1711417086562500
19.55,1711417086578125
15.28,1711417086593750
10.08,1711417086609375
4.5,1711417086625000
-0.85,1711417086640625
-5.6,1711417086656250
-9.66,1711417086671875
-13.29,1711417086687500
-16.86,1711417086703125
-20.7,1711417086718750
-25.1,1711417086734375
-30.3,1711417086750000
-36.52,1711417086765625
-43.91,1711417086781250
-52.39,1711417086796875
-61.45,1711417086812500
-70.07,1711417086828125
-76.84,1711417086843750
-80.26,1711417086859375
-79.21,1711417086875000
-73.27,1711417086890625
-62.92,1711417086906250
-49.47,1711417086921875
-34.63,1711417086937500
-20.02,1711417086953125
-6.8,1711417086968750
4.53,1711417086984375
14.05,1711417087000000
22.02,1711417087015625
28.67,1711417087031250
34.03,1711417087046875
38.06,1711417087062500
40.77,1711417087078125
42.46,1711417087093750
43.54,1711417087109375
44.47,1711417087125000
45.54,1711417087140625
46.8,1711417087156250
48.09,1711417087171875
49.19,1711417087187500
49.96,1711417087203125
50.35,1711417087218750
50.38,1711417087234375
50.01,1711417087250000
49.16,1711417087265625
47.68,1711417087281250
45.43,1711417087296875
42.36,1711417087312500
38.57,1711417087328125
34.26,1711417087343750
29.65,1711417087359375
24.95,1711417087375000
20.23,1711417087390625
15.51,1711417087406250
10.7,1711417087421875
5.78,1711417087437500
0.8,1711417087453125
-4.15,1711417087468750
-9.02,1711417087484375
-13.9,1711417087500000
-19.08,1711417087515625
-24.94,1711417087531250
-31.87,1711417087546875
-39.97,1711417087562500
-48.93,1711417087578125
-57.87,1711417087593750
-65.47,1711417087609375
-70.24,1711417087625000
-70.9,1711417087640625
-66.77,1711417087656250
-58.1,1711417087671875
-45.97,1711417087687500
-32.01,1711417087703125
-17.84,1711417087718750
-4.74,1711417087734375
6.67,1711417087750000
16.25,1711417087765625
24.1,1711417087781250
30.31,1711417087796875
34.85,1711417087812500
37.71,1711417087828125
39.06,1711417087843750
39.34,1711417087859375
39.2,1711417087875000
39.27,1711417087890625
39.9,1711417087906250
41.08,1711417087921875
42.51,1711417087937500
43.79,1711417087953125
44.61,1711417087968750
44.82,1711417087984375
44.41,1711417088000000
43.36,1711417088015625
41.67,1711417088031250
39.26,1711417088046875
36.17,1711417088062500
32.59,1711417088078125
28.77,1711417088093750
25.0,1711417088109375
21.42,1711417088125000
17.97,1711417088140625
14.45,1711417088156250
10.73,1711417088171875
6.76,1711417088187500
2.64,1711417088203125
-1.48,1711417088218750
-5.65,1711417088234375
-10.04,1711417088250000
-14.97,1711417088265625
-20.69,1711417088281250
-27.34,1711417088296875
-34.91,1711417088312500
-43.27,1711417088328125
-52.17,1711417088343750
-61.08,1711417088359375
-69.08,1711417088375000
-74.87,1711417088390625
-77.06,1711417088406250
-74.61,1711417088421875
-67.33,1711417088437500
-55.98,1711417088453125
-42.08,1711417088468750
-27.42,1711417088484375
-13.5,1711417088500000
-1.24,1711417088515625
8.99,1711417088531250
17.18,1711417088546875
23.4,1711417088562500
27.75,1711417088578125
30.32,1711417088593750
31.39,1711417088609375
31.42,1711417088625000
31.04,1711417088640625
30.91,1711417088656250
31.5,1711417088671875
32.9,1711417088687500
34.8,1711417088703125
36.68,1711417088718750
37.96,1711417088734375
38.33,1711417088750000
37.8,1711417088765625
36.63,1711417088781250
35.16,1711417088796875
33.55,1711417088812500
31.72,1711417088828125
29.43,1711417088843750
26.46,1711417088859375
22.73,1711417088875000
18.4,1711417088890625
13.77,1711417088906250
9.16,1711417088921875
4.81,1711417088937500
0.72,1711417088953125
-3.28,1711417088968750
-7.52,1711417088984375
-12.34,1711417089000000
-18.0,1711417089015625
-24.62,1711417089031250
-32.1,1711417089046875
-40.2,1711417089062500
-48.42,1711417089078125
-56.05,1711417089093750
-62.08,1711417089109375
-65.4,1711417089125000
-65.01,1711417089140625
-60.43,1711417089156250
-51.96,1711417089171875
-40.64,1711417089187500
-27.99,1711417089203125
-15.49,1711417089218750
-4.18,1711417089234375
5.54,1711417089250000
13.78,1711417089265625
20.72,1711417089281250
26.38,1711417089296875
30.51,1711417089312500
32.8,1711417089328125
33.18,1711417089343750
32.09,1711417089359375
30.34,1711417089375000
28.91,1711417089390625
28.51,1711417089406250
29.28,1711417089421875
30.79,1711417089437500
32.32,1711417089453125
33.16,1711417089468750
32.98,1711417089484375
31.92,1711417089500000
30.36,1711417089515625
28.73,1711417089531250
27.24,1711417089546875
25.7,1711417089562500
23.7,1711417089578125
20.79,1711417089593750
16.68,1711417089609375
11.46,1711417089625000
5.52,1711417089640625
-0.55,1711417089656250
-6.19,1711417089671875
-11.05,1711417089687500
-15.13,1711417089703125
-18.68,1711417089718750
-22.16,1711417089734375
-26.05,1711417089750000
-30.81,1711417089765625
-36.72,1711417089781250
-43.84,1711417089796875
-51.83,1711417089812500
-59.87,1711417089828125
-66.63,1711417089843750
-70.56,1711417089859375
-70.29,1711417089875000
-65.15,1711417089890625
-55.49,1711417089906250
-42.59,1711417089921875
-28.34,1711417089937500
-14.61,1711417089953125
-2.7,1711417089968750
6.84,1711417089984375
14.14,1711417090000000
19.7,1711417090015625
24.01,1711417090031250
27.34,1711417090046875
29.78,1711417090062500
31.35,1711417090078125
32.15,1711417090093750
32.4,1711417090109375
32.42,1711417090125000
32.48,1711417090140625
32.71,1711417090156250
33.1,1711417090171875
33.49,1711417090187500
33.72,1711417090203125
33.67,1711417090218750
33.32,1711417090234375
32.72,1711417090250000
31.9,1711417090265625
30.87,1711417090281250
29.53,1711417090296875
27.73,1711417090312500
25.24,1711417090328125
21.91,1711417090343750
17.68,1711417090359375
12.66,1711417090375000
7.11,1711417090390625
1.37,1711417090406250
-4.21,1711417090421875
-9.36,1711417090437500
-14.01,1711417090453125
-18.18,1711417090468750
-22.13,1711417090484375
-26.22,1711417090500000
-30.97,1711417090515625
-36.84,1711417090531250
-44.12,1711417090546875
-52.61,1711417090562500
-61.49,1711417090578125
-69.3,1711417090593750
-74.38,1711417090609375
-75.26,1711417090625000
-71.29,1711417090640625
-62.79,1711417090656250
-51.03,1711417090671875
-37.74,1711417090687500
-24.59,1711417090703125
-12.71,1711417090718750
-2.57,1711417090734375
5.94,1711417090750000
13.08,1711417090765625
19.05,1711417090781250
23.83,1711417090796875
27.24,1711417090812500
29.13,1711417090828125
29.63,1711417090843750
29.16,1711417090859375
28.37,1711417090875000
27.91,1711417090890625
28.21,1711417090906250
29.32,1711417090921875
31.01,1711417090937500
32.87,1711417090953125
34.5,1711417090968750
35.62,1711417090984375
36.12,1711417091000000
35.97,1711417091015625
35.18,1711417091031250
33.75,1711417091046875
31.62,1711417091062500
28.71,1711417091078125
24.96,1711417091093750
20.38,1711417091109375
15.17,1711417091125000
9.71,1711417091140625
4.47,1711417091156250
-0.19,1711417091171875
-4.11,1711417091187500
-7.5,1711417091203125
-10.81,1711417091218750
-14.57,1711417091234375
-19.22,1711417091250000
-24.99,1711417091265625
-31.8,1711417091281250
-39.25,1711417091296875
-46.65,1711417091312500
-52.95,1711417091328125
-57.0,1711417091343750
-57.75,1711417091359375
-54.67,1711417091375000
-47.88,1711417091390625
-38.27,1711417091406250
-27.14,1711417091421875
-15.87,1711417091437500
-5.48,1711417091453125
3.48,1711417091468750
10.86,1711417091484375
16.74,1711417091500000
21.2,1711417091515625
24.23,1711417091531250
25.86,1711417091546875
26.26,1711417091562500
25.8,1711417091578125
25.02,1711417091593750
24.5,1711417091609375
24.65,1711417091625000
25.54,1711417091640625
26.93,1711417091656250
28.32,1711417091671875
29.17,1711417091687500
29.12,1711417091703125
28.08,1711417091718750
26.22,1711417091734375
23.86,1711417091750000
21.25,1711417091765625
18.49,1711417091781250
15.46,1711417091796875
11.96,1711417091812500
7.83,1711417091828125
3.13,1711417091843750
-1.87,1711417091859375
-6.74,1711417091875000
-11.06,1711417091890625
-14.61,1711417091906250
-17.51,1711417091921875
-20.14,1711417091937500
-23.11,1711417091953125
-26.96,1711417091968750
-32.1,1711417091984375
-38.66,1711417092000000
-46.47,1711417092015625
-54.97,1711417092031250
-63.22,1711417092046875
-69.99,1711417092062500
-73.96,1711417092078125
-74.08,1711417092093750
-69.91,1711417092109375
-61.76,1711417092125000
-50.69,1711417092140625
-38.12,1711417092156250
-25.42,1711417092171875
-13.52,1711417092187500
-2.86,1711417092203125
6.47,1711417092218750
14.48,1711417092234375
21.07,1711417092250000
26.01,1711417092265625
29.18,1711417092281250
30.74,1711417092296875
31.18,1711417092312500
31.15,1711417092328125
31.23,1711417092343750
31.66,1711417092359375
32.29,1711417092375000
32.76,1711417092390625
32.76,1711417092406250
32.2,1711417092421875
31.26,1711417092437500
30.25,1711417092453125
29.41,1711417092468750
28.78,1711417092484375
28.22,1711417092500000
27.41,1711417092515625
26.02,1711417092531250
23.7,1711417092546875
20.1,1711417092562500
14.96,1711417092578125
8.23,1711417092593750
0.24,1711417092609375
-8.27,1711417092625000
-16.32,1711417092640625
-23.05,1711417092656250
-27.96,1711417092671875
-31.22,1711417092687500
-33.55,1711417092703125
-36.01,1711417092718750
-39.68,1711417092734375
-45.28,1711417092750000
-52.91,1711417092765625
-61.93,1711417092781250
-70.96,1711417092796875
-78.15,1711417092812500
-81.63,1711417092828125
-80.08,1711417092843750
-73.09,1711417092859375
-61.43,1711417092875000
-46.76,1711417092890625
-31.06,1711417092906250
-16.13,1711417092921875
-3.12,1711417092937500
7.59,1711417092953125
16.09,1711417092968750
22.66,1711417092984375
27.51,1711417093000000
30.79,1711417093015625
32.7,1711417093031250
33.57,1711417093046875
33.93,1711417093062500
34.35,1711417093078125
35.24,1711417093093750
36.69,1711417093109375
38.45,1711417093125000
40.08,1711417093140625
41.14,1711417093156250
41.41,1711417093171875
40.96,1711417093187500
40.03,1711417093203125
38.88,1711417093218750
37.67,1711417093234375
36.38,1711417093250000
34.85,1711417093265625
32.87,1711417093281250
30.26,1711417093296875
26.96,1711417093312500
23.06,1711417093328125
18.77,1711417093343750
14.33,1711417093359375
9.99,1711417093375000
5.86,1711417093390625
1.96,1711417093406250
-1.84,1711417093421875
-5.73,1711417093437500
-10.0,1711417093453125
-15.04,1711417093468750
-21.21,1711417093484375
-28.75,1711417093500000
-37.48,1711417093515625
-46.52,1711417093531250
-54.34,1711417093546875
-59.03,1711417093562500
-58.96,1711417093578125
-53.42,1711417093593750
-42.96,1711417093609375
-29.24,1711417093625000
-14.38,1711417093640625
-0.33,1711417093656250
11.69,1711417093671875
21.25,1711417093687500
28.43,1711417093703125
33.47,1711417093718750
36.54,1711417093734375
37.79,1711417093750000
37.48,1711417093765625
36.07,1711417093781250
34.17,1711417093796875
32.37,1711417093812500
31.03,1711417093828125
30.32,1711417093843750
30.17,1711417093859375
30.42,1711417093875000
30.88,1711417093890625
31.33,1711417093906250
31.58,1711417093921875
31.5,1711417093937500
31.08,1711417093953125
30.38,1711417093968750
29.54,1711417093984375
28.6,1711417094000000
27.45,1711417094015625
25.84,1711417094031250
23.41,1711417094046875
19.97,1711417094062500
15.52,1711417094078125
10.42,1711417094093750
5.17,1711417094109375
0.32,1711417094125000
-3.8,1711417094140625
-7.14,1711417094156250
-9.97,1711417094171875
-12.83,1711417094187500
-16.35,1711417094203125
-21.08,1711417094218750
-27.35,1711417094234375
-34.96,1711417094250000
-43.17,1711417094265625
-50.67,1711417094281250
-55.87,1711417094296875
-57.31,1711417094312500
-54.15,1711417094328125
-46.52,1711417094343750
-35.52,1711417094359375
-22.88,1711417094375000
-10.44,1711417094390625
0.41,1711417094406250
9.02,1711417094421875
15.4,1711417094437500
19.94,1711417094453125
23.03,1711417094468750
24.86,1711417094484375
25.41,1711417094500000
24.68,1711417094515625
22.88,1711417094531250
20.53,1711417094546875
18.34,1711417094562500
16.95,1711417094578125
16.61,1711417094593750
17.11,1711417094609375
17.85,1711417094625000
18.08,1711417094640625
17.25,1711417094656250
15.2,1711417094671875
12.14,1711417094687500
8.56,1711417094703125
4.92,1711417094718750
1.49,1711417094734375
-1.78,1711417094750000
-5.19,1711417094765625
-9.19,1711417094781250
-14.16,1711417094796875
-20.3,1711417094812500
-27.54,1711417094828125
-35.53,1711417094843750
-43.72,1711417094859375
-51.51,1711417094875000
-58.42,1711417094890625
-64.28,1711417094906250
-69.37,1711417094921875
-74.38,1711417094937500
-80.2,1711417094953125
-87.6,1711417094968750
-96.85,1711417094984375
-107.41,1711417095000000
-117.94,1711417095015625
-126.58,1711417095031250
-131.46,1711417095046875
-131.25,1711417095062500
-125.7,1711417095078125
-115.66,1711417095093750
-102.96,1711417095109375
-89.74,1711417095125000
-77.86,1711417095140625
-68.26,1711417095156250
-60.83,1711417095171875
-54.54,1711417095187500
-48.04,1711417095203125
-40.23,1711417095218750
-30.63,1711417095234375
-19.37,1711417095250000
-6.96,1711417095265625
6.11,1711417095281250
19.54,1711417095296875
33.23,1711417095312500
47.04,1711417095328125
60.66,1711417095343750
73.57,1711417095359375
85.16,1711417095375000
94.99,1711417095390625
102.85,1711417095406250
108.76,1711417095421875
112.85,1711417095437500
115.2,1711417095453125
115.72,1711417095468750
114.16,1711417095484375
110.17,1711417095500000
103.57,1711417095515625
94.42,1711417095531250
83.21,1711417095546875
70.79,1711417095562500
58.17,1711417095578125
46.3,1711417095593750
35.68,1711417095609375
26.32,1711417095625000
17.78,1711417095640625
9.53,1711417095656250
1.36,1711417095671875
-6.44,1711417095687500
-13.22,1711417095703125
-18.19,1711417095718750
-20.8,1711417095734375
-20.88,1711417095750000
-18.57,1711417095765625
-14.14,1711417095781250
-7.9,1711417095796875
-0.2,1711417095812500
8.46,1711417095828125
17.33,1711417095843750
25.44,1711417095859375
31.92,1711417095875000
36.25,1711417095890625
38.39,1711417095906250
38.77,1711417095921875
38.02,1711417095937500
36.72,1711417095953125
35.25,1711417095968750
33.79,1711417095984375
32.46,1711417096000000
31.32,1711417096015625
30.47,1711417096031250
29.92,1711417096046875
29.64,1711417096062500
29.48,1711417096078125
29.18,1711417096093750
28.43,1711417096109375
26.92,1711417096125000
24.45,1711417096140625
20.96,1711417096156250
16.54,1711417096171875
11.49,1711417096187500
6.16,1711417096203125
0.86,1711417096218750
-4.21,1711417096234375
-9.03,1711417096250000
-13.72,1711417096265625
-18.53,1711417096281250
-23.79,1711417096296875
-29.83,1711417096312500
-36.87,1711417096328125
-44.81,1711417096343750
-53.07,1711417096359375
-60.51,1711417096375000
-65.59,1711417096390625
-66.89,1711417096406250
-63.56,1711417096421875
-55.7,1711417096437500
-44.34,1711417096453125
-31.05,1711417096468750
-17.44,1711417096484375
-4.76,1711417096500000
6.3,1711417096515625
15.52,1711417096531250
22.93,1711417096546875
28.64,1711417096562500
32.79,1711417096578125
35.55,1711417096593750
37.23,1711417096609375
38.18,1711417096625000
38.73,1711417096640625
39.09,1711417096656250
39.26,1711417096671875
39.16,1711417096687500
38.71,1711417096703125
37.93,1711417096718750
37.0,1711417096734375
36.12,1711417096750000
35.47,1711417096765625
34.96,1711417096781250
34.29,1711417096796875
32.96,1711417096812500
30.55,1711417096828125
26.84,1711417096843750
21.96,1711417096859375
16.32,1711417096875000
10.46,1711417096890625
4.82,1711417096906250
-0.4,1711417096921875
-5.25,1711417096937500
-10.06,1711417096953125
-15.27,1711417096968750
-21.32,1711417096984375
-28.42,1711417097000000
-36.41,1711417097015625
-44.58,1711417097031250
-51.76,1711417097046875
-56.55,1711417097062500
-57.77,1711417097078125
-54.76,1711417097093750
-47.7,1711417097109375
-37.51,1711417097125000
-25.51,1711417097140625
-13.01,1711417097156250
-1.0,1711417097171875
9.96,1711417097187500
19.58,1711417097203125
27.63,1711417097218750
33.84,1711417097234375
37.95,1711417097250000
39.93,1711417097265625
40.12,1711417097281250
39.26,1711417097296875
38.19,1711417097312500
37.65,1711417097328125
37.96,1711417097343750
38.88,1711417097359375
39.89,1711417097375000
40.39,1711417097390625
39.99,1711417097406250
38.7,1711417097421875
36.79,1711417097437500
34.63,1711417097453125
32.39,1711417097468750
30.02,1711417097484375
27.27,1711417097500000
23.9,1711417097515625
19.78,1711417097531250
14.98,1711417097546875
9.72,1711417097562500
4.24,1711417097578125
-1.25,1711417097593750
-6.59,1711417097609375
-11.72,1711417097625000
-16.67,1711417097640625
-21.66,1711417097656250
-27.06,1711417097671875
-33.25,1711417097687500
-40.32,1711417097703125
-47.8,1711417097718750
-54.64,1711417097734375
-59.42,1711417097750000
-60.84,1711417097765625
-58.15,1711417097781250
-51.5,1711417097796875
-41.76,1711417097812500
-30.23,1711417097828125
-18.15,1711417097843750
-6.47,1711417097859375
4.31,1711417097875000
13.91,1711417097890625
22.07,1711417097906250
28.4,1711417097921875
32.53,1711417097937500
34.31,1711417097953125
34.03,1711417097968750
32.52,1711417097984375
30.85,1711417098000000
30.01,1711417098015625
30.45,1711417098031250
31.98,1711417098046875
33.93,1711417098062500
35.45,1711417098078125
35.97,1711417098093750
35.27,1711417098109375
33.61,1711417098125000
31.35,1711417098140625
28.83,1711417098156250
26.21,1711417098171875
23.46,1711417098187500
20.43,1711417098203125
16.96,1711417098218750
12.99,1711417098234375
8.59,1711417098250000
3.95,1711417098265625
-0.66,1711417098281250
-5.05,1711417098296875
-9.14,1711417098312500
-13.01,1711417098328125
-16.87,1711417098343750
-21.04,1711417098359375
-25.77,1711417098375000
-31.3,1711417098390625
-37.71,1711417098406250
-44.83,1711417098421875
-52.05,1711417098437500
-58.33,1711417098453125
-62.39,1711417098468750
-63.04,1711417098484375
-59.6,1711417098500000
-52.21,1711417098515625
-41.79,1711417098531250
-29.76,1711417098546875
-17.56,1711417098562500
-6.27,1711417098578125
3.45,1711417098593750
11.31,1711417098609375
17.2,1711417098625000
21.07,1711417098640625
22.95,1711417098656250
23.1,1711417098671875
22.1,1711417098687500
20.72,1711417098703125
19.78,1711417098718750
19.78,1711417098734375
20.78,1711417098750000
22.37,1711417098765625
23.9,1711417098781250
24.77,1711417098796875
24.66,1711417098812500
23.67,1711417098828125
22.13,1711417098843750
20.44,1711417098859375
18.8,1711417098875000
17.15,1711417098890625
15.17,1711417098906250
12.54,1711417098921875
9.08,1711417098937500
4.91,1711417098953125
0.35,1711417098968750
-4.14,1711417098984375
-8.21,1711417099000000
-11.71,1711417099015625
-14.75,1711417099031250
-17.7,1711417099046875
-21.02,1711417099062500
-25.24,1711417099078125
-30.7,1711417099093750
-37.45,1711417099109375
-45.05,1711417099125000
-52.59,1711417099140625
-58.8,1711417099156250
-62.33,1711417099171875
-62.16,1711417099187500
-57.92,1711417099203125
-49.99,1711417099218750
-39.43,1711417099234375
-27.61,1711417099250000
-15.81,1711417099265625
-5.03,1711417099281250
4.2,1711417099296875
11.67,1711417099312500
17.32,1711417099328125
21.15,1711417099343750
23.19,1711417099359375
23.58,1711417099375000
22.64,1711417099390625
20.92,1711417099406250
19.03,1711417099421875
17.55,1711417099437500
16.79,1711417099453125
16.69,1711417099468750
16.9,1711417099484375
16.94,1711417099500000
16.46,1711417099515625
15.3,1711417099531250
13.61,1711417099546875
11.62,1711417099562500
9.51,1711417099578125
7.23,1711417099593750
4.49,1711417099609375
0.91,1711417099625000
-3.72,1711417099640625
-9.27,1711417099656250
-15.28,1711417099671875
-21.09,1711417099687500
-26.09,1711417099703125
-29.96,1711417099718750
-32.75,1711417099734375
-34.83,1711417099750000
-36.71,1711417099765625
-38.98,1711417099781250
-42.08,1711417099796875
-46.22,1711417099812500
-51.19,1711417099828125
-56.29,1711417099843750
-60.4,1711417099859375
-62.15,1711417099875000
-60.36,1711417099890625
-54.41,1711417099906250
-44.59,1711417099921875
-32.0,1711417099937500
-18.26,1711417099953125
-4.99,1711417099968750
6.57,1711417099984375
15.85,1711417100000000
22.79,1711417100015625
27.73,1711417100031250
31.04,1711417100046875
33.07,1711417100062500
34.05,1711417100078125
34.23,1711417100093750
33.9,1711417100109375
33.41,1711417100125000
33.08,1711417100140625
33.12,1711417100156250
33.53,1711417100171875
34.17,1711417100187500
34.86,1711417100203125
35.47,1711417100218750
36.0,1711417100234375
36.49,1711417100250000
36.98,1711417100265625
37.4,1711417100281250
37.56,1711417100296875
37.24,1711417100312500
36.38,1711417100328125
35.33,1711417100343750
35.12,1711417100359375
37.26,1711417100375000
43.33,1711417100390625
54.26,1711417100406250
69.8,1711417100421875
88.47,1711417100437500
108.13,1711417100453125
126.61,1711417100468750
142.32,1711417100484375
154.39,1711417100500000
162.5,1711417100515625
166.64,1711417100531250
167.09,1711417100546875
164.58,1711417100562500
160.37,1711417100578125
156.08,1711417100593750
153.07,1711417100609375
151.9,1711417100625000
152.09,1711417100640625
152.41,1711417100656250
151.61,1711417100671875
148.99,1711417100687500
144.64,1711417100703125
139.16,1711417100718750
133.29,1711417100734375
127.62,1711417100750000
122.59,1711417100765625
118.71,1711417100781250
116.59,1711417100796875
116.72,1711417100812500
119.06,1711417100828125
122.8,1711417100843750
126.23,1711417100859375
127.29,1711417100875000
124.17,1711417100890625
116.07,1711417100906250
103.58,1711417100921875
88.68,1711417100937500
74.19,1711417100953125
63.08,1711417100968750
57.62,1711417100984375
58.83,1711417101000000
66.25,1711417101015625
77.98,1711417101031250
91.22,1711417101046875
102.92,1711417101062500
110.59,1711417101078125
112.79,1711417101093750
109.42,1711417101109375
101.36,1711417101125000
90.03,1711417101140625
76.74,1711417101156250
62.37,1711417101171875
47.32,1711417101187500
31.65,1711417101203125
15.4,1711417101218750
-1.33,1711417101234375
-18.35,1711417101250000
-35.56,1711417101265625
-53.04,1711417101281250
-71.07,1711417101296875
-90.04,1711417101312500
-110.24,1711417101328125
-131.85,1711417101343750
-154.86,1711417101359375
-179.15,1711417101375000
-204.41,1711417101390625
-230.12,1711417101406250
-255.41,1711417101421875
-279.2,1711417101437500
-300.33,1711417101453125
-317.93,1711417101468750
-331.73,1711417101484375
-342.08,1711417101500000
-349.78,1711417101515625
-355.71,1711417101531250
-360.45,1711417101546875
-364.17,1711417101562500
-366.82,1711417101578125
-368.33,1711417101593750
-368.91,1711417101609375
-369.0,1711417101625000
-369.15,1711417101640625
-369.71,1711417101656250
-370.7,1711417101671875
-371.76,1711417101687500
-372.27,1711417101703125
-371.53,1711417101718750
-368.9,1711417101734375
-363.96,1711417101750000
-356.59,1711417101765625
-346.88,1711417101781250
-335.02,1711417101796875
-320.92,1711417101812500
-304.08,1711417101828125
-283.5,1711417101843750
-258.02,1711417101859375
-226.76,1711417101875000
-189.54,1711417101890625
-147.08,1711417101906250
-100.91,1711417101921875
-53.11,1711417101937500
-6.02,1711417101953125
37.98,1711417101968750
76.68,1711417101984375
108.3,1711417102000000
131.69,1711417102015625
146.59,1711417102031250
153.64,1711417102046875
154.24,1711417102062500
150.24,1711417102078125
143.63,1711417102093750
136.22,1711417102109375
129.43,1711417102125000
124.15,1711417102140625
120.61,1711417102156250
118.38,1711417102171875
116.48,1711417102187500
113.81,1711417102203125
109.47,1711417102218750
103.13,1711417102234375
95.05,1711417102250000
85.91,1711417102265625
76.46,1711417102281250
67.24,1711417102296875
58.27,1711417102312500
49.14,1711417102328125
39.17,1711417102343750
27.67,1711417102359375
14.29,1711417102375000
-0.81,1711417102390625
-16.8,1711417102406250
-32.27,1711417102421875
-45.27,1711417102437500
-53.82,1711417102453125
-56.28,1711417102468750
-52.08,1711417102484375
-42.01,1711417102500000
-28.1,1711417102515625
-13.04,1711417102531250
0.8,1711417102546875
12.04,1711417102562500
20.52,1711417102578125
26.88,1711417102593750
31.88,1711417102609375
35.79,1711417102625000
38.34,1711417102640625
39.04,1711417102656250
37.71,1711417102671875
34.79,1711417102687500
31.19,1711417102703125
27.94,1711417102718750
25.64,1711417102734375
24.33,1711417102750000
23.57,1711417102765625
22.77,1711417102781250
21.5,1711417102796875
19.65,1711417102812500
17.36,1711417102828125
14.88,1711417102843750
12.43,1711417102859375
10.04,1711417102875000
7.57,1711417102890625
4.8,1711417102906250
1.53,1711417102921875
-2.36,1711417102937500
-6.9,1711417102953125
-12.13,1711417102968750
-18.27,1711417102984375
-25.75,1711417103000000
-34.99,1711417103015625
-46.0,1711417103031250
-57.97,1711417103046875
-69.06,1711417103062500
-76.79,1711417103078125
-78.81,1711417103093750
-73.78,1711417103109375
-62.01,1711417103125000
-45.38,1711417103140625
-26.57,1711417103156250
-8.12,1711417103171875
8.43,1711417103187500
22.76,1711417103203125
35.41,1711417103218750
47.06,1711417103234375
57.98,1711417103250000
67.86,1711417103265625
76.0,1711417103281250
81.79,1711417103296875
85.13,1711417103312500
86.46,1711417103328125
86.54,1711417103343750
86.09,1711417103359375
85.53,1711417103375000
84.83,1711417103390625
83.67,1711417103406250
81.7,1711417103421875
78.73,1711417103437500
74.77,1711417103453125
70.04,1711417103468750
64.76,1711417103484375
59.06,1711417103500000
52.84,1711417103515625
45.81,1711417103531250
37.63,1711417103546875
28.07,1711417103562500
17.14,1711417103578125
5.05,1711417103593750
-7.94,1711417103609375
-21.72,1711417103625000
-36.21,1711417103640625
-51.13,1711417103656250
-65.53,1711417103671875
-77.6,1711417103687500
-84.95,1711417103703125
-85.34,1711417103718750
-77.65,1711417103734375
-62.45,1711417103750000
-41.96,1711417103765625
-19.26,1711417103781250
2.7,1711417103796875
21.96,1711417103812500
37.82,1711417103828125
50.39,1711417103843750
60.18,1711417103859375
67.56,1711417103875000
72.72,1711417103890625
75.89,1711417103906250
77.48,1711417103921875
78.18,1711417103937500
78.72,1711417103953125
79.56,1711417103968750
80.75,1711417103984375
81.95,1711417104000000
82.73,1711417104015625
82.81,1711417104031250
82.27,1711417104046875
81.41,1711417104062500
80.52,1711417104078125
79.6,1711417104093750
78.36,1711417104109375
76.27,1711417104125000
72.9,1711417104140625
68.17,1711417104156250
62.33,1711417104171875
55.86,1711417104187500
49.14,1711417104203125
42.24,1711417104218750
34.7,1711417104234375
25.72,1711417104250000
14.46,1711417104265625
0.56,1711417104281250
-15.42,1711417104296875
-31.74,1711417104312500
-45.74,1711417104328125
-54.56,1711417104343750
-56.07,1711417104359375
-49.67,1711417104375000
-36.57,1711417104390625
-19.36,1711417104406250
-1.05,1711417104421875
15.9,1711417104437500
30.23,1711417104453125
41.85,1711417104468750
51.29,1711417104484375
59.23,1711417104500000
65.86,1711417104515625
70.84,1711417104531250
73.55,1711417104546875
73.8,1711417104562500
72.01,1711417104578125
69.07,1711417104593750
65.98,1711417104609375
63.5,1711417104625000
62.06,1711417104640625
61.57,1711417104656250
61.46,1711417104671875
60.91,1711417104687500
59.35,1711417104703125
56.57,1711417104718750
52.67,1711417104734375
47.91,1711417104750000
42.57,1711417104765625
37.19,1711417104781250
32.11,1711417104796875
27.36,1711417104812500
22.38,1711417104828125
16.91,1711417104843750
10.66,1711417104859375
3.26,1711417104875000
-5.77,1711417104890625
-16.71,1711417104906250
-28.29,1711417104921875
-38.6,1711417104937500
-45.6,1711417104953125
-48.2,1711417104968750
-44.94,1711417104984375
-35.16,1711417105000000
-19.53,1711417105015625
-0.21,1711417105031250
20.07,1711417105046875
40.59,1711417105062500
60.99,1711417105078125
80.52,1711417105093750
96.42,1711417105109375
108.05,1711417105125000
115.6,1711417105140625
119.65,1711417105156250
120.5,1711417105171875
118.76,1711417105187500
118.23,1711417105203125
121.96,1711417105218750
130.52,1711417105234375
139.43,1711417105250000
146.41,1711417105265625
150.18,1711417105281250
150.34,1711417105296875
146.48,1711417105312500
138.86,1711417105328125
131.83,1711417105343750
128.8,1711417105359375
130.32,1711417105375000
131.5,1711417105390625
131.45,1711417105406250
131.12,1711417105421875
131.64,1711417105437500
131.77,1711417105453125
106.48,1711417105468750
42.49,1711417105484375
-55.36,1711417105500000
-148.63,1711417105515625
-227.86,1711417105531250
-291.26,1711417105546875
-341.63,1711417105562500
-376.77,1711417105578125
-395.36,1711417105593750
-397.85,1711417105609375
-382.92,1711417105625000
-351.62,1711417105640625
-308.25,1711417105656250
-262.26,1711417105671875
-218.44,1711417105687500
-178.77,1711417105703125
-143.53,1711417105718750
-113.26,1711417105734375
-88.36,1711417105750000
-66.16,1711417105765625
-44.64,1711417105781250
-23.81,1711417105796875
-7.87,1711417105812500
2.06,1711417105828125
6.46,1711417105843750
6.67,1711417105859375
3.65,1711417105875000
-1.61,1711417105890625
-6.19,1711417105906250
-7.87,1711417105921875
-6.13,1711417105937500
-3.56,1711417105953125
-1.13,1711417105968750
1.01,1711417105984375
3.29,1711417106000000
5.97,1711417106015625
9.39,1711417106031250
14.72,1711417106046875
22.51,1711417106062500
32.08,1711417106078125
41.02,1711417106093750
47.9,1711417106109375
51.96,1711417106125000
53.15,1711417106140625
51.9,1711417106156250
49.44,1711417106171875
47.93,1711417106187500
49.65,1711417106203125
56.22,1711417106218750
67.88,1711417106234375
84.65,1711417106250000
105.47,1711417106265625
128.29,1711417106281250
150.48,1711417106296875
169.8,1711417106312500
184.78,1711417106328125
194.73,1711417106343750
199.41,1711417106359375
198.75,1711417106375000
193.66,1711417106390625
184.99,1711417106406250
173.21,1711417106421875
158.7,1711417106437500
142.09,1711417106453125
124.38,1711417106468750
106.53,1711417106484375
89.2,1711417106500000
72.61,1711417106515625
57.89,1711417106531250
45.73,1711417106546875
35.89,1711417106562500
27.68,1711417106578125
20.89,1711417106593750
16.08,1711417106609375
14.41,1711417106625000
16.77,1711417106640625
14.86,1711417106656250
3.44,1711417106671875
-18.88,1711417106687500
-49.79,1711417106703125
-85.16,1711417106718750
-120.63,1711417106734375
-152.28,1711417106750000
-177.1,1711417106765625
-193.64,1711417106781250
-202.11,1711417106796875
-204.52,1711417106812500
-200.78,1711417106828125
-190.35,1711417106843750
-173.06,1711417106859375
-149.67,1711417106875000
-122.4,1711417106890625
-94.56,1711417106906250
-69.65,1711417106921875
-50.17,1711417106937500
-35.76,1711417106953125
-24.03,1711417106968750
-12.66,1711417106984375
0.32,1711417107000000
16.03,1711417107015625
34.31,1711417107031250
54.32,1711417107046875
74.95,1711417107062500
95.22,1711417107078125
115.0,1711417107093750
131.47,1711417107109375
140.65,1711417107125000
139.58,1711417107140625
128.59,1711417107156250
110.94,1711417107171875
91.57,1711417107187500
75.22,1711417107203125
63.17,1711417107218750
56.03,1711417107234375
53.33,1711417107250000
53.55,1711417107265625
54.51,1711417107281250
56.03,1711417107296875
57.33,1711417107312500
57.95,1711417107328125
57.8,1711417107343750
56.91,1711417107359375
55.78,1711417107375000
54.68,1711417107390625
53.79,1711417107406250
53.09,1711417107421875
52.13,1711417107437500
49.58,1711417107453125
43.77,1711417107468750
33.44,1711417107484375
18.65,1711417107500000
1.69,1711417107515625
-13.31,1711417107531250
-21.5,1711417107546875
-19.12,1711417107562500
-5.46,1711417107578125
16.04,1711417107593750
38.83,1711417107609375
55.45,1711417107625000
60.16,1711417107640625
50.96,1711417107656250
29.61,1711417107671875
0.49,1711417107687500
-31.41,1711417107703125
-62.33,1711417107718750
-90.72,1711417107734375
-116.91,1711417107750000
-142.35,1711417107765625
-168.95,1711417107781250
-198.32,1711417107796875
-231.23,1711417107812500
-266.88,1711417107828125
-302.26,1711417107843750
-332.3,1711417107859375
-351.06,1711417107875000
-353.46,1711417107890625
-337.11,1711417107906250
-303.33,1711417107921875
-256.66,1711417107937500
-203.35,1711417107953125
-149.56,1711417107968750
-99.98,1711417107984375
-57.35,1711417108000000
-22.84,1711417108015625
3.5,1711417108031250
22.35,1711417108046875
34.87,1711417108062500
42.51,1711417108078125
46.64,1711417108093750
48.18,1711417108109375
47.38,1711417108125000
44.13,1711417108140625
38.52,1711417108156250
31.46,1711417108171875
24.86,1711417108187500
21.29,1711417108203125
23.17,1711417108218750
31.86,1711417108234375
47.18,1711417108250000
67.57,1711417108265625
90.74,1711417108281250
114.44,1711417108296875
137.08,1711417108312500
157.75,1711417108328125
175.95,1711417108343750
191.26,1711417108359375
203.1,1711417108375000
210.92,1711417108390625
214.41,1711417108406250
213.59,1711417108421875
208.76,1711417108437500
200.29,1711417108453125
188.59,1711417108468750
174.11,1711417108484375
157.6,1711417108500000
140.04,1711417108515625
122.38,1711417108531250
105.08,1711417108546875
87.87,1711417108562500
69.87,1711417108578125
50.21,1711417108593750
28.71,1711417108609375
6.22,1711417108625000
-15.54,1711417108640625
-34.77,1711417108656250
-50.32,1711417108671875
-62.07,1711417108687500
-70.75,1711417108703125
-77.38,1711417108718750
-82.65,1711417108734375
-86.73,1711417108750000
-89.43,1711417108765625
-90.59,1711417108781250
-90.47,1711417108796875
-89.81,1711417108812500
-89.57,1711417108828125
-90.55,1711417108843750
-93.05,1711417108859375
-96.69,1711417108875000
-100.42,1711417108890625
-102.66,1711417108906250
-101.66,1711417108921875
-95.94,1711417108937500
-84.71,1711417108953125
-68.25,1711417108968750
-47.9,1711417108984375
-25.9,1711417109000000
-4.78,1711417109015625
13.14,1711417109031250
26.15,1711417109046875
33.39,1711417109062500
34.83,1711417109078125
31.05,1711417109093750
23.13,1711417109109375
12.47,1711417109125000
0.68,1711417109140625
-10.62,1711417109156250
-20.0,1711417109171875
-26.49,1711417109187500
-29.75,1711417109203125
-30.17,1711417109218750
-28.76,1711417109234375
-26.88,1711417109250000
-25.78,1711417109265625
-26.27,1711417109281250
-28.48,1711417109296875
-31.95,1711417109312500
-35.91,1711417109328125
-39.72,1711417109343750
-43.08,1711417109359375
-46.14,1711417109375000
-49.27,1711417109390625
-52.77,1711417109406250
-56.71,1711417109421875
-60.92,1711417109437500
-65.06,1711417109453125
-68.8,1711417109468750
-71.98,1711417109484375
-74.73,1711417109500000
-77.36,1711417109515625
-80.36,1711417109531250
-84.16,1711417109546875
-88.94,1711417109562500
-94.33,1711417109578125
-99.37,1711417109593750
-102.64,1711417109609375
-102.54,1711417109625000
-97.81,1711417109640625
-87.81,1711417109656250
-72.86,1711417109671875
-54.12,1711417109687500
-33.37,1711417109703125
-12.6,1711417109718750
6.37,1711417109734375
22.19,1711417109750000
34.08,1711417109765625
41.85,1711417109781250
45.84,1711417109796875
46.79,1711417109812500
45.82,1711417109828125
44.18,1711417109843750
43.05,1711417109859375
43.09,1711417109875000
44.36,1711417109890625
46.24,1711417109906250
47.78,1711417109921875
48.15,1711417109937500
47.02,1711417109953125
44.74,1711417109968750
42.07,1711417109984375
39.83,1711417110000000
38.42,1711417110015625
37.64,1711417110031250
36.77,1711417110046875
34.91,1711417110062500
31.39,1711417110078125
26.16,1711417110093750
19.87,1711417110109375
13.55,1711417110125000
8.17,1711417110140625
4.16,1711417110156250
1.27,1711417110171875
-1.32,1711417110187500
-4.57,1711417110203125
-9.25,1711417110218750
-15.79,1711417110234375
-24.23,1711417110250000
-34.15,1711417110265625
-44.5,1711417110281250
-53.43,1711417110296875
-58.53,1711417110312500
-57.47,1711417110328125
-48.88,1711417110343750
-33.13,1711417110359375
-12.48,1711417110375000
9.68,1711417110390625
29.97,1711417110406250
46.12,1711417110421875
57.3,1711417110437500
63.87,1711417110453125
66.64,1711417110468750
66.29,1711417110484375
63.12,1711417110500000
57.39,1711417110515625
49.58,1711417110531250
40.62,1711417110546875
31.82,1711417110562500
24.41,1711417110578125
19.14,1711417110593750
16.09,1711417110609375
14.6,1711417110625000
13.59,1711417110640625
12.0,1711417110656250
9.25,1711417110671875
5.38,1711417110687500
1.03,1711417110703125
-2.92,1711417110718750
-5.82,1711417110734375
-7.61,1711417110750000
-8.84,1711417110765625
-10.47,1711417110781250
-13.32,1711417110796875
-17.83,1711417110812500
-23.73,1711417110828125
-30.21,1711417110843750
-36.21,1711417110859375
-40.83,1711417110875000
-43.73,1711417110890625
-45.19,1711417110906250
-46.07,1711417110921875
-47.45,1711417110937500
-50.3,1711417110953125
-55.22,1711417110968750
-62.25,1711417110984375
-70.85,1711417111000000
-79.82,1711417111015625
-87.43,1711417111031250
-91.68,1711417111046875
-90.82,1711417111062500
-83.97,1711417111078125
-71.67,1711417111093750
-55.86,1711417111109375
-39.4,1711417111125000
-25.11,1711417111140625
-14.8,1711417111156250
-8.88,1711417111171875
-6.55,1711417111187500
-6.51,1711417111203125
-7.7,1711417111218750
-9.65,1711417111234375
-12.36,1711417111250000
-15.67,1711417111265625
-18.97,1711417111281250
-21.12,1711417111296875
-20.85,1711417111312500
-17.43,1711417111328125
-11.13,1711417111343750
-3.24,1711417111359375
4.39,1711417111375000
10.12,1711417111390625
13.1,1711417111406250
13.61,1711417111421875
12.72,1711417111437500
11.69,1711417111453125
11.34,1711417111468750
11.64,1711417111484375
11.88,1711417111500000
11.04,1711417111515625
8.39,1711417111531250
3.83,1711417111546875
-2.11,1711417111562500
-8.58,1711417111578125
-14.75,1711417111593750
-20.12,1711417111609375
-24.56,1711417111625000
-28.27,1711417111640625
-31.66,1711417111656250
-35.28,1711417111671875
-39.81,1711417111687500
-45.89,1711417111703125
-53.97,1711417111718750
-63.76,1711417111734375
-73.91,1711417111750000
-81.96,1711417111765625
-84.77,1711417111781250
-79.71,1711417111796875
-65.76,1711417111812500
-44.16,1711417111828125
-18.23,1711417111843750
7.8,1711417111859375
30.27,1711417111875000
47.18,1711417111890625
58.34,1711417111906250
64.74,1711417111921875
67.48,1711417111937500
67.2,1711417111953125
64.06,1711417111968750
58.4,1711417111984375
51.21,1711417112000000
44.15,1711417112015625
38.97,1711417112031250
36.71,1711417112046875
37.21,1711417112062500
39.26,1711417112078125
41.21,1711417112093750
41.76,1711417112109375
40.42,1711417112125000
37.5,1711417112140625
33.82,1711417112156250
30.19,1711417112171875
26.98,1711417112187500
24.0,1711417112203125
20.57,1711417112218750
15.84,1711417112234375
9.34,1711417112250000
1.2,1711417112265625
-7.71,1711417112281250
-16.2,1711417112296875
-23.32,1711417112312500
-28.78,1711417112328125
-33.13,1711417112343750
-37.44,1711417112359375
-42.91,1711417112375000
-50.42,1711417112390625
-60.34,1711417112406250
-72.4,1711417112421875
-85.64,1711417112437500
-98.28,1711417112453125
-107.78,1711417112468750
-111.37,1711417112484375
-106.84,1711417112500000
-93.56,1711417112515625
-72.87,1711417112531250
-47.81,1711417112546875
-22.05,1711417112562500
1.31,1711417112578125
20.56,1711417112593750
35.41,1711417112609375
46.37,1711417112625000
54.13,1711417112640625
59.02,1711417112656250
61.19,1711417112671875
60.88,1711417112687500
58.72,1711417112703125
55.81,1711417112718750
53.35,1711417112734375
52.27,1711417112750000
52.81,1711417112765625
54.46,1711417112781250
56.19,1711417112796875
56.92,1711417112812500
56.04,1711417112828125
53.67,1711417112843750
50.54,1711417112859375
47.62,1711417112875000
45.53,1711417112890625
44.17,1711417112906250
42.79,1711417112921875
40.34,1711417112937500
36.07,1711417112953125
29.87,1711417112968750
22.27,1711417112984375
14.19,1711417113000000
6.43,1711417113015625
-0.62,1711417113031250
-7.04,1711417113046875
-13.32,1711417113062500
-20.16,1711417113078125
-28.25,1711417113093750
-38.2,1711417113109375
-50.23,1711417113125000
-63.92,1711417113140625
-77.88,1711417113156250
-89.81,1711417113171875
-96.89,1711417113187500
-96.73,1711417113203125
-88.31,1711417113218750
-72.58,1711417113234375
-52.3,1711417113250000
-31.1,1711417113265625
-12.19,1711417113281250
2.67,1711417113296875
13.34,1711417113312500
20.92,1711417113328125
26.71,1711417113343750
31.5,1711417113359375
35.35,1711417113375000
37.95,1711417113390625
39.16,1711417113406250
39.36,1711417113421875
39.38,1711417113437500
40.1,1711417113453125
41.98,1711417113468750
44.88,1711417113484375
48.11,1711417113500000
50.83,1711417113515625
52.4,1711417113531250
52.66,1711417113546875
51.89,1711417113562500
50.67,1711417113578125
49.55,1711417113593750
48.72,1711417113609375
47.94,1711417113625000
46.51,1711417113640625
43.65,1711417113656250
38.79,1711417113671875
31.98,1711417113687500
23.87,1711417113703125
15.52,1711417113718750
8.0,1711417113734375
1.83,1711417113750000
-3.14,1711417113765625
-7.78,1711417113781250
-13.34,1711417113796875
-20.99,1711417113812500
-31.56,1711417113828125
-45.26,1711417113843750
-61.45,1711417113859375
-78.57,1711417113875000
-94.09,1711417113890625
-104.93,1711417113906250
-108.19,1711417113921875
-102.13,1711417113937500
-86.95,1711417113953125
-64.94,1711417113968750
-39.8,1711417113984375
-15.53,1711417114000000
4.86,1711417114015625
20.09,1711417114031250
30.46,1711417114046875
37.21,1711417114062500
41.55,1711417114078125
44.14,1711417114093750
45.04,1711417114109375
44.17,1711417114125000
41.8,1711417114140625
38.75,1711417114156250
36.21,1711417114171875
35.15,1711417114187500
35.98,1711417114203125
38.21,1711417114218750
40.84,1711417114234375
42.67,1711417114250000
42.95,1711417114265625
41.54,1711417114281250
38.92,1711417114296875
35.93,1711417114312500
33.26,1711417114328125
31.24,1711417114343750
29.65,1711417114359375
27.91,1711417114375000
25.35,1711417114390625
21.55,1711417114406250
16.59,1711417114421875
11.03,1711417114437500
5.73,1711417114453125
1.39,1711417114468750
-1.74,1711417114484375
-4.13,1711417114500000
-6.74,1711417114515625
-10.68,1711417114531250
-16.81,1711417114546875
-25.56,1711417114562500
-36.92,1711417114578125
-50.53,1711417114593750
-65.66,1711417114609375
-81.01,1711417114625000
-94.49,1711417114640625
-103.33,1711417114656250
-104.8,1711417114671875
-97.16,1711417114687500
-80.52,1711417114703125
-57.19,1711417114718750
-31.0,1711417114734375
-6.09,1711417114750000
14.47,1711417114765625
29.36,1711417114781250
39.08,1711417114796875
45.08,1711417114812500
48.93,1711417114828125
51.61,1711417114843750
53.42,1711417114859375
54.28,1711417114875000
54.15,1711417114890625
53.31,1711417114906250
52.34,1711417114921875
51.92,1711417114937500
52.51,1711417114953125
54.2,1711417114968750
56.7,1711417114984375
59.36,1711417115000000
61.41,1711417115015625
62.14,1711417115031250
61.1,1711417115046875
58.09,1711417115062500
53.23,1711417115078125
46.88,1711417115093750
39.56,1711417115109375
31.91,1711417115125000
24.5,1711417115140625
17.76,1711417115156250
11.81,1711417115171875
6.47,1711417115187500
1.32,1711417115203125
-4.15,1711417115218750
-10.37,1711417115234375
-17.53,1711417115250000
-25.53,1711417115265625
-34.12,1711417115281250
-43.03,1711417115296875
-52.22,1711417115312500
-61.91,1711417115328125
-72.67,1711417115343750
-85.1,1711417115359375
-99.52,1711417115375000
-115.46,1711417115390625
-131.35,1711417115406250
-144.62,1711417115421875
-152.34,1711417115437500
-152.24,1711417115453125
-143.53,1711417115468750
-127.4,1711417115484375
-106.58,1711417115500000
-84.38,1711417115515625
-63.54,1711417115531250
-45.6,1711417115546875
-30.79,1711417115562500
-18.63,1711417115578125
-8.63,1711417115593750
-0.66,1711417115609375
5.09,1711417115625000
8.53,1711417115640625
10.1,1711417115656250
10.76,1711417115671875
11.8,1711417115687500
14.32,1711417115703125
18.91,1711417115718750
25.48,1711417115734375
33.42,1711417115750000
41.91,1711417115765625
50.16,1711417115781250
57.65,1711417115796875
64.09,1711417115812500
69.35,1711417115828125
73.38,1711417115843750
76.14,1711417115859375
77.57,1711417115875000
77.65,1711417115890625
76.45,1711417115906250
74.09,1711417115921875
70.78,1711417115937500
66.81,1711417115953125
62.46,1711417115968750
58.03,1711417115984375
53.68,1711417116000000
49.4,1711417116015625
45.03,1711417116031250
40.19,1711417116046875
34.42,1711417116062500
27.27,1711417116078125
18.32,1711417116093750
7.33,1711417116109375
-5.81,1711417116125000
-20.78,1711417116140625
-36.66,1711417116156250
-51.74,1711417116171875
-63.73,1711417116187500
-70.32,1711417116203125
-69.95,1711417116218750
-62.51,1711417116234375
-49.52,1711417116250000
-33.56,1711417116265625
-17.32,1711417116281250
-2.74,1711417116296875
9.52,1711417116312500
19.85,1711417116328125
29.0,1711417116343750
37.47,1711417116359375
45.17,1711417116375000
51.57,1711417116390625
56.16,1711417116406250
58.79,1711417116421875
59.77,1711417116437500
59.7,1711417116453125
59.16,1711417116468750
58.52,1711417116484375
57.87,1711417116500000
57.17,1711417116515625
56.33,1711417116531250
55.29,1711417116546875
53.99,1711417116562500
52.33,1711417116578125
50.12,1711417116593750
47.22,1711417116609375
43.56,1711417116625000
39.22,1711417116640625
34.49,1711417116656250
29.71,1711417116671875
25.14,1711417116687500
20.89,1711417116703125
16.86,1711417116718750
12.8,1711417116734375
8.4,1711417116750000
3.46,1711417116765625
-2.07,1711417116781250
-8.11,1711417116796875
-14.52,1711417116812500
-21.23,1711417116828125
-28.3,1711417116843750
-35.94,1711417116859375
-44.46,1711417116875000
-54.13,1711417116890625
-64.95,1711417116906250
-76.38,1711417116921875
-87.19,1711417116937500
-95.45,1711417116953125
-98.95,1711417116968750
-95.86,1711417116984375
-85.38,1711417117000000
-68.23,1711417117015625
-46.63,1711417117031250
-23.68,1711417117046875
-2.41,1711417117062500
15.11,1711417117078125
28.18,1711417117093750
37.37,1711417117109375
43.84,1711417117125000
48.68,1711417117140625
52.46,1711417117156250
55.21,1711417117171875
56.74,1711417117187500
57.01,1711417117203125
56.37,1711417117218750
