value,timestamp
-0.0,1711327315000000
-0.0,1711327315015625
-0.0,1711327315031250
-0.0,1711327315046875
-0.0,1711327315062500
-0.0,1711327315078125
-0.0,1711327315093750
-0.0,1711327315109375
-0.0,1711327315125000
-0.0,1711327315140625
0.0,1711327315156250
0.01,1711327315171875
0.01,1711327315187500
-0.0,1711327315203125
-0.03,1711327315218750
-0.05,1711327315234375
-0.05,1711327315250000
0.0,1711327315265625
0.13,1711327315281250
0.36,1711327315296875
0.66,1711327315312500
1.01,1711327315328125
1.37,1711327315343750
1.72,1711327315359375
2.06,1711327315375000
2.4,1711327315390625
2.79,1711327315406250
3.24,1711327315421875
3.8,1711327315437500
4.42,1711327315453125
5.06,1711327315468750
5.66,1711327315484375
6.2,1711327315500000
6.68,1711327315515625
7.15,1711327315531250
7.68,1711327315546875
8.31,1711327315562500
9.14,1711327315578125
10.09,1711327315593750
11.04,1711327315609375
11.88,1711327315625000
12.56,1711327315640625
13.14,1711327315656250
13.76,1711327315671875
14.65,1711327315687500
15.96,1711327315703125
17.91,1711327315718750
20.32,1711327315734375
22.9,1711327315750000
25.38,1711327315765625
27.58,1711327315781250
29.57,1711327315796875
31.68,1711327315812500
34.32,1711327315828125
37.81,1711327315843750
42.54,1711327315859375
48.15,1711327315875000
54.1,1711327315890625
59.83,1711327315906250
64.97,1711327315921875
69.58,1711327315937500
74.14,1711327315953125
79.34,1711327315968750
85.71,1711327315984375
93.76,1711327316000000
103.0,1711327316015625
112.62,1711327316031250
121.73,1711327316046875
129.77,1711327316062500
136.75,1711327316078125
143.3,1711327316093750
150.75,1711327316109375
157.77,1711327316125000
166.64,1711327316140625
177.95,1711327316156250
191.79,1711327316171875
206.97,1711327316187500
220.57,1711327316203125
228.25,1711327316218750
225.36,1711327316234375
208.53,1711327316250000
176.87,1711327316265625
132.76,1711327316281250
80.05,1711327316296875
23.07,1711327316312500
-34.94,1711327316328125
-92.44,1711327316343750
-149.16,1711327316359375
-205.23,1711327316375000
-260.37,1711327316390625
-313.74,1711327316406250
-363.87,1711327316421875
-409.83,1711327316437500
-450.91,1711327316453125
-486.5,1711327316468750
-515.74,1711327316484375
-537.23,1711327316500000
-549.22,1711327316515625
-549.96,1711327316531250
-538.37,1711327316546875
-514.21,1711327316562500
-478.67,1711327316578125
-433.88,1711327316593750
-382.45,1711327316609375
-327.02,1711327316625000
-269.84,1711327316640625
-212.63,1711327316656250
-156.66,1711327316671875
-102.95,1711327316687500
-52.37,1711327316703125
-5.9,1711327316718750
35.58,1711327316734375
71.43,1711327316750000
101.35,1711327316765625
125.5,1711327316781250
144.38,1711327316796875
158.69,1711327316812500
169.15,1711327316828125
176.37,1711327316843750
180.75,1711327316859375
182.57,1711327316875000
182.07,1711327316890625
179.51,1711327316906250
175.23,1711327316921875
169.65,1711327316937500
163.18,1711327316953125
156.15,1711327316968750
148.81,1711327316984375
141.3,1711327317000000
133.69,1711327317015625
126.02,1711327317031250
118.33,1711327317046875
110.69,1711327317062500
103.16,1711327317078125
95.8,1711327317093750
88.68,1711327317109375
81.83,1711327317125000
75.25,1711327317140625
68.95,1711327317156250
62.95,1711327317171875
57.25,1711327317187500
51.86,1711327317203125
46.78,1711327317218750
42.03,1711327317234375
37.59,1711327317250000
33.45,1711327317265625
29.61,1711327317281250
26.07,1711327317296875
22.81,1711327317312500
19.83,1711327317328125
17.11,1711327317343750
14.67,1711327317359375
12.48,1711327317375000
10.54,1711327317390625
8.83,1711327317406250
7.35,1711327317421875
6.07,1711327317437500
4.97,1711327317453125
4.05,1711327317468750
3.27,1711327317484375
2.62,1711327317500000
2.09,1711327317515625
1.65,1711327317531250
1.3,1711327317546875
1.01,1711327317562500
0.79,1711327317578125
0.61,1711327317593750
0.47,1711327317609375
0.37,1711327317625000
0.29,1711327317640625
0.23,1711327317656250
0.19,1711327317671875
0.16,1711327317687500
0.15,1711327317703125
0.15,1711327317718750
0.16,1711327317734375
0.17,1711327317750000
0.19,1711327317765625
0.22,1711327317781250
0.25,1711327317796875
0.29,1711327317812500
0.33,1711327317828125
0.38,1711327317843750
0.42,1711327317859375
0.47,1711327317875000
0.51,1711327317890625
0.55,1711327317906250
0.6,1711327317921875
0.67,1711327317937500
0.75,1711327317953125
0.84,1711327317968750
0.92,1711327317984375
0.96,1711327318000000
0.95,1711327318015625
0.9,1711327318031250
0.81,1711327318046875
0.76,1711327318062500
0.76,1711327318078125
0.87,1711327318093750
1.06,1711327318109375
1.3,1711327318125000
1.53,1711327318140625
1.72,1711327318156250
1.86,1711327318171875
1.97,1711327318187500
2.11,1711327318203125
2.34,1711327318218750
2.7,1711327318234375
3.17,1711327318250000
3.66,1711327318265625
4.11,1711327318281250
4.42,1711327318296875
4.59,1711327318312500
4.71,1711327318328125
4.91,1711327318343750
5.33,1711327318359375
6.05,1711327318375000
7.0,1711327318390625
8.01,1711327318406250
8.81,1711327318421875
9.24,1711327318437500
9.23,1711327318453125
9.02,1711327318468750
8.94,1711327318484375
9.35,1711327318500000
10.44,1711327318515625
12.08,1711327318531250
13.84,1711327318546875
15.16,1711327318562500
15.56,1711327318578125
14.92,1711327318593750
13.5,1711327318609375
11.86,1711327318625000
10.59,1711327318640625
9.9,1711327318656250
9.51,1711327318671875
8.64,1711327318687500
6.32,1711327318703125
1.88,1711327318718750
-4.73,1711327318734375
-12.75,1711327318750000
-20.93,1711327318765625
-28.04,1711327318781250
-33.29,1711327318796875
-36.68,1711327318812500
-38.9,1711327318828125
-40.88,1711327318843750
-43.57,1711327318859375
-47.62,1711327318875000
-53.33,1711327318890625
-60.44,1711327318906250
-67.76,1711327318921875
-72.94,1711327318937500
-72.84,1711327318953125
-64.56,1711327318968750
-46.84,1711327318984375
-21.27,1711327319000000
7.75,1711327319015625
34.35,1711327319031250
53.38,1711327319046875
62.21,1711327319062500
61.44,1711327319078125
54.01,1711327319093750
43.55,1711327319109375
32.81,1711327319125000
23.0,1711327319140625
14.24,1711327319156250
6.51,1711327319171875
0.22,1711327319187500
-3.76,1711327319203125
-4.75,1711327319218750
-2.83,1711327319234375
0.98,1711327319250000
5.11,1711327319265625
8.03,1711327319281250
8.98,1711327319296875
8.01,1711327319312500
5.93,1711327319328125
3.61,1711327319343750
1.57,1711327319359375
-0.34,1711327319375000
-2.59,1711327319390625
-5.61,1711327319406250
-9.4,1711327319421875
-13.46,1711327319437500
-17.02,1711327319453125
-19.25,1711327319468750
-19.74,1711327319484375
-18.74,1711327319500000
-17.16,1711327319515625
-16.23,1711327319531250
-17.09,1711327319546875
-20.33,1711327319562500
-25.6,1711327319578125
-31.52,1711327319593750
-35.59,1711327319609375
-35.07,1711327319625000
-27.92,1711327319640625
-13.67,1711327319656250
6.39,1711327319671875
29.53,1711327319687500
52.56,1711327319703125
73.0,1711327319718750
88.03,1711327319734375
96.28,1711327319750000
97.84,1711327319765625
93.81,1711327319781250
85.7,1711327319796875
74.97,1711327319812500
62.83,1711327319828125
50.28,1711327319843750
38.27,1711327319859375
27.56,1711327319875000
18.99,1711327319890625
13.01,1711327319906250
9.58,1711327319921875
8.23,1711327319937500
8.24,1711327319953125
8.82,1711327319968750
9.27,1711327319984375
8.98,1711327320000000
7.34,1711327320015625
4.07,1711327320031250
-0.97,1711327320046875
-7.63,1711327320062500
-15.55,1711327320078125
-24.09,1711327320093750
-32.54,1711327320109375
-40.28,1711327320125000
-46.99,1711327320140625
-52.82,1711327320156250
-58.25,1711327320171875
-64.09,1711327320187500
-71.31,1711327320203125
-80.6,1711327320218750
-91.8,1711327320234375
-103.48,1711327320250000
-112.82,1711327320265625
-116.21,1711327320281250
-110.41,1711327320296875
-93.74,1711327320312500
-67.08,1711327320328125
-33.86,1711327320343750
0.97,1711327320359375
32.45,1711327320375000
57.03,1711327320390625
73.29,1711327320406250
81.71,1711327320421875
83.82,1711327320437500
81.35,1711327320453125
75.73,1711327320468750
68.1,1711327320484375
59.53,1711327320500000
51.17,1711327320515625
44.13,1711327320531250
39.18,1711327320546875
36.43,1711327320562500
35.45,1711327320578125
35.41,1711327320593750
35.55,1711327320609375
35.3,1711327320625000
34.32,1711327320640625
32.36,1711327320656250
29.13,1711327320671875
24.33,1711327320687500
17.78,1711327320703125
9.61,1711327320718750
0.31,1711327320734375
-9.43,1711327320750000
-18.9,1711327320765625
-27.61,1711327320781250
-35.44,1711327320796875
-42.66,1711327320812500
-49.87,1711327320828125
-57.91,1711327320843750
-67.54,1711327320859375
-79.09,1711327320875000
-91.86,1711327320890625
-103.89,1711327320906250
-112.04,1711327320921875
-112.86,1711327320937500
-103.7,1711327320953125
-83.98,1711327320968750
-55.6,1711327320984375
-22.56,1711327321000000
10.17,1711327321015625
38.28,1711327321031250
59.11,1711327321046875
72.08,1711327321062500
78.12,1711327321078125
78.89,1711327321093750
76.02,1711327321109375
70.73,1711327321125000
63.94,1711327321140625
56.48,1711327321156250
49.26,1711327321171875
43.2,1711327321187500
38.96,1711327321203125
36.76,1711327321218750
36.32,1711327321234375
36.91,1711327321250000
37.64,1711327321265625
37.72,1711327321281250
36.57,1711327321296875
33.86,1711327321312500
29.44,1711327321328125
23.32,1711327321343750
15.64,1711327321359375
6.76,1711327321375000
-2.75,1711327321390625
-12.23,1711327321406250
-20.98,1711327321421875
-28.61,1711327321437500
-35.14,1711327321453125
-41.12,1711327321468750
-47.55,1711327321484375
-55.5,1711327321500000
-65.69,1711327321515625
-77.81,1711327321531250
-90.22,1711327321546875
-99.97,1711327321562500
-103.57,1711327321578125
-98.08,1711327321593750
-82.3,1711327321609375
-57.47,1711327321625000
-27.02,1711327321640625
4.43,1711327321656250
32.56,1711327321671875
54.39,1711327321687500
68.89,1711327321703125
76.6,1711327321718750
78.85,1711327321734375
77.1,1711327321750000
72.49,1711327321765625
65.9,1711327321781250
58.14,1711327321796875
50.09,1711327321812500
42.71,1711327321828125
36.82,1711327321843750
32.91,1711327321859375
30.94,1711327321875000
30.45,1711327321890625
30.68,1711327321906250
30.81,1711327321921875
30.18,1711327321937500
28.31,1711327321953125
24.98,1711327321968750
20.1,1711327321984375
13.71,1711327322000000
5.98,1711327322015625
-2.76,1711327322031250
-11.98,1711327322046875
-21.13,1711327322062500
-29.71,1711327322078125
-37.56,1711327322093750
-44.86,1711327322109375
-52.29,1711327322125000
-60.72,1711327322140625
-70.93,1711327322156250
-82.97,1711327322171875
-95.8,1711327322187500
-107.01,1711327322203125
-113.29,1711327322218750
-111.43,1711327322234375
-99.45,1711327322250000
-77.68,1711327322265625
-48.8,1711327322281250
-17.15,1711327322296875
12.67,1711327322312500
37.14,1711327322328125
54.54,1711327322343750
64.9,1711327322359375
69.31,1711327322375000
69.16,1711327322390625
65.64,1711327322406250
59.7,1711327322421875
52.22,1711327322437500
44.27,1711327322453125
37.07,1711327322468750
31.74,1711327322484375
28.99,1711327322500000
28.9,1711327322515625
30.81,1711327322531250
33.58,1711327322546875
35.9,1711327322562500
36.67,1711327322578125
35.25,1711327322593750
31.62,1711327322609375
26.17,1711327322625000
19.56,1711327322640625
12.36,1711327322656250
4.99,1711327322671875
-2.44,1711327322687500
-9.9,1711327322703125
-17.49,1711327322718750
-25.3,1711327322734375
-33.58,1711327322750000
-42.68,1711327322765625
-52.99,1711327322781250
-64.57,1711327322796875
-76.68,1711327322812500
-87.47,1711327322828125
-94.13,1711327322843750
-93.66,1711327322859375
-83.96,1711327322875000
-64.9,1711327322890625
-38.64,1711327322906250
-9.01,1711327322921875
19.58,1711327322937500
43.6,1711327322953125
61.1,1711327322968750
71.84,1711327322984375
76.59,1711327323000000
76.54,1711327323015625
72.73,1711327323031250
66.14,1711327323046875
57.77,1711327323062500
48.87,1711327323078125
40.72,1711327323093750
34.44,1711327323109375
30.55,1711327323125000
28.97,1711327323140625
29.03,1711327323156250
29.74,1711327323171875
30.11,1711327323187500
29.34,1711327323203125
26.94,1711327323218750
22.82,1711327323234375
17.18,1711327323250000
10.44,1711327323265625
3.03,1711327323281250
-4.67,1711327323296875
-12.49,1711327323312500
-20.43,1711327323328125
-28.52,1711327323343750
-36.92,1711327323359375
-45.82,1711327323375000
-55.56,1711327323390625
-66.5,1711327323406250
-78.7,1711327323421875
-91.46,1711327323437500
-103.0,1711327323453125
-110.53,1711327323468750
-110.89,1711327323484375
-101.77,1711327323500000
-82.69,1711327323515625
-55.51,1711327323531250
-24.11,1711327323546875
6.87,1711327323562500
33.41,1711327323578125
53.17,1711327323593750
65.76,1711327323609375
72.18,1711327323625000
73.94,1711327323640625
72.31,1711327323656250
68.06,1711327323671875
61.77,1711327323687500
54.15,1711327323703125
46.3,1711327323718750
39.5,1711327323734375
34.85,1711327323750000
32.76,1711327323765625
32.88,1711327323781250
34.25,1711327323796875
35.68,1711327323812500
36.18,1711327323828125
35.19,1711327323843750
32.43,1711327323859375
27.88,1711327323875000
21.67,1711327323890625
13.96,1711327323906250
5.15,1711327323921875
-4.27,1711327323937500
-13.65,1711327323953125
-22.48,1711327323968750
-30.56,1711327323984375
-38.17,1711327324000000
-46.05,1711327324015625
-55.11,1711327324031250
-65.97,1711327324046875
-78.34,1711327324062500
-90.73,1711327324078125
-100.39,1711327324093750
-103.99,1711327324109375
-98.7,1711327324125000
-83.31,1711327324140625
-58.89,1711327324156250
-28.69,1711327324171875
2.86,1711327324187500
31.43,1711327324203125
53.94,1711327324218750
69.15,1711327324234375
77.36,1711327324250000
79.83,1711327324265625
78.01,1711327324281250
73.19,1711327324296875
66.39,1711327324312500
58.56,1711327324328125
50.65,1711327324343750
43.61,1711327324359375
38.19,1711327324375000
34.79,1711327324390625
33.32,1711327324406250
33.3,1711327324421875
33.96,1711327324437500
34.45,1711327324453125
33.98,1711327324468750
31.9,1711327324484375
27.88,1711327324500000
21.91,1711327324515625
14.28,1711327324531250
5.58,1711327324546875
-3.52,1711327324562500
-12.38,1711327324578125
-20.6,1711327324593750
-28.09,1711327324609375
-35.15,1711327324625000
-42.4,1711327324640625
-50.7,1711327324656250
-60.85,1711327324671875
-73.07,1711327324687500
-86.56,1711327324703125
-99.19,1711327324718750
-107.76,1711327324734375
-108.81,1711327324750000
-99.87,1711327324765625
-80.52,1711327324781250
-52.83,1711327324796875
-20.88,1711327324812500
10.47,1711327324828125
37.07,1711327324843750
56.48,1711327324859375
68.2,1711327324875000
73.25,1711327324890625
73.27,1711327324906250
69.8,1711327324921875
64.04,1711327324937500
56.77,1711327324953125
48.77,1711327324968750
40.89,1711327324984375
34.06,1711327325000000
29.09,1711327325015625
26.39,1711327325031250
25.82,1711327325046875
26.7,1711327325062500
28.08,1711327325078125
28.91,1711327325093750
28.37,1711327325109375
25.96,1711327325125000
21.51,1711327325140625
15.16,1711327325156250
7.31,1711327325171875
-1.43,1711327325187500
-10.41,1711327325203125
-19.0,1711327325218750
-26.89,1711327325234375
-34.1,1711327325250000
-41.07,1711327325265625
-48.57,1711327325281250
-57.41,1711327325296875
-68.06,1711327325312500
-80.24,1711327325328125
-92.6,1711327325343750
-102.61,1711327325359375
-107.14,1711327325375000
-103.27,1711327325390625
-89.39,1711327325406250
-66.1,1711327325421875
-36.26,1711327325437500
-4.33,1711327325453125
25.04,1711327325468750
48.34,1711327325484375
64.04,1711327325500000
72.45,1711327325515625
75.06,1711327325531250
73.54,1711327325546875
69.16,1711327325562500
62.75,1711327325578125
55.01,1711327325593750
46.81,1711327325609375
39.26,1711327325625000
33.43,1711327325640625
29.94,1711327325656250
28.79,1711327325671875
29.29,1711327325687500
30.4,1711327325703125
31.03,1711327325718750
30.32,1711327325734375
27.79,1711327325750000
23.28,1711327325765625
16.87,1711327325781250
8.86,1711327325796875
-0.34,1711327325812500
-10.18,1711327325828125
-20.05,1711327325843750
-29.48,1711327325859375
-38.26,1711327325875000
-46.62,1711327325890625
-55.19,1711327325906250
-64.74,1711327325921875
-75.84,1711327325937500
-88.31,1711327325953125
-100.95,1711327325968750
-111.4,1711327325984375
-116.59,1711327326000000
-113.58,1711327326015625
-100.64,1711327326031250
-77.96,1711327326046875
-48.0,1711327326062500
-14.89,1711327326078125
16.73,1711327326093750
43.03,1711327326109375
61.91,1711327326125000
73.24,1711327326140625
78.28,1711327326156250
78.79,1711327326171875
76.27,1711327326187500
71.66,1711327326203125
65.54,1711327326218750
58.49,1711327326234375
51.34,1711327326250000
45.03,1711327326265625
40.35,1711327326281250
37.63,1711327326296875
36.66,1711327326312500
36.84,1711327326328125
37.36,1711327326343750
37.41,1711327326359375
36.27,1711327326375000
33.37,1711327326390625
28.4,1711327326406250
21.4,1711327326421875
12.83,1711327326437500
3.47,1711327326453125
-5.82,1711327326468750
-14.41,1711327326484375
-22.15,1711327326500000
-29.33,1711327326515625
-36.58,1711327326531250
-44.63,1711327326546875
-54.19,1711327326562500
-65.68,1711327326578125
-78.95,1711327326593750
-92.89,1711327326609375
-105.2,1711327326625000
-112.61,1711327326640625
-111.73,1711327326656250
-100.3,1711327326671875
-78.27,1711327326687500
-48.24,1711327326703125
-14.75,1711327326718750
17.12,1711327326734375
43.37,1711327326750000
62.02,1711327326765625
73.17,1711327326781250
78.18,1711327326796875
78.75,1711327326812500
76.17,1711327326828125
71.29,1711327326843750
64.77,1711327326859375
57.44,1711327326875000
50.37,1711327326890625
44.6,1711327326906250
40.83,1711327326921875
39.1,1711327326937500
38.92,1711327326953125
39.41,1711327326968750
39.73,1711327326984375
39.17,1711327327000000
37.28,1711327327015625
33.86,1711327327031250
28.79,1711327327046875
22.15,1711327327062500
14.19,1711327327078125
5.35,1711327327093750
-3.83,1711327327109375
-12.8,1711327327125000
-21.17,1711327327140625
-28.84,1711327327156250
-36.11,1711327327171875
-43.63,1711327327187500
-52.27,1711327327203125
-62.84,1711327327218750
-75.6,1711327327234375
-89.75,1711327327250000
-103.13,1711327327265625
-112.46,1711327327281250
-114.1,1711327327296875
-105.37,1711327327312500
-85.65,1711327327328125
-56.89,1711327327343750
-23.26,1711327327359375
10.22,1711327327375000
39.11,1711327327390625
60.73,1711327327406250
74.44,1711327327421875
81.18,1711327327437500
82.62,1711327327453125
80.4,1711327327468750
75.77,1711327327484375
69.65,1711327327500000
62.89,1711327327515625
56.28,1711327327531250
50.55,1711327327546875
46.1,1711327327562500
42.98,1711327327578125
40.92,1711327327593750
39.53,1711327327609375
38.5,1711327327625000
37.56,1711327327640625
36.47,1711327327656250
34.78,1711327327671875
31.93,1711327327687500
27.37,1711327327703125
20.78,1711327327718750
12.3,1711327327734375
2.57,1711327327750000
-7.53,1711327327765625
-17.21,1711327327781250
-25.96,1711327327796875
-33.82,1711327327812500
-41.18,1711327327828125
-48.81,1711327327843750
-57.56,1711327327859375
-68.19,1711327327875000
-80.94,1711327327890625
-95.02,1711327327906250
-108.38,1711327327921875
-117.72,1711327327937500
-119.31,1711327327953125
-110.29,1711327327968750
-89.92,1711327327984375
-60.2,1711327328000000
-25.56,1711327328015625
8.61,1711327328031250
37.6,1711327328046875
58.7,1711327328062500
71.52,1711327328078125
77.34,1711327328093750
78.1,1711327328109375
75.44,1711327328125000
70.41,1711327328140625
63.63,1711327328156250
55.73,1711327328171875
47.6,1711327328187500
40.35,1711327328203125
34.98,1711327328218750
32.06,1711327328234375
31.51,1711327328250000
32.66,1711327328265625
34.52,1711327328281250
36.04,1711327328296875
36.39,1711327328312500
34.99,1711327328328125
31.55,1711327328343750
26.04,1711327328359375
18.66,1711327328375000
9.87,1711327328390625
0.31,1711327328406250
-9.23,1711327328421875
-18.09,1711327328437500
-25.89,1711327328453125
-32.69,1711327328468750
-39.08,1711327328484375
-46.05,1711327328500000
-54.68,1711327328515625
-65.74,1711327328531250
-79.07,1711327328546875
-93.09,1711327328562500
-104.88,1711327328578125
-110.72,1711327328593750
-107.29,1711327328609375
-93.01,1711327328625000
-68.82,1711327328640625
-38.17,1711327328656250
-5.93,1711327328671875
23.25,1711327328687500
46.2,1711327328703125
61.77,1711327328718750
70.52,1711327328734375
73.79,1711327328750000
72.9,1711327328765625
68.8,1711327328781250
62.21,1711327328796875
53.99,1711327328812500
45.28,1711327328828125
37.42,1711327328843750
31.53,1711327328859375
28.19,1711327328875000
27.25,1711327328890625
28.0,1711327328906250
29.47,1711327328921875
30.74,1711327328937500
31.08,1711327328953125
30.0,1711327328968750
27.17,1711327328984375
22.41,1711327329000000
15.74,1711327329015625
7.48,1711327329031250
-1.83,1711327329046875
-11.46,1711327329062500
-20.77,1711327329078125
-29.37,1711327329093750
-37.27,1711327329109375
-44.9,1711327329125000
-52.98,1711327329140625
-62.37,1711327329156250
-73.69,1711327329171875
-86.87,1711327329187500
-100.74,1711327329203125
-112.83,1711327329218750
-119.76,1711327329234375
-118.15,1711327329250000
-105.86,1711327329265625
-82.98,1711327329281250
-52.12,1711327329296875
-17.72,1711327329312500
15.28,1711327329328125
42.85,1711327329343750
62.81,1711327329359375
74.9,1711327329375000
80.22,1711327329390625
80.38,1711327329406250
76.9,1711327329421875
70.97,1711327329437500
63.63,1711327329453125
55.88,1711327329468750
48.77,1711327329484375
43.26,1711327329500000
39.87,1711327329515625
38.58,1711327329531250
38.77,1711327329546875
39.54,1711327329562500
40.01,1711327329578125
39.54,1711327329593750
37.8,1711327329609375
34.64,1711327329625000
30.0,1711327329640625
23.8,1711327329656250
16.09,1711327329671875
7.12,1711327329687500
-2.56,1711327329703125
-12.3,1711327329718750
-21.49,1711327329734375
-29.87,1711327329750000
-37.62,1711327329765625
-45.3,1711327329781250
-53.82,1711327329796875
-64.07,1711327329812500
-76.52,1711327329828125
-90.74,1711327329843750
-105.0,1711327329859375
-116.24,1711327329875000
-120.83,1711327329890625
-115.68,1711327329906250
-99.46,1711327329921875
-73.39,1711327329937500
-40.97,1711327329953125
-6.98,1711327329968750
23.91,1711327329984375
48.41,1711327330000000
65.14,1711327330015625
74.39,1711327330031250
77.5,1711327330046875
76.15,1711327330062500
71.89,1711327330078125
66.01,1711327330093750
59.61,1711327330109375
53.57,1711327330125000
48.55,1711327330140625
44.89,1711327330156250
42.54,1711327330171875
41.14,1711327330187500
40.24,1711327330203125
39.46,1711327330218750
38.6,1711327330234375
37.57,1711327330250000
36.22,1711327330265625
34.18,1711327330281250
30.85,1711327330296875
25.66,1711327330312500
18.3,1711327330328125
9.0,1711327330343750
-1.53,1711327330359375
-12.28,1711327330375000
-22.39,1711327330390625
-31.34,1711327330406250
-39.19,1711327330421875
-46.49,1711327330437500
-54.16,1711327330453125
-63.21,1711327330468750
-74.29,1711327330484375
-87.14,1711327330500000
-100.15,1711327330515625
-110.39,1711327330531250
-114.25,1711327330546875
-108.62,1711327330562500
-92.19,1711327330578125
-66.19,1711327330593750
-34.24,1711327330609375
-1.18,1711327330625000
28.37,1711327330640625
51.42,1711327330656250
66.96,1711327330671875
75.68,1711327330687500
79.04,1711327330703125
78.47,1711327330718750
75.0,1711327330734375
69.38,1711327330750000
62.41,1711327330765625
55.1,1711327330781250
48.58,1711327330796875
43.78,1711327330812500
41.06,1711327330828125
40.14,1711327330843750
40.26,1711327330859375
40.51,1711327330875000
40.28,1711327330890625
39.27,1711327330906250
37.46,1711327330921875
34.8,1711327330937500
31.1,1711327330953125
26.02,1711327330968750
19.24,1711327330984375
10.78,1711327331000000
1.08,1711327331015625
-9.08,1711327331031250
-18.82,1711327331046875
-27.57,1711327331062500
-35.26,1711327331078125
-42.42,1711327331093750
-49.95,1711327331109375
-58.87,1711327331125000
-69.83,1711327331140625
-82.65,1711327331156250
-96.02,1711327331171875
-107.38,1711327331187500
-113.42,1711327331203125
-110.98,1711327331218750
-98.16,1711327331234375
-75.24,1711327331250000
-44.91,1711327331265625
-11.56,1711327331281250
19.98,1711327331296875
45.83,1711327331312500
64.01,1711327331328125
74.54,1711327331343750
78.74,1711327331359375
78.4,1711327331375000
75.04,1711327331390625
69.65,1711327331406250
62.95,1711327331421875
55.69,1711327331437500
48.82,1711327331453125
43.31,1711327331468750
39.78,1711327331484375
38.25,1711327331500000
38.12,1711327331515625
38.44,1711327331531250
38.37,1711327331546875
37.49,1711327331562500
35.72,1711327331578125
33.12,1711327331593750
29.62,1711327331609375
24.92,1711327331625000
18.61,1711327331640625
10.52,1711327331656250
0.9,1711327331671875
-9.58,1711327331687500
-19.96,1711327331703125
-29.43,1711327331718750
-37.55,1711327331734375
-44.48,1711327331750000
-50.94,1711327331765625
-58.1,1711327331781250
-67.08,1711327331796875
-78.43,1711327331812500
-91.49,1711327331828125
-104.09,1711327331843750
-112.9,1711327331859375
-114.28,1711327331875000
-105.64,1711327331890625
-86.47,1711327331906250
-58.8,1711327331921875
-26.62,1711327331937500
5.28,1711327331953125
32.82,1711327331968750
53.47,1711327331984375
66.6,1711327332000000
72.88,1711327332015625
73.66,1711327332031250
70.25,1711327332046875
63.75,1711327332062500
55.22,1711327332078125
45.81,1711327332093750
36.93,1711327332109375
29.95,1711327332125000
25.83,1711327332140625
24.78,1711327332156250
26.16,1711327332171875
28.82,1711327332187500
31.47,1711327332203125
33.17,1711327332218750
33.41,1711327332234375
32.07,1711327332250000
29.11,1711327332265625
24.48,1711327332281250
18.1,1711327332296875
10.03,1711327332312500
0.7,1711327332328125
-9.19,1711327332343750
-18.71,1711327332359375
-27.09,1711327332375000
-34.05,1711327332390625
-39.92,1711327332406250
-45.75,1711327332421875
-52.9,1711327332437500
-62.58,1711327332453125
-75.02,1711327332468750
-88.92,1711327332484375
-101.29,1711327332500000
-108.21,1711327332515625
-106.0,1711327332531250
-92.7,1711327332546875
-69.03,1711327332562500
-38.32,1711327332578125
-5.5,1711327332593750
24.51,1711327332609375
48.14,1711327332625000
63.93,1711327332640625
72.25,1711327332656250
74.57,1711327332671875
72.53,1711327332687500
67.46,1711327332703125
60.26,1711327332718750
51.73,1711327332734375
42.77,1711327332750000
34.51,1711327332765625
28.03,1711327332781250
24.09,1711327332796875
22.79,1711327332812500
23.56,1711327332828125
25.36,1711327332843750
27.01,1711327332859375
27.63,1711327332875000
26.66,1711327332890625
23.91,1711327332906250
19.38,1711327332921875
13.17,1711327332937500
5.44,1711327332953125
-3.44,1711327332968750
-12.92,1711327332984375
-22.34,1711327333000000
-31.18,1711327333015625
-39.25,1711327333031250
-46.9,1711327333046875
-54.86,1711327333062500
-64.1,1711327333078125
-75.4,1711327333093750
-88.84,1711327333109375
-103.28,1711327333125000
-116.25,1711327333140625
-124.23,1711327333156250
-123.66,1711327333171875
-112.2,1711327333187500
-89.76,1711327333203125
-58.86,1711327333218750
-24.02,1711327333234375
9.7,1711327333250000
38.14,1711327333265625
59.04,1711327333281250
72.14,1711327333296875
78.59,1711327333312500
80.05,1711327333328125
77.99,1711327333343750
73.48,1711327333359375
67.31,1711327333375000
60.25,1711327333390625
53.15,1711327333406250
46.88,1711327333421875
42.23,1711327333437500
39.66,1711327333453125
39.2,1711327333468750
40.43,1711327333484375
42.58,1711327333500000
44.6,1711327333515625
45.39,1711327333531250
43.95,1711327333546875
39.65,1711327333562500
32.48,1711327333578125
23.05,1711327333593750
12.45,1711327333609375
1.95,1711327333625000
-7.47,1711327333640625
-15.47,1711327333656250
-22.33,1711327333671875
-28.78,1711327333687500
-35.69,1711327333703125
-43.76,1711327333718750
-53.34,1711327333734375
-64.17,1711327333750000
-74.97,1711327333765625
-83.06,1711327333781250
-84.56,1711327333796875
-75.17,1711327333812500
-51.97,1711327333828125
-15.25,1711327333843750
30.7,1711327333859375
78.29,1711327333875000
119.04,1711327333890625
146.45,1711327333906250
158.0,1711327333921875
155.39,1711327333937500
143.07,1711327333953125
125.95,1711327333968750
107.59,1711327333984375
89.6,1711327334000000
72.13,1711327334015625
54.83,1711327334031250
37.4,1711327334046875
19.54,1711327334062500
0.49,1711327334078125
-21.07,1711327334093750
-46.72,1711327334109375
-77.12,1711327334125000
-111.22,1711327334140625
-146.04,1711327334156250
-177.52,1711327334171875
-202.06,1711327334187500
-217.97,1711327334203125
-226.12,1711327334218750
-229.35,1711327334234375
-231.13,1711327334250000
-234.0,1711327334265625
-238.71,1711327334281250
-244.39,1711327334296875
-249.48,1711327334312500
-252.77,1711327334328125
-254.03,1711327334343750
-254.15,1711327334359375
-254.62,1711327334375000
-256.96,1711327334390625
-261.98,1711327334406250
-269.33,1711327334421875
-277.18,1711327334437500
-282.51,1711327334453125
-281.74,1711327334468750
-271.79,1711327334484375
-250.99,1711327334500000
-219.5,1711327334515625
-179.28,1711327334531250
-133.33,1711327334546875
-84.94,1711327334562500
-37.17,1711327334578125
7.41,1711327334593750
46.74,1711327334609375
79.31,1711327334625000
104.22,1711327334640625
121.38,1711327334656250
131.54,1711327334671875
136.1,1711327334687500
136.88,1711327334703125
135.69,1711327334718750
134.14,1711327334734375
133.41,1711327334750000
134.16,1711327334765625
136.47,1711327334781250
139.92,1711327334796875
143.75,1711327334812500
147.11,1711327334828125
149.24,1711327334843750
149.66,1711327334859375
148.09,1711327334875000
144.55,1711327334890625
139.3,1711327334906250
132.98,1711327334921875
126.39,1711327334937500
120.11,1711327334953125
114.33,1711327334968750
108.76,1711327334984375
102.66,1711327335000000
95.01,1711327335015625
84.76,1711327335031250
71.26,1711327335046875
54.91,1711327335062500
37.19,1711327335078125
20.68,1711327335093750
8.62,1711327335109375
4.14,1711327335125000
9.3,1711327335140625
24.14,1711327335156250
46.42,1711327335171875
72.21,1711327335187500
97.6,1711327335203125
119.43,1711327335218750
135.85,1711327335234375
146.36,1711327335250000
151.49,1711327335265625
152.28,1711327335281250
149.74,1711327335296875
144.74,1711327335312500
138.26,1711327335328125
132.86,1711327335343750
130.89,1711327335359375
133.51,1711327335375000
140.33,1711327335390625
149.98,1711327335406250
160.86,1711327335421875
171.43,1711327335437500
180.31,1711327335453125
186.47,1711327335468750
192.09,1711327335484375
199.1,1711327335500000
207.73,1711327335515625
216.35,1711327335531250
223.02,1711327335546875
226.78,1711327335562500
227.72,1711327335578125
226.42,1711327335593750
223.63,1711327335609375
224.25,1711327335625000
231.38,1711327335640625
243.93,1711327335656250
256.83,1711327335671875
264.4,1711327335687500
263.56,1711327335703125
254.74,1711327335718750
241.2,1711327335734375
227.77,1711327335750000
224.78,1711327335765625
239.29,1711327335781250
271.22,1711327335796875
313.69,1711327335812500
357.65,1711327335828125
396.27,1711327335843750
426.24,1711327335859375
447.14,1711327335875000
425.07,1711327335890625
344.4,1711327335906250
215.95,1711327335921875
72.09,1711327335937500
-55.95,1711327335953125
-153.06,1711327335968750
-218.02,1711327335984375
-255.88,1711327336000000
-273.09,1711327336015625
-275.86,1711327336031250
-264.49,1711327336046875
-240.51,1711327336062500
-208.42,1711327336078125
-175.25,1711327336093750
-147.01,1711327336109375
-126.13,1711327336125000
-111.91,1711327336140625
-102.72,1711327336156250
-97.59,1711327336171875
-92.65,1711327336187500
-83.24,1711327336203125
-69.49,1711327336218750
-54.97,1711327336234375
-43.49,1711327336250000
-36.87,1711327336265625
-34.94,1711327336281250
-36.74,1711327336296875
-41.33,1711327336312500
-45.42,1711327336328125
-46.7,1711327336343750
-45.49,1711327336359375
-44.02,1711327336375000
-44.57,1711327336390625
-48.12,1711327336406250
-54.39,1711327336421875
-62.67,1711327336437500
-72.36,1711327336453125
-81.86,1711327336468750
-90.33,1711327336484375
-98.24,1711327336500000
-106.77,1711327336515625
-116.71,1711327336531250
-128.26,1711327336546875
-141.02,1711327336562500
-154.34,1711327336578125
-167.59,1711327336593750
-179.85,1711327336609375
-190.76,1711327336625000
-200.7,1711327336640625
-210.41,1711327336656250
-220.34,1711327336671875
-230.74,1711327336687500
-241.29,1711327336703125
-251.22,1711327336718750
-259.59,1711327336734375
-265.76,1711327336750000
-270.29,1711327336765625
-274.49,1711327336781250
-279.74,1711327336796875
-286.51,1711327336812500
-294.76,1711327336828125
-303.43,1711327336843750
-310.58,1711327336859375
-313.98,1711327336875000
-311.94,1711327336890625
-305.04,1711327336906250
-294.73,1711327336921875
-282.45,1711327336937500
-268.47,1711327336953125
-254.41,1711327336968750
-241.81,1711327336984375
-231.29,1711327337000000
-221.68,1711327337015625
-210.51,1711327337031250
-197.23,1711327337046875
-181.06,1711327337062500
-160.78,1711327337078125
-133.63,1711327337093750
-101.33,1711327337109375
-67.48,1711327337125000
-35.97,1711327337140625
-9.12,1711327337156250
12.1,1711327337171875
23.86,1711327337187500
24.43,1711327337203125
15.68,1711327337218750
5.14,1711327337234375
-4.35,1711327337250000
-12.24,1711327337265625
-19.66,1711327337281250
-27.36,1711327337296875
-36.4,1711327337312500
-53.09,1711327337328125
-81.68,1711327337343750
-121.58,1711327337359375
-163.73,1711327337375000
-203.63,1711327337390625
-238.34,1711327337406250
-266.16,1711327337421875
-285.07,1711327337437500
-263.48,1711327337453125
-189.9,1711327337468750
-79.02,1711327337484375
13.49,1711327337500000
79.51,1711327337515625
123.41,1711327337531250
157.58,1711327337546875
185.84,1711327337562500
209.97,1711327337578125
230.76,1711327337593750
244.04,1711327337609375
248.42,1711327337625000
247.65,1711327337640625
253.07,1711327337656250
269.27,1711327337671875
296.57,1711327337687500
331.71,1711327337703125
370.76,1711327337718750
409.25,1711327337734375
439.25,1711327337750000
455.5,1711327337765625
457.54,1711327337781250
451.8,1711327337796875
440.85,1711327337812500
425.5,1711327337828125
405.5,1711327337843750
381.62,1711327337859375
355.19,1711327337875000
325.4,1711327337890625
292.33,1711327337906250
257.7,1711327337921875
226.11,1711327337937500
198.69,1711327337953125
174.82,1711327337968750
153.01,1711327337984375
132.25,1711327338000000
111.83,1711327338015625
90.16,1711327338031250
66.32,1711327338046875
40.67,1711327338062500
15.52,1711327338078125
-8.04,1711327338093750
-29.56,1711327338109375
-48.91,1711327338125000
-65.87,1711327338140625
-80.21,1711327338156250
-92.25,1711327338171875
-102.32,1711327338187500
-110.53,1711327338203125
-116.64,1711327338218750
-121.13,1711327338234375
-124.77,1711327338250000
-128.27,1711327338265625
-131.71,1711327338281250
-134.32,1711327338296875
-134.56,1711327338312500
-130.53,1711327338328125
-120.56,1711327338343750
-103.92,1711327338359375
-81.19,1711327338375000
-54.11,1711327338390625
-25.06,1711327338406250
3.56,1711327338421875
29.79,1711327338437500
52.25,1711327338453125
69.85,1711327338468750
81.71,1711327338484375
87.07,1711327338500000
85.69,1711327338515625
78.16,1711327338531250
65.99,1711327338546875
51.22,1711327338562500
35.88,1711327338578125
21.31,1711327338593750
7.89,1711327338609375
-4.74,1711327338625000
-17.16,1711327338640625
-29.6,1711327338656250
-41.76,1711327338671875
-52.94,1711327338687500
-62.56,1711327338703125
-70.58,1711327338718750
-77.54,1711327338734375
-84.3,1711327338750000
-91.56,1711327338765625
-99.45,1711327338781250
-107.51,1711327338796875
-114.91,1711327338812500
-120.99,1711327338828125
-125.54,1711327338843750
-128.9,1711327338859375
-131.75,1711327338875000
-134.73,1711327338890625
-138.16,1711327338906250
-141.85,1711327338921875
-145.15,1711327338937500
-146.95,1711327338953125
-145.87,1711327338968750
-140.46,1711327338984375
-129.66,1711327339000000
-113.23,1711327339015625
-92.06,1711327339031250
-68.06,1711327339046875
-43.65,1711327339062500
-21.09,1711327339078125
-1.94,1711327339093750
13.08,1711327339109375
23.93,1711327339125000
30.93,1711327339140625
34.6,1711327339156250
35.54,1711327339171875
34.57,1711327339187500
32.64,1711327339203125
30.65,1711327339218750
29.21,1711327339234375
28.49,1711327339250000
28.25,1711327339265625
28.07,1711327339281250
27.54,1711327339296875
26.38,1711327339312500
24.37,1711327339328125
21.3,1711327339343750
16.96,1711327339359375
11.29,1711327339375000
4.48,1711327339390625
-2.98,1711327339406250
-10.45,1711327339421875
-17.27,1711327339437500
-23.03,1711327339453125
-27.68,1711327339468750
-31.54,1711327339484375
-35.13,1711327339500000
-39.02,1711327339515625
-43.58,1711327339531250
-48.75,1711327339546875
-53.96,1711327339562500
-58.12,1711327339578125
-59.69,1711327339593750
-57.19,1711327339609375
-49.55,1711327339625000
-36.64,1711327339640625
-19.42,1711327339656250
0.18,1711327339671875
19.74,1711327339687500
37.08,1711327339703125
50.77,1711327339718750
60.33,1711327339734375
66.11,1711327339750000
68.9,1711327339765625
69.56,1711327339781250
68.74,1711327339796875
66.92,1711327339812500
64.46,1711327339828125
61.75,1711327339843750
59.16,1711327339859375
56.94,1711327339875000
55.18,1711327339890625
53.7,1711327339906250
52.18,1711327339921875
50.16,1711327339937500
47.31,1711327339953125
43.41,1711327339968750
38.45,1711327339984375
32.67,1711327340000000
26.38,1711327340015625
19.84,1711327340031250
13.22,1711327340046875
6.55,1711327340062500
-0.24,1711327340078125
-7.16,1711327340093750
-14.14,1711327340109375
-21.13,1711327340125000
-28.27,1711327340140625
-35.87,1711327340156250
-44.37,1711327340171875
-53.86,1711327340187500
-63.78,1711327340203125
-72.68,1711327340218750
-78.45,1711327340234375
-78.94,1711327340250000
-72.81,1711327340265625
-60.18,1711327340281250
-42.77,1711327340296875
-23.37,1711327340312500
-4.97,1711327340328125
10.28,1711327340343750
21.49,1711327340359375
28.99,1711327340375000
33.72,1711327340390625
36.54,1711327340406250
37.85,1711327340421875
37.66,1711327340437500
35.9,1711327340453125
32.81,1711327340468750
29.06,1711327340484375
25.5,1711327340500000
22.85,1711327340515625
21.33,1711327340531250
20.77,1711327340546875
20.67,1711327340562500
20.53,1711327340578125
19.98,1711327340593750
18.86,1711327340609375
17.14,1711327340625000
14.86,1711327340640625
12.05,1711327340656250
8.75,1711327340671875
4.97,1711327340687500
0.71,1711327340703125
-4.05,1711327340718750
-9.3,1711327340734375
-14.96,1711327340750000
-20.93,1711327340765625
-27.17,1711327340781250
-33.79,1711327340796875
-41.02,1711327340812500
-48.99,1711327340828125
-57.37,1711327340843750
-65.15,1711327340859375
-70.64,1711327340875000
-71.95,1711327340890625
-67.69,1711327340906250
-57.65,1711327340921875
-42.92,1711327340937500
-25.65,1711327340953125
-8.38,1711327340968750
6.79,1711327340984375
18.64,1711327341000000
26.85,1711327341015625
31.7,1711327341031250
33.66,1711327341046875
33.19,1711327341062500
30.68,1711327341078125
26.55,1711327341093750
21.41,1711327341109375
15.98,1711327341125000
10.95,1711327341140625
6.73,1711327341156250
3.36,1711327341171875
0.54,1711327341187500
-2.15,1711327341203125
-5.04,1711327341218750
-8.29,1711327341234375
-11.88,1711327341250000
-15.78,1711327341265625
-20.02,1711327341281250
-24.8,1711327341296875
-30.32,1711327341312500
-36.75,1711327341328125
-43.96,1711327341343750
-51.63,1711327341359375
-59.34,1711327341375000
-66.85,1711327341390625
-74.27,1711327341406250
-82.13,1711327341421875
-91.24,1711327341437500
-102.28,1711327341453125
-115.45,1711327341468750
-130.13,1711327341484375
-144.82,1711327341500000
-157.42,1711327341515625
-165.92,1711327341531250
-169.02,1711327341546875
-166.62,1711327341562500
-159.88,1711327341578125
-150.81,1711327341593750
-141.67,1711327341609375
-134.35,1711327341625000
-129.95,1711327341640625
-128.73,1711327341656250
-130.29,1711327341671875
-133.86,1711327341687500
-138.62,1711327341703125
-143.98,1711327341718750
-149.57,1711327341734375
-155.23,1711327341750000
-160.83,1711327341765625
-166.12,1711327341781250
-170.57,1711327341796875
-173.42,1711327341812500
-173.78,1711327341828125
-170.86,1711327341843750
-164.23,1711327341859375
-153.92,1711327341875000
-140.51,1711327341890625
-124.92,1711327341906250
-108.26,1711327341921875
-91.55,1711327341937500
-75.61,1711327341953125
-60.98,1711327341968750
-48.05,1711327341984375
-37.12,1711327342000000
-28.32,1711327342015625
-21.64,1711327342031250
-16.76,1711327342046875
-13.26,1711327342062500
-10.83,1711327342078125
-9.53,1711327342093750
-9.69,1711327342109375
-11.46,1711327342125000
-14.15,1711327342140625
-15.96,1711327342156250
-14.33,1711327342171875
-6.83,1711327342187500
7.7,1711327342203125
28.55,1711327342218750
53.31,1711327342234375
78.92,1711327342250000
102.64,1711327342265625
122.69,1711327342281250
138.18,1711327342296875
148.6,1711327342312500
153.49,1711327342328125
152.53,1711327342343750
146.03,1711327342359375
135.34,1711327342375000
122.8,1711327342390625
111.03,1711327342406250
102.06,1711327342421875
96.64,1711327342437500
94.24,1711327342453125
93.6,1711327342468750
93.52,1711327342484375
93.38,1711327342500000
93.11,1711327342515625
92.87,1711327342531250
92.51,1711327342546875
91.51,1711327342562500
89.13,1711327342578125
84.93,1711327342593750
79.02,1711327342609375
71.99,1711327342625000
64.59,1711327342640625
57.19,1711327342656250
49.57,1711327342671875
41.08,1711327342687500
30.95,1711327342703125
18.77,1711327342718750
4.57,1711327342734375
-10.97,1711327342750000
-26.52,1711327342765625
-40.08,1711327342781250
-49.0,1711327342796875
-50.3,1711327342812500
-41.44,1711327342828125
-21.17,1711327342843750
9.67,1711327342859375
48.11,1711327342875000
89.76,1711327342890625
130.0,1711327342906250
165.2,1711327342921875
193.31,1711327342937500
213.81,1711327342953125
227.19,1711327342968750
234.42,1711327342984375
236.7,1711327343000000
235.3,1711327343015625
231.51,1711327343031250
226.54,1711327343046875
221.16,1711327343062500
215.7,1711327343078125
210.07,1711327343093750
204.03,1711327343109375
197.56,1711327343125000
191.0,1711327343140625
185.01,1711327343156250
180.27,1711327343171875
177.31,1711327343187500
176.1,1711327343203125
176.05,1711327343218750
175.95,1711327343234375
174.12,1711327343250000
168.55,1711327343265625
157.27,1711327343281250
138.79,1711327343296875
112.45,1711327343312500
78.69,1711327343328125
38.75,1711327343343750
-5.68,1711327343359375
-52.99,1711327343375000
-101.94,1711327343390625
-151.25,1711327343406250
-199.05,1711327343421875
-242.28,1711327343437500
-277.0,1711327343453125
-299.22,1711327343468750
-306.41,1711327343484375
-298.4,1711327343500000
-277.67,1711327343515625
-248.46,1711327343531250
-215.6,1711327343546875
-183.48,1711327343562500
-155.6,1711327343578125
-134.55,1711327343593750
-121.95,1711327343609375
-118.22,1711327343625000
-122.16,1711327343640625
-131.0,1711327343656250
-141.05,1711327343671875
-148.91,1711327343687500
-152.59,1711327343703125
-151.92,1711327343718750
-148.19,1711327343734375
-143.08,1711327343750000
-137.81,1711327343765625
-132.79,1711327343781250
-127.69,1711327343796875
-121.85,1711327343812500
-114.52,1711327343828125
-105.03,1711327343843750
-92.89,1711327343859375
-78.17,1711327343875000
-61.73,1711327343890625
-45.38,1711327343906250
-31.48,1711327343921875
-22.19,1711327343937500
-18.72,1711327343953125
-20.97,1711327343968750
-27.8,1711327343984375
-37.59,1711327344000000
-48.87,1711327344015625
-60.35,1711327344031250
-70.64,1711327344046875
-77.8,1711327344062500
-79.34,1711327344078125
-72.79,1711327344093750
-56.76,1711327344109375
-31.77,1711327344125000
-0.59,1711327344140625
32.36,1711327344156250
62.24,1711327344171875
85.18,1711327344187500
99.11,1711327344203125
103.86,1711327344218750
100.59,1711327344234375
90.93,1711327344250000
76.45,1711327344265625
58.6,1711327344281250
39.01,1711327344296875
19.83,1711327344312500
3.48,1711327344328125
-7.83,1711327344343750
-12.94,1711327344359375
-12.02,1711327344375000
-6.6,1711327344390625
1.19,1711327344406250
9.36,1711327344421875
16.55,1711327344437500
22.16,1711327344453125
26.12,1711327344468750
28.59,1711327344484375
29.74,1711327344500000
29.69,1711327344515625
28.55,1711327344531250
26.43,1711327344546875
23.49,1711327344562500
19.85,1711327344578125
15.63,1711327344593750
10.75,1711327344609375
4.95,1711327344625000
-2.16,1711327344640625
-10.67,1711327344656250
-20.02,1711327344671875
-28.47,1711327344687500
-33.31,1711327344703125
-31.46,1711327344718750
-20.47,1711327344734375
0.39,1711327344750000
29.72,1711327344765625
64.19,1711327344781250
99.58,1711327344796875
131.92,1711327344812500
158.46,1711327344828125
178.0,1711327344843750
190.57,1711327344859375
197.03,1711327344875000
198.3,1711327344890625
195.24,1711327344906250
188.57,1711327344921875
179.18,1711327344937500
168.28,1711327344953125
157.37,1711327344968750
147.9,1711327344984375
140.89,1711327345000000
136.5,1711327345015625
133.99,1711327345031250
131.98,1711327345046875
128.98,1711327345062500
123.82,1711327345078125
116.06,1711327345093750
105.95,1711327345109375
94.27,1711327345125000
81.96,1711327345140625
69.85,1711327345156250
58.45,1711327345171875
47.81,1711327345187500
37.68,1711327345203125
27.51,1711327345218750
16.57,1711327345234375
4.21,1711327345250000
-9.94,1711327345265625
-25.53,1711327345281250
-41.17,1711327345296875
-54.35,1711327345312500
-61.9,1711327345328125
-60.83,1711327345343750
-49.52,1711327345359375
-28.47,1711327345375000
-0.45,1711327345390625
30.25,1711327345406250
59.18,1711327345421875
82.94,1711327345437500
99.95,1711327345453125
110.28,1711327345468750
114.95,1711327345484375
115.08,1711327345500000
111.4,1711327345515625
104.4,1711327345531250
94.75,1711327345546875
83.61,1711327345562500
72.65,1711327345578125
63.58,1711327345593750
57.59,1711327345609375
54.93,1711327345625000
54.79,1711327345640625
55.65,1711327345656250
55.88,1711327345671875
54.17,1711327345687500
49.95,1711327345703125
43.3,1711327345718750
34.82,1711327345734375
25.23,1711327345750000
15.18,1711327345765625
5.08,1711327345781250
-4.93,1711327345796875
-14.89,1711327345812500
-25.0,1711327345828125
-35.58,1711327345843750
-47.12,1711327345859375
-60.02,1711327345875000
-74.22,1711327345890625
-88.72,1711327345906250
-101.24,1711327345921875
-108.56,1711327345937500
-107.38,1711327345953125
-95.61,1711327345968750
-73.32,1711327345984375
-43.09,1711327346000000
-9.24,1711327346015625
23.37,1711327346031250
50.83,1711327346046875
71.03,1711327346062500
83.77,1711327346078125
90.17,1711327346093750
91.81,1711327346109375
90.04,1711327346125000
85.72,1711327346140625
79.44,1711327346156250
71.76,1711327346171875
63.55,1711327346187500
55.91,1711327346203125
49.87,1711327346218750
46.06,1711327346234375
44.36,1711327346250000
43.94,1711327346265625
43.57,1711327346281250
42.11,1711327346296875
38.81,1711327346312500
33.52,1711327346328125
26.58,1711327346343750
18.49,1711327346359375
9.79,1711327346375000
0.83,1711327346390625
-8.25,1711327346406250
-17.46,1711327346421875
-26.97,1711327346437500
-37.08,1711327346453125
-48.21,1711327346468750
-60.81,1711327346484375
-75.09,1711327346500000
-90.6,1711327346515625
-105.86,1711327346531250
-118.3,1711327346546875
-124.75,1711327346562500
-122.41,1711327346578125
-109.99,1711327346593750
-88.52,1711327346609375
-61.29,1711327346625000
-32.96,1711327346640625
-7.98,1711327346656250
10.77,1711327346671875
22.65,1711327346687500
28.94,1711327346703125
31.8,1711327346718750
33.02,1711327346734375
33.45,1711327346750000
33.05,1711327346765625
31.52,1711327346781250
28.96,1711327346796875
26.1,1711327346812500
24.09,1711327346828125
23.92,1711327346843750
25.9,1711327346859375
29.52,1711327346875000
33.75,1711327346890625
37.41,1711327346906250
39.56,1711327346921875
39.71,1711327346937500
37.72,1711327346953125
33.71,1711327346968750
28.02,1711327346984375
21.07,1711327347000000
13.48,1711327347015625
5.94,1711327347031250
-0.93,1711327347046875
-6.79,1711327347062500
-11.81,1711327347078125
-16.66,1711327347093750
-22.27,1711327347109375
-29.08,1711327347125000
-36.5,1711327347140625
-42.47,1711327347156250
-43.82,1711327347171875
-37.39,1711327347187500
-21.43,1711327347203125
3.4,1711327347218750
33.86,1711327347234375
65.04,1711327347250000
92.06,1711327347265625
111.65,1711327347281250
123.06,1711327347296875
127.85,1711327347312500
128.92,1711327347328125
129.29,1711327347343750
131.22,1711327347359375
135.86,1711327347375000
143.32,1711327347390625
152.78,1711327347406250
162.53,1711327347421875
170.24,1711327347437500
173.17,1711327347453125
168.94,1711327347468750
156.62,1711327347484375
137.29,1711327347500000
114.33,1711327347515625
92.01,1711327347531250
73.75,1711327347546875
60.81,1711327347562500
51.93,1711327347578125
43.88,1711327347593750
32.94,1711327347609375
16.24,1711327347625000
-7.43,1711327347640625
-37.38,1711327347656250
-71.76,1711327347671875
-108.43,1711327347687500
-145.38,1711327347703125
-180.3,1711327347718750
-210.97,1711327347734375
-235.2,1711327347750000
-251.04,1711327347765625
-257.29,1711327347781250
-253.17,1711327347796875
-239.16,1711327347812500
-217.14,1711327347828125
-189.79,1711327347843750
-158.57,1711327347859375
-124.32,1711327347875000
-87.59,1711327347890625
-49.16,1711327347906250
-11.09,1711327347921875
24.99,1711327347937500
56.66,1711327347953125
80.76,1711327347968750
94.57,1711327347984375
98.93,1711327348000000
96.07,1711327348015625
88.57,1711327348031250
78.76,1711327348046875
67.61,1711327348062500
58.81,1711327348078125
55.66,1711327348093750
59.26,1711327348109375
68.6,1711327348125000
84.29,1711327348140625
105.35,1711327348156250
128.87,1711327348171875
150.75,1711327348187500
165.23,1711327348203125
172.36,1711327348218750
173.93,1711327348234375
171.39,1711327348250000
166.51,1711327348265625
165.57,1711327348281250
173.84,1711327348296875
193.12,1711327348312500
220.87,1711327348328125
249.45,1711327348343750
276.91,1711327348359375
303.31,1711327348375000
329.05,1711327348390625
324.24,1711327348406250
271.82,1711327348421875
175.56,1711327348437500
58.87,1711327348453125
-32.26,1711327348468750
-97.32,1711327348484375
-142.48,1711327348500000
-172.18,1711327348515625
-194.11,1711327348531250
-210.05,1711327348546875
-216.66,1711327348562500
-212.35,1711327348578125
-199.18,1711327348593750
-182.5,1711327348609375
-170.87,1711327348625000
-165.36,1711327348640625
-164.29,1711327348656250
-165.96,1711327348671875
-168.66,1711327348687500
-168.42,1711327348703125
-162.81,1711327348718750
-152.15,1711327348734375
-139.3,1711327348750000
-130.11,1711327348765625
-125.37,1711327348781250
-124.36,1711327348796875
-126.6,1711327348812500
-131.55,1711327348828125
-137.14,1711327348843750
-142.11,1711327348859375
-146.78,1711327348875000
-152.93,1711327348890625
-163.94,1711327348906250
-179.47,1711327348921875
-197.4,1711327348937500
-214.91,1711327348953125
-228.63,1711327348968750
-234.73,1711327348984375
-230.81,1711327349000000
-216.73,1711327349015625
-194.8,1711327349031250
-169.38,1711327349046875
-143.76,1711327349062500
-120.28,1711327349078125
-100.48,1711327349093750
-84.75,1711327349109375
-72.5,1711327349125000
-62.78,1711327349140625
-54.54,1711327349156250
-46.72,1711327349171875
-38.43,1711327349187500
-28.5,1711327349203125
-16.22,1711327349218750
-2.06,1711327349234375
12.56,1711327349250000
25.63,1711327349265625
35.39,1711327349281250
41.01,1711327349296875
42.79,1711327349312500
41.76,1711327349328125
39.09,1711327349343750
35.53,1711327349359375
31.17,1711327349375000
25.55,1711327349390625
17.87,1711327349406250
7.29,1711327349421875
-6.89,1711327349437500
-25.06,1711327349453125
-46.7,1711327349468750
-69.94,1711327349484375
-91.25,1711327349500000
-106.09,1711327349515625
-110.18,1711327349531250
-101.21,1711327349546875
-80.15,1711327349562500
-51.09,1711327349578125
-19.96,1711327349593750
7.74,1711327349609375
28.75,1711327349625000
42.74,1711327349640625
51.37,1711327349656250
56.75,1711327349671875
59.83,1711327349687500
60.1,1711327349703125
56.25,1711327349718750
47.46,1711327349734375
34.29,1711327349750000
18.65,1711327349765625
2.97,1711327349781250
-10.89,1711327349796875
-22.19,1711327349812500
-31.27,1711327349828125
-38.98,1711327349843750
-45.96,1711327349859375
-52.3,1711327349875000
-57.64,1711327349890625
-61.57,1711327349906250
-64.07,1711327349921875
-65.57,1711327349937500
-66.93,1711327349953125
-69.11,1711327349968750
-72.93,1711327349984375
-78.92,1711327350000000
-87.23,1711327350015625
-97.46,1711327350031250
-108.57,1711327350046875
-118.71,1711327350062500
-125.49,1711327350078125
-126.39,1711327350093750
-119.39,1711327350109375
-103.3,1711327350125000
-77.76,1711327350140625
-43.02,1711327350156250
0.22,1711327350171875
50.61,1711327350187500
105.58,1711327350203125
160.91,1711327350218750
210.91,1711327350234375
249.56,1711327350250000
272.04,1711327350265625
276.26,1711327350281250
263.24,1711327350296875
236.55,1711327350312500
200.94,1711327350328125
161.12,1711327350343750
121.11,1711327350359375
84.19,1711327350375000
53.17,1711327350390625
30.27,1711327350406250
16.74,1711327350421875
12.37,1711327350437500
15.32,1711327350453125
22.65,1711327350468750
31.17,1711327350484375
38.31,1711327350500000
42.53,1711327350515625
43.27,1711327350531250
40.39,1711327350546875
33.65,1711327350562500
22.47,1711327350578125
6.27,1711327350593750
-14.9,1711327350609375
-39.63,1711327350625000
-64.78,1711327350640625
-85.87,1711327350656250
-98.1,1711327350671875
-97.92,1711327350687500
-84.33,1711327350703125
-59.38,1711327350718750
-27.63,1711327350734375
5.37,1711327350750000
34.81,1711327350765625
57.82,1711327350781250
73.69,1711327350796875
83.13,1711327350812500
87.2,1711327350828125
86.45,1711327350843750
80.86,1711327350859375
70.28,1711327350875000
55.17,1711327350890625
36.93,1711327350906250
17.63,1711327350921875
-0.68,1711327350937500
-16.73,1711327350953125
-30.37,1711327350968750
-42.38,1711327350984375
-53.72,1711327351000000
-64.81,1711327351015625
-75.23,1711327351031250
-83.92,1711327351046875
-89.81,1711327351062500
-92.55,1711327351078125
-92.85,1711327351093750
-92.35,1711327351109375
-93.05,1711327351125000
-96.8,1711327351140625
-104.81,1711327351156250
-117.46,1711327351171875
-134.11,1711327351187500
-152.94,1711327351203125
-170.85,1711327351218750
-183.66,1711327351234375
-186.94,1711327351250000
-177.3,1711327351265625
-153.76,1711327351281250
-118.3,1711327351296875
-75.5,1711327351312500
-31.06,1711327351328125
9.99,1711327351343750
44.67,1711327351359375
72.3,1711327351375000
93.85,1711327351390625
110.65,1711327351406250
123.48,1711327351421875
132.16,1711327351437500
136.1,1711327351453125
134.99,1711327351468750
129.4,1711327351484375
120.75,1711327351500000
110.84,1711327351515625
101.02,1711327351531250
91.72,1711327351546875
82.34,1711327351562500
71.82,1711327351578125
59.37,1711327351593750
45.05,1711327351609375
29.86,1711327351625000
15.32,1711327351640625
2.78,1711327351656250
-7.24,1711327351671875
-15.22,1711327351687500
-22.48,1711327351703125
-30.55,1711327351718750
-40.75,1711327351734375
-53.79,1711327351750000
-69.74,1711327351765625
-87.94,1711327351781250
-106.92,1711327351796875
-124.27,1711327351812500
-136.73,1711327351828125
-140.63,1711327351843750
-132.95,1711327351859375
-112.39,1711327351875000
-80.22,1711327351890625
-40.21,1711327351906250
2.44,1711327351921875
42.61,1711327351937500
76.73,1711327351953125
103.4,1711327351968750
123.06,1711327351984375
136.98,1711327352000000
146.33,1711327352015625
151.55,1711327352031250
152.59,1711327352046875
149.29,1711327352062500
141.92,1711327352078125
131.32,1711327352093750
118.71,1711327352109375
105.37,1711327352125000
92.33,1711327352140625
80.25,1711327352156250
69.42,1711327352171875
59.8,1711327352187500
51.08,1711327352203125
42.81,1711327352218750
34.45,1711327352234375
25.59,1711327352250000
15.98,1711327352265625
5.62,1711327352281250
-5.32,1711327352296875
-16.63,1711327352312500
-28.24,1711327352328125
-40.32,1711327352343750
-53.41,1711327352359375
-68.37,1711327352375000
-86.16,1711327352390625
-107.36,1711327352406250
-131.49,1711327352421875
-156.38,1711327352437500
-178.08,1711327352453125
-191.4,1711327352468750
-191.46,1711327352484375
-175.35,1711327352500000
-143.48,1711327352515625
-99.77,1711327352531250
-50.55,1711327352546875
-2.62,1711327352562500
38.74,1711327352578125
70.99,1711327352593750
94.21,1711327352609375
110.1,1711327352625000
120.56,1711327352640625
126.74,1711327352656250
128.86,1711327352671875
126.74,1711327352687500
120.53,1711327352703125
111.05,1711327352718750
99.75,1711327352734375
88.32,1711327352750000
78.13,1711327352765625
70.06,1711327352781250
64.46,1711327352796875
61.3,1711327352812500
60.34,1711327352828125
61.15,1711327352843750
63.08,1711327352859375
65.28,1711327352875000
66.72,1711327352890625
66.31,1711327352906250
63.04,1711327352921875
56.09,1711327352937500
44.91,1711327352953125
29.26,1711327352968750
9.22,1711327352984375
-15.0,1711327353000000
-42.96,1711327353015625
-73.8,1711327353031250
-105.8,1711327353046875
-136.13,1711327353062500
-160.91,1711327353078125
-176.02,1711327353093750
-178.16,1711327353109375
-165.91,1711327353125000
-140.02,1711327353140625
-102.97,1711327353156250
-58.12,1711327353171875
-8.91,1711327353187500
41.58,1711327353203125
90.6,1711327353218750
135.59,1711327353234375
174.21,1711327353250000
204.59,1711327353265625
225.75,1711327353281250
237.83,1711327353296875
242.06,1711327353312500
240.41,1711327353328125
235.16,1711327353343750
228.47,1711327353359375
222.0,1711327353375000
216.77,1711327353390625
213.06,1711327353406250
210.48,1711327353421875
208.17,1711327353437500
204.9,1711327353453125
199.35,1711327353468750
190.33,1711327353484375
177.07,1711327353500000
159.45,1711327353515625
138.29,1711327353531250
115.12,1711327353546875
91.71,1711327353562500
69.38,1711327353578125
48.44,1711327353593750
27.92,1711327353609375
5.79,1711327353625000
-20.36,1711327353640625
-52.2,1711327353656250
-89.45,1711327353671875
-129.07,1711327353687500
-165.42,1711327353703125
-191.48,1711327353718750
-201.1,1711327353734375
-191.29,1711327353750000
-163.48,1711327353765625
-123.19,1711327353781250
-78.1,1711327353796875
-35.48,1711327353812500
-0.13,1711327353828125
26.19,1711327353843750
44.0,1711327353859375
54.53,1711327353875000
58.53,1711327353890625
56.08,1711327353906250
47.04,1711327353921875
31.94,1711327353937500
12.42,1711327353953125
-9.15,1711327353968750
-30.27,1711327353984375
-49.04,1711327354000000
-64.62,1711327354015625
-77.17,1711327354031250
-87.5,1711327354046875
-96.76,1711327354062500
-106.08,1711327354078125
-116.28,1711327354093750
-127.75,1711327354109375
-140.39,1711327354125000
-153.64,1711327354140625
-166.8,1711327354156250
-179.24,1711327354171875
-190.61,1711327354187500
-200.89,1711327354203125
-210.46,1711327354218750
-219.99,1711327354234375
-230.62,1711327354250000
-243.47,1711327354265625
-259.09,1711327354281250
-276.47,1711327354296875
-292.4,1711327354312500
-301.65,1711327354328125
-298.3,1711327354343750
-277.91,1711327354359375
-239.44,1711327354375000
-186.18,1711327354390625
-124.94,1711327354406250
-63.9,1711327354421875
-10.2,1711327354437500
31.9,1711327354453125
61.49,1711327354468750
80.07,1711327354484375
90.14,1711327354500000
93.91,1711327354515625
92.65,1711327354531250
87.02,1711327354546875
77.52,1711327354562500
65.04,1711327354578125
50.9,1711327354593750
36.61,1711327354609375
23.3,1711327354625000
11.57,1711327354640625
1.47,1711327354656250
-7.26,1711327354671875
-14.92,1711327354687500
-21.72,1711327354703125
-27.84,1711327354718750
-33.6,1711327354734375
-39.43,1711327354750000
-45.82,1711327354765625
-53.11,1711327354781250
-61.39,1711327354796875
-70.5,1711327354812500
-80.16,1711327354828125
-90.07,1711327354843750
-100.03,1711327354859375
-110.07,1711327354875000
-120.58,1711327354890625
-132.3,1711327354906250
-145.92,1711327354921875
-161.28,1711327354937500
-176.62,1711327354953125
-188.29,1711327354968750
-191.31,1711327354984375
-180.91,1711327355000000
-154.34,1711327355015625
-112.15,1711327355031250
-58.29,1711327355046875
0.99,1711327355062500
59.11,1711327355078125
110.81,1711327355093750
153.19,1711327355109375
185.47,1711327355125000
208.37,1711327355140625
223.23,1711327355156250
231.52,1711327355171875
234.7,1711327355187500
234.24,1711327355203125
231.6,1711327355218750
228.0,1711327355234375
224.31,1711327355250000
220.8,1711327355265625
217.33,1711327355281250
213.46,1711327355296875
208.77,1711327355312500
202.95,1711327355328125
195.73,1711327355343750
186.68,1711327355359375
175.07,1711327355375000
159.9,1711327355390625
140.22,1711327355406250
115.51,1711327355421875
85.99,1711327355437500
52.78,1711327355453125
17.61,1711327355468750
-17.58,1711327355484375
-51.23,1711327355500000
-82.47,1711327355515625
-111.35,1711327355531250
-138.74,1711327355546875
-166.01,1711327355562500
-194.25,1711327355578125
-223.4,1711327355593750
-251.44,1711327355609375
-274.32,1711327355625000
-286.76,1711327355640625
-283.94,1711327355656250
-263.45,1711327355671875
-226.54,1711327355687500
-178.09,1711327355703125
-125.25,1711327355718750
-75.19,1711327355734375
-33.25,1711327355750000
-2.02,1711327355765625
18.37,1711327355781250
29.26,1711327355796875
32.43,1711327355812500
29.56,1711327355828125
22.37,1711327355843750
12.79,1711327355859375
2.96,1711327355875000
-5.13,1711327355890625
-10.2,1711327355906250
-12.05,1711327355921875
-11.48,1711327355937500
-9.84,1711327355953125
-8.28,1711327355968750
-7.31,1711327355984375
-6.82,1711327356000000
-6.37,1711327356015625
-5.85,1711327356031250
-5.68,1711327356046875
-6.85,1711327356062500
-10.33,1711327356078125
-16.58,1711327356093750
-25.28,1711327356109375
-35.44,1711327356125000
-45.85,1711327356140625
-55.58,1711327356156250
-64.38,1711327356171875
-72.71,1711327356187500
-81.64,1711327356203125
-92.52,1711327356218750
-106.42,1711327356234375
-123.46,1711327356250000
-142.05,1711327356265625
-158.81,1711327356281250
-168.89,1711327356296875
-167.39,1711327356312500
-150.95,1711327356328125
-119.1,1711327356343750
-74.72,1711327356359375
-23.27,1711327356375000
28.89,1711327356390625
76.22,1711327356406250
115.11,1711327356421875
144.11,1711327356437500
163.42,1711327356453125
173.94,1711327356468750
176.81,1711327356484375
173.09,1711327356500000
164.02,1711327356515625
151.29,1711327356531250
137.02,1711327356546875
123.5,1711327356562500
112.62,1711327356578125
105.3,1711327356593750
101.3,1711327356609375
99.43,1711327356625000
98.1,1711327356640625
95.84,1711327356656250
91.67,1711327356671875
85.07,1711327356687500
75.77,1711327356703125
63.7,1711327356718750
48.9,1711327356734375
31.62,1711327356750000
12.53,1711327356765625
-7.4,1711327356781250
-27.09,1711327356796875
-45.62,1711327356812500
-62.52,1711327356828125
-77.99,1711327356843750
-92.92,1711327356859375
-108.7,1711327356875000
-126.62,1711327356890625
-146.98,1711327356906250
-168.25,1711327356921875
-186.93,1711327356937500
-198.06,1711327356953125
-196.63,1711327356968750
-179.16,1711327356984375
-144.76,1711327357000000
-95.51,1711327357015625
-35.83,1711327357031250
28.48,1711327357046875
91.36,1711327357062500
147.4,1711327357078125
192.55,1711327357093750
224.57,1711327357109375
243.17,1711327357125000
249.91,1711327357140625
247.54,1711327357156250
239.19,1711327357171875
227.58,1711327357187500
214.56,1711327357203125
201.09,1711327357218750
187.46,1711327357234375
173.56,1711327357250000
159.1,1711327357265625
143.76,1711327357281250
127.39,1711327357296875
110.07,1711327357312500
92.19,1711327357328125
74.18,1711327357343750
56.3,1711327357359375
38.44,1711327357375000
20.11,1711327357390625
0.75,1711327357406250
-19.92,1711327357421875
-41.69,1711327357437500
-63.83,1711327357453125
-85.36,1711327357468750
-105.52,1711327357484375
-124.06,1711327357500000
-141.57,1711327357515625
-159.37,1711327357531250
-179.17,1711327357546875
-202.27,1711327357562500
-228.61,1711327357578125
-256.1,1711327357593750
-280.44,1711327357609375
-296.11,1711327357625000
-297.84,1711327357640625
-282.4,1711327357656250
-249.79,1711327357671875
-203.34,1711327357687500
-148.77,1711327357703125
-92.59,1711327357718750
-40.49,1711327357734375
3.68,1711327357750000
38.19,1711327357765625
62.92,1711327357781250
78.76,1711327357796875
86.99,1711327357812500
89.0,1711327357828125
86.26,1711327357843750
80.37,1711327357859375
72.91,1711327357875000
65.39,1711327357890625
58.88,1711327357906250
53.93,1711327357921875
50.59,1711327357937500
48.54,1711327357953125
47.42,1711327357968750
46.85,1711327357984375
46.38,1711327358000000
45.3,1711327358015625
42.73,1711327358031250
37.75,1711327358046875
29.82,1711327358062500
19.08,1711327358078125
6.4,1711327358093750
-6.78,1711327358109375
-18.94,1711327358125000
-28.92,1711327358140625
-36.33,1711327358156250
-41.73,1711327358171875
-46.65,1711327358187500
-53.25,1711327358203125
-63.65,1711327358218750
-79.03,1711327358234375
-98.67,1711327358250000
-119.51,1711327358265625
-136.46,1711327358281250
-143.69,1711327358296875
-136.46,1711327358312500
-112.79,1711327358328125
-74.23,1711327358343750
-25.51,1711327358359375
26.86,1711327358375000
76.46,1711327358390625
118.54,1711327358406250
150.73,1711327358421875
172.84,1711327358437500
186.07,1711327358453125
191.99,1711327358468750
191.96,1711327358484375
186.91,1711327358500000
177.62,1711327358515625
165.02,1711327358531250
150.31,1711327358546875
134.79,1711327358562500
119.6,1711327358578125
105.43,1711327358593750
92.45,1711327358609375
80.51,1711327358625000
69.3,1711327358640625
58.5,1711327358656250
47.75,1711327358671875
36.47,1711327358687500
23.92,1711327358703125
9.38,1711327358718750
-7.6,1711327358734375
-26.93,1711327358750000
-47.94,1711327358765625
-69.49,1711327358781250
-90.33,1711327358796875
-109.53,1711327358812500
-126.78,1711327358828125
-142.7,1711327358843750
-158.74,1711327358859375
-176.62,1711327358875000
-197.44,1711327358890625
-220.55,1711327358906250
-243.08,1711327358921875
-260.33,1711327358937500
-267.12,1711327358953125
-259.5,1711327358968750
-236.12,1711327358984375
-198.49,1711327359000000
-150.35,1711327359015625
-96.56,1711327359031250
-41.93,1711327359046875
9.34,1711327359062500
53.98,1711327359078125
89.74,1711327359093750
115.54,1711327359109375
131.57,1711327359125000
139.26,1711327359140625
140.89,1711327359156250
139.02,1711327359171875
135.81,1711327359187500
132.65,1711327359203125
130.14,1711327359218750
128.33,1711327359234375
127.11,1711327359250000
126.36,1711327359265625
126.18,1711327359281250
126.69,1711327359296875
127.85,1711327359312500
129.19,1711327359328125
129.73,1711327359343750
128.14,1711327359359375
123.24,1711327359375000
114.57,1711327359390625
102.6,1711327359406250
88.59,1711327359421875
74.04,1711327359437500
60.02,1711327359453125
46.93,1711327359468750
34.44,1711327359484375
21.82,1711327359500000
8.18,1711327359515625
-7.35,1711327359531250
-25.43,1711327359546875
-46.1,1711327359562500
-68.16,1711327359578125
-88.76,1711327359593750
-103.59,1711327359609375
-107.93,1711327359625000
-98.38,1711327359640625
-74.54,1711327359656250
-39.51,1711327359671875
0.91,1711327359687500
40.16,1711327359703125
73.18,1711327359718750
97.6,1711327359734375
113.83,1711327359750000
123.77,1711327359765625
129.35,1711327359781250
131.53,1711327359796875
130.27,1711327359812500
125.11,1711327359828125
116.05,1711327359843750
103.95,1711327359859375
90.29,1711327359875000
76.62,1711327359890625
64.02,1711327359906250
52.94,1711327359921875
43.39,1711327359937500
35.38,1711327359953125
29.1,1711327359968750
24.82,1711327359984375
22.47,1711327360000000
21.35,1711327360015625
19.96,1711327360031250
16.32,1711327360046875
8.58,1711327360062500
-4.3,1711327360078125
-22.16,1711327360093750
-43.55,1711327360109375
-66.13,1711327360125000
-87.36,1711327360140625
-105.25,1711327360156250
-119.0,1711327360171875
-129.29,1711327360187500
-138.09,1711327360203125
-147.99,1711327360218750
-161.12,1711327360234375
-178.05,1711327360250000
-197.06,1711327360265625
-214.11,1711327360281250
-223.79,1711327360296875
-220.98,1711327360312500
-202.56,1711327360328125
-168.68,1711327360343750
-122.77,1711327360359375
-70.51,1711327360375000
-17.98,1711327360390625
30.06,1711327360406250
71.1,1711327360421875
104.67,1711327360437500
131.5,1711327360453125
152.4,1711327360468750
167.73,1711327360484375
177.54,1711327360500000
182.07,1711327360515625
182.3,1711327360531250
179.99,1711327360546875
177.2,1711327360562500
175.58,1711327360578125
175.79,1711327360593750
177.37,1711327360609375
179.18,1711327360625000
180.0,1711327360640625
179.12,1711327360656250
176.54,1711327360671875
172.77,1711327360687500
168.28,1711327360703125
162.98,1711327360718750
155.98,1711327360734375
145.73,1711327360750000
130.7,1711327360765625
110.08,1711327360781250
84.4,1711327360796875
55.46,1711327360812500
25.81,1711327360828125
-2.21,1711327360843750
-27.32,1711327360859375
-49.72,1711327360875000
-70.89,1711327360890625
-92.95,1711327360906250
-117.85,1711327360921875
-146.52,1711327360937500
-178.24,1711327360953125
-210.33,1711327360968750
-238.34,1711327360984375
-256.94,1711327361000000
-261.28,1711327361015625
-248.62,1711327361031250
-219.53,1711327361046875
-177.97,1711327361062500
-130.14,1711327361078125
-82.66,1711327361093750
-40.56,1711327361109375
-6.32,1711327361125000
20.03,1711327361140625
39.8,1711327361156250
54.3,1711327361171875
64.12,1711327361187500
69.17,1711327361203125
69.35,1711327361218750
65.36,1711327361234375
58.95,1711327361250000
52.49,1711327361265625
48.19,1711327361281250
47.25,1711327361296875
49.45,1711327361312500
53.45,1711327361328125
57.49,1711327361343750
60.23,1711327361359375
61.15,1711327361375000
60.69,1711327361390625
59.61,1711327361406250
58.43,1711327361421875
56.92,1711327361437500
54.01,1711327361453125
48.22,1711327361468750
38.41,1711327361484375
24.34,1711327361500000
7.05,1711327361515625
-11.54,1711327361531250
-29.27,1711327361546875
-44.61,1711327361562500
-57.19,1711327361578125
-67.79,1711327361593750
-77.93,1711327361609375
-89.25,1711327361625000
-103.06,1711327361640625
-120.09,1711327361656250
-140.21,1711327361671875
-162.19,1711327361687500
-183.35,1711327361703125
-199.58,1711327361718750
-206.01,1711327361734375
-198.3,1711327361750000
-174.32,1711327361765625
-135.15,1711327361781250
-85.08,1711327361796875
-30.46,1711327361812500
22.3,1711327361828125
68.25,1711327361843750
104.8,1711327361859375
131.36,1711327361875000
148.56,1711327361890625
157.48,1711327361906250
159.32,1711327361921875
155.54,1711327361937500
148.08,1711327361953125
139.39,1711327361968750
131.9,1711327361984375
127.4,1711327362000000
126.47,1711327362015625
128.31,1711327362031250
131.11,1711327362046875
132.77,1711327362062500
131.65,1711327362078125
127.12,1711327362093750
119.56,1711327362109375
109.95,1711327362125000
99.25,1711327362140625
87.86,1711327362156250
75.52,1711327362171875
61.64,1711327362187500
45.84,1711327362203125
28.38,1711327362218750
10.24,1711327362234375
-7.31,1711327362250000
-23.29,1711327362265625
-37.57,1711327362281250
-51.02,1711327362296875
-65.24,1711327362312500
-82.13,1711327362328125
-103.18,1711327362343750
-128.92,1711327362359375
-158.45,1711327362375000
-189.05,1711327362390625
-216.42,1711327362406250
-235.32,1711327362421875
-240.99,1711327362437500
-230.56,1711327362453125
-204.22,1711327362468750
-165.37,1711327362484375
-119.63,1711327362500000
-73.31,1711327362515625
-31.57,1711327362531250
2.48,1711327362546875
27.91,1711327362562500
45.3,1711327362578125
55.88,1711327362593750
60.93,1711327362609375
61.62,1711327362625000
59.23,1711327362640625
55.25,1711327362656250
51.33,1711327362671875
48.86,1711327362687500
48.57,1711327362703125
50.2,1711327362718750
52.74,1711327362734375
54.8,1711327362750000
55.29,1711327362765625
53.81,1711327362781250
50.64,1711327362796875
46.4,1711327362812500
41.43,1711327362828125
35.47,1711327362843750
27.71,1711327362859375
17.25,1711327362875000
3.71,1711327362890625
-12.32,1711327362906250
-29.31,1711327362921875
-45.32,1711327362937500
-58.63,1711327362953125
-68.52,1711327362968750
-75.54,1711327362984375
-81.41,1711327363000000
-88.47,1711327363015625
-98.87,1711327363031250
-113.73,1711327363046875
-132.4,1711327363062500
-152.18,1711327363078125
-168.61,1711327363093750
-176.5,1711327363109375
-171.5,1711327363125000
-151.52,1711327363140625
-117.68,1711327363156250
-74.12,1711327363171875
-26.73,1711327363187500
18.6,1711327363203125
57.61,1711327363218750
88.33,1711327363234375
110.84,1711327363250000
126.28,1711327363265625
135.9,1711327363281250
140.53,1711327363296875
140.59,1711327363312500
136.69,1711327363328125
129.88,1711327363343750
121.75,1711327363359375
113.98,1711327363375000
107.82,1711327363390625
103.58,1711327363406250
100.63,1711327363421875
97.77,1711327363437500
93.86,1711327363453125
88.41,1711327363468750
81.73,1711327363484375
74.67,1711327363500000
68.05,1711327363515625
62.13,1711327363531250
56.3,1711327363546875
49.35,1711327363562500
40.01,1711327363578125
27.66,1711327363593750
12.7,1711327363609375
-3.51,1711327363625000
-19.16,1711327363640625
-32.75,1711327363656250
-43.66,1711327363671875
-52.43,1711327363687500
-60.55,1711327363703125
-69.99,1711327363718750
-82.55,1711327363734375
-99.22,1711327363750000
-119.63,1711327363765625
-141.7,1711327363781250
-161.65,1711327363796875
-174.73,1711327363812500
-176.32,1711327363828125
-163.51,1711327363843750
-136.16,1711327363859375
-97.33,1711327363875000
-52.34,1711327363890625
-7.23,1711327363906250
33.04,1711327363921875
65.72,1711327363937500
90.36,1711327363953125
107.99,1711327363968750
119.94,1711327363984375
127.06,1711327364000000
129.53,1711327364015625
127.41,1711327364031250
121.17,1711327364046875
112.14,1711327364062500
102.29,1711327364078125
93.58,1711327364093750
87.32,1711327364109375
83.65,1711327364125000
81.65,1711327364140625
79.89,1711327364156250
77.09,1711327364171875
72.74,1711327364187500
67.12,1711327364203125
61.03,1711327364218750
55.22,1711327364234375
49.88,1711327364250000
44.47,1711327364265625
37.97,1711327364281250
29.35,1711327364296875
18.16,1711327364312500
4.82,1711327364328125
-9.44,1711327364343750
-23.0,1711327364359375
-34.54,1711327364375000
-43.5,1711327364390625
-50.34,1711327364406250
-56.33,1711327364421875
-63.12,1711327364437500
-72.28,1711327364453125
-84.92,1711327364468750
-101.51,1711327364484375
-121.46,1711327364500000
-142.9,1711327364515625
-162.51,1711327364531250
-175.9,1711327364546875
-178.63,1711327364562500
-167.66,1711327364578125
-142.51,1711327364593750
-105.78,1711327364609375
-62.42,1711327364625000
-18.15,1711327364640625
22.22,1711327364656250
55.83,1711327364671875
82.01,1711327364687500
101.44,1711327364703125
115.16,1711327364718750
123.89,1711327364734375
127.94,1711327364750000
127.53,1711327364765625
123.37,1711327364781250
116.84,1711327364796875
109.84,1711327364812500
104.23,1711327364828125
101.25,1711327364843750
101.01,1711327364859375
102.61,1711327364875000
104.55,1711327364890625
105.5,1711327364906250
104.82,1711327364921875
102.75,1711327364937500
100.1,1711327364953125
97.63,1711327364968750
95.45,1711327364984375
92.77,1711327365000000
88.24,1711327365015625
80.47,1711327365031250
68.67,1711327365046875
53.03,1711327365062500
34.62,1711327365078125
15.01,1711327365093750
-4.3,1711327365109375
-22.37,1711327365125000
-39.05,1711327365140625
-54.88,1711327365156250
-70.87,1711327365171875
-88.16,1711327365187500
-107.73,1711327365203125
-130.1,1711327365218750
-155.04,1711327365234375
-181.09,1711327365250000
-205.35,1711327365265625
-223.67,1711327365281250
-231.5,1711327365296875
-225.35,1711327365312500
-204.22,1711327365328125
-170.39,1711327365343750
-128.98,1711327365359375
-86.46,1711327365375000
-48.57,1711327365390625
-18.78,1711327365406250
2.19,1711327365421875
15.65,1711327365437500
23.64,1711327365453125
27.79,1711327365468750
28.93,1711327365484375
27.33,1711327365500000
23.34,1711327365515625
17.88,1711327365531250
12.33,1711327365546875
8.17,1711327365562500
6.45,1711327365578125
7.41,1711327365593750
10.45,1711327365609375
14.46,1711327365625000
18.3,1711327365640625
21.12,1711327365656250
22.59,1711327365671875
22.86,1711327365687500
22.32,1711327365703125
21.35,1711327365718750
20.02,1711327365734375
18.03,1711327365750000
14.73,1711327365765625
9.37,1711327365781250
1.47,1711327365796875
-8.86,1711327365812500
-20.89,1711327365828125
-33.37,1711327365843750
-44.98,1711327365859375
-54.84,1711327365875000
-62.8,1711327365890625
-69.54,1711327365906250
-76.27,1711327365921875
-84.37,1711327365937500
-95.03,1711327365953125
-108.87,1711327365968750
-125.63,1711327365984375
-143.82,1711327366000000
-160.54,1711327366015625
-171.83,1711327366031250
-173.52,1711327366046875
-162.54,1711327366062500
-138.17,1711327366078125
-102.49,1711327366093750
-59.95,1711327366109375
-16.05,1711327366125000
24.31,1711327366140625
57.94,1711327366156250
83.74,1711327366171875
102.14,1711327366187500
114.23,1711327366203125
120.99,1711327366218750
123.04,1711327366234375
120.81,1711327366250000
115.05,1711327366265625
106.99,1711327366281250
98.3,1711327366296875
90.58,1711327366312500
84.85,1711327366328125
81.21,1711327366343750
78.98,1711327366359375
77.07,1711327366375000
74.54,1711327366390625
71.06,1711327366406250
66.86,1711327366421875
62.44,1711327366437500
58.11,1711327366453125
53.63,1711327366468750
48.19,1711327366484375
40.76,1711327366500000
30.63,1711327366515625
17.82,1711327366531250
3.29,1711327366546875
-11.45,1711327366562500
-24.77,1711327366578125
-35.7,1711327366593750
-44.23,1711327366609375
-51.36,1711327366625000
-58.68,1711327366640625
-67.89,1711327366656250
-80.22,1711327366671875
-95.94,1711327366687500
-114.07,1711327366703125
-132.24,1711327366718750
-146.99,1711327366734375
-154.38,1711327366750000
-151.07,1711327366765625
-135.43,1711327366781250
-108.18,1711327366796875
-72.43,1711327366812500
-32.79,1711327366828125
5.94,1711327366843750
39.98,1711327366859375
67.25,1711327366875000
87.28,1711327366890625
100.61,1711327366906250
108.14,1711327366921875
110.64,1711327366937500
108.81,1711327366953125
103.46,1711327366968750
95.76,1711327366984375
87.18,1711327367000000
79.18,1711327367015625
72.82,1711327367031250
68.48,1711327367046875
65.76,1711327367062500
63.89,1711327367078125
62.05,1711327367093750
59.78,1711327367109375
57.01,1711327367125000
53.84,1711327367140625
50.28,1711327367156250
45.91,1711327367171875
39.93,1711327367187500
31.41,1711327367203125
19.8,1711327367218750
5.32,1711327367234375
-10.97,1711327367250000
-27.35,1711327367265625
-42.07,1711327367281250
-54.04,1711327367296875
-63.29,1711327367312500
-70.97,1711327367328125
-79.06,1711327367343750
-89.58,1711327367359375
-103.97,1711327367375000
-122.36,1711327367390625
-143.15,1711327367406250
-163.12,1711327367421875
-177.89,1711327367437500
-182.94,1711327367453125
-174.98,1711327367468750
-153.12,1711327367484375
-119.39,1711327367500000
-78.22,1711327367515625
-35.19,1711327367531250
4.67,1711327367546875
38.13,1711327367562500
64.13,1711327367578125
83.24,1711327367593750
96.72,1711327367609375
105.6,1711327367625000
110.39,1711327367640625
111.3,1711327367656250
108.75,1711327367671875
103.67,1711327367687500
97.51,1711327367703125
91.71,1711327367718750
87.24,1711327367734375
84.13,1711327367750000
81.59,1711327367765625
78.47,1711327367781250
73.93,1711327367796875
67.88,1711327367812500
61.16,1711327367828125
55.0,1711327367843750
50.3,1711327367859375
46.96,1711327367875000
43.8,1711327367890625
38.92,1711327367906250
30.64,1711327367921875
18.33,1711327367937500
2.73,1711327367953125
-14.31,1711327367968750
-30.52,1711327367984375
-44.2,1711327368000000
-54.75,1711327368015625
-62.8,1711327368031250
-69.97,1711327368046875
-78.24,1711327368062500
-89.44,1711327368078125
-104.68,1711327368093750
-123.83,1711327368109375
-145.18,1711327368125000
-165.28,1711327368140625
-179.58,1711327368156250
-183.39,1711327368171875
-173.47,1711327368187500
-149.2,1711327368203125
-113.01,1711327368218750
-69.81,1711327368234375
-25.39,1711327368250000
15.23,1711327368265625
49.1,1711327368281250
75.59,1711327368296875
95.66,1711327368312500
110.82,1711327368328125
122.09,1711327368343750
129.69,1711327368359375
133.38,1711327368375000
133.02,1711327368390625
129.1,1711327368406250
122.77,1711327368421875
115.59,1711327368437500
108.9,1711327368453125
103.47,1711327368468750
99.27,1711327368484375
95.68,1711327368500000
91.92,1711327368515625
87.41,1711327368531250
82.01,1711327368546875
76.02,1711327368562500
69.92,1711327368578125
64.01,1711327368593750
58.16,1711327368609375
51.77,1711327368625000
43.95,1711327368640625
33.88,1711327368656250
21.27,1711327368671875
6.53,1711327368687500
-9.3,1711327368703125
-24.91,1711327368718750
-39.23,1711327368734375
-51.81,1711327368750000
-62.85,1711327368765625
-73.17,1711327368781250
-83.89,1711327368796875
-96.2,1711327368812500
-111.16,1711327368828125
-129.4,1711327368843750
-150.67,1711327368859375
-173.38,1711327368875000
-194.3,1711327368890625
-208.96,1711327368906250
-212.62,1711327368921875
-201.86,1711327368937500
-175.93,1711327368953125
-137.24,1711327368968750
-90.86,1711327368984375
-42.9,1711327369000000
1.27,1711327369015625
38.33,1711327369031250
67.42,1711327369046875
89.42,1711327369062500
105.9,1711327369078125
118.15,1711327369093750
126.67,1711327369109375
131.41,1711327369125000
132.35,1711327369140625
129.83,1711327369156250
124.83,1711327369171875
118.59,1711327369187500
112.28,1711327369203125
106.58,1711327369218750
101.56,1711327369234375
96.9,1711327369250000
92.14,1711327369265625
86.98,1711327369281250
81.32,1711327369296875
75.21,1711327369312500
68.73,1711327369328125
61.89,1711327369343750
54.6,1711327369359375
46.67,1711327369375000
37.92,1711327369390625
28.09,1711327369406250
17.08,1711327369421875
4.94,1711327369437500
-7.99,1711327369453125
-21.07,1711327369468750
-33.51,1711327369484375
-44.65,1711327369500000
-54.16,1711327369515625
-62.19,1711327369531250
-69.35,1711327369546875
-76.51,1711327369562500
-84.68,1711327369578125
-94.82,1711327369593750
-107.75,1711327369609375
-123.79,1711327369625000
-142.27,1711327369640625
-161.03,1711327369656250
-176.38,1711327369671875
-183.7,1711327369687500
-178.81,1711327369703125
-159.51,1711327369718750
-126.66,1711327369734375
-84.12,1711327369750000
-37.64,1711327369765625
6.91,1711327369781250
45.25,1711327369796875
75.44,1711327369812500
97.65,1711327369828125
113.2,1711327369843750
123.45,1711327369859375
129.2,1711327369875000
130.67,1711327369890625
128.01,1711327369906250
121.82,1711327369921875
113.35,1711327369937500
104.31,1711327369953125
96.32,1711327369968750
90.43,1711327369984375
86.75,1711327370000000
84.65,1711327370015625
83.12,1711327370031250
81.21,1711327370046875
78.4,1711327370062500
74.61,1711327370078125
70.02,1711327370093750
64.79,1711327370109375
58.91,1711327370125000
52.17,1711327370140625
44.22,1711327370156250
34.77,1711327370171875
23.74,1711327370187500
11.31,1711327370203125
-2.1,1711327370218750
-15.85,1711327370234375
-29.16,1711327370250000
-41.32,1711327370265625
-51.81,1711327370281250
-60.6,1711327370296875
-68.16,1711327370312500
-75.48,1711327370328125
-83.83,1711327370343750
-94.41,1711327370359375
-108.01,1711327370375000
-124.59,1711327370390625
-142.94,1711327370406250
-160.51,1711327370421875
-173.57,1711327370437500
-177.98,1711327370453125
-170.34,1711327370468750
-149.26,1711327370484375
-116.1,1711327370500000
-74.87,1711327370515625
-31.08,1711327370531250
9.92,1711327370546875
44.36,1711327370562500
70.75,1711327370578125
89.51,1711327370593750
102.03,1711327370609375
109.64,1711327370625000
113.15,1711327370640625
112.94,1711327370656250
109.37,1711327370671875
103.25,1711327370687500
95.89,1711327370703125
88.78,1711327370718750
83.16,1711327370734375
79.54,1711327370750000
77.63,1711327370765625
76.51,1711327370781250
75.11,1711327370796875
72.61,1711327370812500
68.77,1711327370828125
63.8,1711327370843750
58.16,1711327370859375
52.24,1711327370875000
46.09,1711327370890625
39.4,1711327370906250
31.59,1711327370921875
22.08,1711327370937500
10.52,1711327370953125
-2.87,1711327370968750
-17.37,1711327370984375
-31.83,1711327371000000
-45.05,1711327371015625
-56.24,1711327371031250
-65.33,1711327371046875
-73.04,1711327371062500
-80.6,1711327371078125
-89.41,1711327371093750
-100.6,1711327371109375
-114.79,1711327371125000
-131.84,1711327371140625
-150.58,1711327371156250
-168.64,1711327371171875
-182.37,1711327371187500
-187.51,1711327371203125
-180.37,1711327371218750
-159.19,1711327371234375
-125.07,1711327371250000
-82.04,1711327371265625
-35.88,1711327371281250
7.69,1711327371296875
44.62,1711327371312500
73.3,1711327371328125
94.3,1711327371343750
109.27,1711327371359375
119.8,1711327371375000
126.78,1711327371390625
130.38,1711327371406250
130.57,1711327371421875
127.58,1711327371437500
122.18,1711327371453125
115.63,1711327371468750
109.19,1711327371484375
103.83,1711327371500000
99.92,1711327371515625
97.28,1711327371531250
95.4,1711327371546875
93.66,1711327371562500
91.56,1711327371578125
88.75,1711327371593750
84.95,1711327371609375
79.9,1711327371625000
73.38,1711327371640625
65.33,1711327371656250
55.89,1711327371671875
45.41,1711327371687500
34.28,1711327371703125
22.81,1711327371718750
11.08,1711327371734375
-0.94,1711327371750000
-13.15,1711327371765625
-25.23,1711327371781250
-36.65,1711327371796875
-46.9,1711327371812500
-55.78,1711327371828125
-63.59,1711327371843750
-71.17,1711327371859375
-79.61,1711327371875000
-90.05,1711327371890625
-103.24,1711327371906250
-119.18,1711327371921875
-136.67,1711327371937500
-153.08,1711327371953125
-164.58,1711327371968750
-166.95,1711327371984375
-156.87,1711327372000000
-133.12,1711327372015625
-97.28,1711327372031250
-53.29,1711327372046875
-6.37,1711327372062500
38.56,1711327372078125
77.99,1711327372093750
110.27,1711327372109375
135.15,1711327372125000
153.08,1711327372140625
164.59,1711327372156250
169.97,1711327372171875
169.49,1711327372187500
163.63,1711327372203125
153.36,1711327372218750
139.99,1711327372234375
125.01,1711327372250000
109.76,1711327372265625
95.15,1711327372281250
81.68,1711327372296875
69.5,1711327372312500
58.57,1711327372328125
48.83,1711327372343750
40.15,1711327372359375
32.31,1711327372375000
24.84,1711327372390625
17.09,1711327372406250
8.36,1711327372421875
-1.79,1711327372437500
-13.41,1711327372453125
-26.1,1711327372468750
-39.23,1711327372484375
-52.28,1711327372500000
-65.0,1711327372515625
-77.51,1711327372531250
-90.08,1711327372546875
-102.87,1711327372562500
-115.64,1711327372578125
-127.83,1711327372593750
-138.63,1711327372609375
-147.42,1711327372625000
-154.1,1711327372640625
-159.25,1711327372656250
-164.09,1711327372671875
-170.1,1711327372687500
-178.48,1711327372703125
-189.45,1711327372718750
-201.71,1711327372734375
-212.29,1711327372750000
-217.16,1711327372765625
-212.24,1711327372781250
-194.84,1711327372796875
-164.72,1711327372812500
-124.39,1711327372828125
-78.43,1711327372843750
-32.16,1711327372859375
9.9,1711327372875000
45.11,1711327372890625
72.91,1711327372906250
94.24,1711327372921875
110.61,1711327372937500
123.22,1711327372953125
132.64,1711327372968750
138.91,1711327372984375
141.92,1711327373000000
141.83,1711327373015625
139.13,1711327373031250
134.6,1711327373046875
129.06,1711327373062500
123.19,1711327373078125
117.48,1711327373093750
112.17,1711327373109375
107.33,1711327373125000
102.88,1711327373140625
98.48,1711327373156250
93.62,1711327373171875
87.64,1711327373187500
79.94,1711327373203125
70.25,1711327373218750
58.79,1711327373234375
46.27,1711327373250000
33.73,1711327373265625
22.14,1711327373281250
12.03,1711327373296875
3.26,1711327373312500
-4.83,1711327373328125
-13.12,1711327373343750
-22.17,1711327373359375
-31.92,1711327373375000
-41.76,1711327373390625
-50.86,1711327373406250
-58.68,1711327373421875
-65.26,1711327373437500
-71.3,1711327373453125
-77.95,1711327373468750
-86.43,1711327373484375
-97.7,1711327373500000
-111.89,1711327373515625
-127.86,1711327373531250
-142.88,1711327373546875
-152.87,1711327373562500
-153.29,1711327373578125
-140.67,1711327373593750
-113.95,1711327373609375
-75.34,1711327373625000
-29.77,1711327373640625
16.55,1711327373656250
58.02,1711327373671875
91.08,1711327373687500
114.72,1711327373703125
129.81,1711327373718750
138.07,1711327373734375
141.1,1711327373750000
139.9,1711327373765625
135.0,1711327373781250
126.95,1711327373796875
116.66,1711327373812500
105.43,1711327373828125
94.76,1711327373843750
85.84,1711327373859375
79.21,1711327373875000
74.58,1711327373890625
71.05,1711327373906250
67.42,1711327373921875
62.73,1711327373937500
56.48,1711327373953125
48.66,1711327373968750
39.64,1711327373984375
29.83,1711327374000000
19.51,1711327374015625
8.68,1711327374031250
-2.83,1711327374046875
-15.28,1711327374062500
-28.75,1711327374078125
-43.03,1711327374093750
-57.53,1711327374109375
-71.45,1711327374125000
-84.0,1711327374140625
-94.69,1711327374156250
-103.54,1711327374171875
-111.04,1711327374187500
-118.1,1711327374203125
-125.76,1711327374218750
-135.12,1711327374234375
-146.99,1711327374250000
-161.62,1711327374265625
-178.24,1711327374281250
-194.7,1711327374296875
-207.47,1711327374312500
-212.26,1711327374328125
-205.28,1711327374343750
-184.6,1711327374359375
-151.15,1711327374375000
-108.63,1711327374390625
-62.53,1711327374406250
-18.36,1711327374421875
19.75,1711327374437500
49.89,1711327374453125
72.15,1711327374468750
87.74,1711327374484375
98.03,1711327374500000
103.97,1711327374515625
106.01,1711327374531250
104.45,1711327374546875
99.86,1711327374562500
93.21,1711327374578125
85.85,1711327374593750
79.14,1711327374609375
74.1,1711327374625000
71.14,1711327374640625
70.07,1711327374656250
70.16,1711327374671875
70.49,1711327374687500
70.25,1711327374703125
68.89,1711327374718750
66.27,1711327374734375
62.43,1711327374750000
57.53,1711327374765625
51.64,1711327374781250
44.74,1711327374796875
36.69,1711327374812500
27.41,1711327374828125
16.97,1711327374843750
5.61,1711327374859375
-6.25,1711327374875000
-18.08,1711327374890625
-29.38,1711327374906250
-39.73,1711327374921875
-48.93,1711327374937500
-57.09,1711327374953125
-64.65,1711327374968750
-72.37,1711327374984375
-81.27,1711327375000000
-92.37,1711327375015625
-106.29,1711327375031250
-122.8,1711327375046875
-140.31,1711327375062500
-155.79,1711327375078125
-165.19,1711327375093750
-164.52,1711327375109375
-151.21,1711327375125000
-125.23,1711327375140625
-89.3,1711327375156250
-48.19,1711327375171875
-7.17,1711327375187500
29.57,1711327375203125
59.82,1711327375218750
83.34,1711327375234375
101.05,1711327375250000
114.05,1711327375265625
123.02,1711327375281250
128.21,1711327375296875
129.89,1711327375312500
128.86,1711327375328125
126.5,1711327375343750
124.39,1711327375359375
123.88,1711327375375000
125.54,1711327375390625
129.08,1711327375406250
133.52,1711327375421875
137.59,1711327375437500
140.1,1711327375453125
140.18,1711327375468750
137.42,1711327375484375
131.93,1711327375500000
124.16,1711327375515625
114.77,1711327375531250
104.34,1711327375546875
93.21,1711327375562500
81.41,1711327375578125
68.67,1711327375593750
54.73,1711327375609375
39.46,1711327375625000
23.03,1711327375640625
5.85,1711327375656250
-11.65,1711327375671875
-29.09,1711327375687500
-46.22,1711327375703125
-62.95,1711327375718750
-79.32,1711327375734375
-95.5,1711327375750000
-111.92,1711327375765625
-129.22,1711327375781250
-148.1,1711327375796875
-168.82,1711327375812500
-190.53,1711327375828125
-210.87,1711327375843750
-226.08,1711327375859375
-231.9,1711327375875000
-225.02,1711327375890625
-204.4,1711327375906250
-171.99,1711327375921875
-132.19,1711327375937500
-90.57,1711327375953125
-52.05,1711327375968750
-19.7,1711327375984375
5.68,1711327376000000
24.89,1711327376015625
39.31,1711327376031250
49.98,1711327376046875
57.27,1711327376062500
61.25,1711327376078125
62.12,1711327376093750
60.67,1711327376109375
58.15,1711327376125000
55.96,1711327376140625
55.1,1711327376156250
55.87,1711327376171875
57.88,1711327376187500
60.33,1711327376203125
62.45,1711327376218750
63.7,1711327376234375
63.99,1711327376250000
63.43,1711327376265625
62.18,1711327376281250
60.23,1711327376296875
57.34,1711327376312500
53.14,1711327376328125
47.29,1711327376343750
39.61,1711327376359375
30.18,1711327376375000
19.36,1711327376390625
7.72,1711327376406250
-3.99,1711327376421875
-15.05,1711327376437500
-24.9,1711327376453125
-33.42,1711327376468750
-40.96,1711327376484375
-48.22,1711327376500000
-56.19,1711327376515625
-65.8,1711327376531250
-77.75,1711327376546875
-92.24,1711327376562500
-108.73,1711327376578125
-125.63,1711327376593750
-140.24,1711327376609375
-149.17,1711327376625000
-149.13,1711327376640625
-138.06,1711327376656250
-116.01,1711327376671875
-85.36,1711327376687500
-50.15,1711327376703125
-14.8,1711327376718750
17.08,1711327376734375
43.45,1711327376750000
63.81,1711327376765625
78.52,1711327376781250
88.11,1711327376796875
92.94,1711327376812500
93.28,1711327376828125
89.72,1711327376843750
83.37,1711327376859375
75.88,1711327376875000
68.95,1711327376890625
63.83,1711327376906250
60.88,1711327376921875
59.6,1711327376937500
58.98,1711327376953125
58.01,1711327376968750
56.17,1711327376984375
53.55,1711327377000000
50.65,1711327377015625
47.96,1711327377031250
45.52,1711327377046875
42.73,1711327377062500
38.57,1711327377078125
32.0,1711327377093750
22.54,1711327377109375
10.59,1711327377125000
-2.64,1711327377140625
-15.56,1711327377156250
-26.78,1711327377171875
-35.73,1711327377187500
-42.87,1711327377203125
-49.44,1711327377218750
-57.1,1711327377234375
-67.34,1711327377250000
-81.09,1711327377265625
-98.24,1711327377281250
-117.4,1711327377296875
-135.83,1711327377312500
-149.73,1711327377328125
-155.1,1711327377343750
-148.96,1711327377359375
-130.49,1711327377375000
-101.47,1711327377390625
-65.88,1711327377406250
-28.63,1711327377421875
5.94,1711327377437500
35.14,1711327377453125
58.14,1711327377468750
75.41,1711327377484375
87.81,1711327377500000
95.87,1711327377515625
99.73,1711327377531250
99.39,1711327377546875
95.29,1711327377562500
88.51,1711327377578125
80.71,1711327377593750
73.57,1711327377609375
68.29,1711327377625000
65.19,1711327377640625
63.63,1711327377656250
62.48,1711327377671875
60.59,1711327377687500
57.28,1711327377703125
52.59,1711327377718750
47.06,1711327377734375
41.41,1711327377750000
35.97,1711327377765625
30.49,1711327377781250
24.15,1711327377796875
15.93,1711327377812500
5.13,1711327377828125
-8.15,1711327377843750
-22.99,1711327377859375
-37.85,1711327377875000
-51.27,1711327377890625
-62.37,1711327377906250
-71.23,1711327377921875
-78.98,1711327377937500
-87.29,1711327377953125
-97.92,1711327377968750
-112.12,1711327377984375
-130.11,1711327378000000
-150.79,1711327378015625
-171.67,1711327378031250
-189.09,1711327378046875
-198.9,1711327378062500
-197.51,1711327378078125
-183.01,1711327378093750
-155.97,1711327378109375
-119.5,1711327378125000
-78.38,1711327378140625
-37.77,1711327378156250
-1.79,1711327378171875
27.38,1711327378187500
49.42,1711327378203125
65.25,1711327378218750
76.04,1711327378234375
82.55,1711327378250000
84.98,1711327378265625
83.25,1711327378281250
77.68,1711327378296875
69.28,1711327378312500
59.8,1711327378328125
51.32,1711327378343750
45.67,1711327378359375
43.98,1711327378375000
46.58,1711327378390625
53.12,1711327378406250
62.74,1711327378421875
74.34,1711327378437500
86.6,1711327378453125
97.98,1711327378468750
106.89,1711327378484375
111.89,1711327378500000
111.93,1711327378515625
106.57,1711327378531250
95.97,1711327378546875
80.8,1711327378562500
62.16,1711327378578125
41.48,1711327378593750
20.43,1711327378609375
0.68,1711327378625000
-16.5,1711327378640625
-30.66,1711327378656250
-42.41,1711327378671875
-53.18,1711327378687500
-64.81,1711327378703125
-78.9,1711327378718750
-96.26,1711327378734375
-116.5,1711327378750000
-137.89,1711327378765625
-157.42,1711327378781250
-171.24,1711327378796875
-175.49,1711327378812500
-167.34,1711327378828125
-146.06,1711327378843750
-113.48,1711327378859375
-73.64,1711327378875000
-31.66,1711327378890625
7.65,1711327378906250
41.08,1711327378921875
67.51,1711327378937500
87.42,1711327378953125
102.19,1711327378968750
113.03,1711327378984375
120.59,1711327379000000
124.96,1711327379015625
126.03,1711327379031250
123.95,1711327379046875
119.3,1711327379062500
112.99,1711327379078125
106.07,1711327379093750
99.33,1711327379109375
93.2,1711327379125000
87.74,1711327379140625
82.78,1711327379156250
78.12,1711327379171875
73.61,1711327379187500
69.22,1711327379203125
65.0,1711327379218750
60.94,1711327379234375
56.86,1711327379250000
52.29,1711327379265625
46.52,1711327379281250
38.84,1711327379296875
28.83,1711327379312500
16.66,1711327379328125
3.21,1711327379343750
-10.29,1711327379359375
-22.71,1711327379375000
-33.45,1711327379390625
-42.75,1711327379406250
-51.55,1711327379421875
-61.17,1711327379437500
-72.96,1711327379453125
-87.88,1711327379468750
-106.3,1711327379484375
-127.64,1711327379500000
-150.1,1711327379515625
-170.65,1711327379531250
-185.35,1711327379546875
-190.31,1711327379562500
-182.75,1711327379578125
-162.16,1711327379593750
-130.64,1711327379609375
-92.38,1711327379625000
-52.49,1711327379640625
-15.46,1711327379656250
15.92,1711327379671875
40.87,1711327379687500
60.05,1711327379703125
74.66,1711327379718750
85.52,1711327379734375
92.73,1711327379750000
95.95,1711327379765625
94.99,1711327379781250
90.38,1711327379796875
83.51,1711327379812500
76.27,1711327379828125
70.4,1711327379843750
66.95,1711327379859375
66.01,1711327379875000
66.86,1711327379890625
68.51,1711327379906250
70.07,1711327379921875
71.08,1711327379937500
71.38,1711327379953125
70.91,1711327379968750
69.33,1711327379984375
66.04,1711327380000000
60.27,1711327380015625
51.56,1711327380031250
40.08,1711327380046875
26.99,1711327380062500
14.24,1711327380078125
4.04,1711327380093750
-1.9,1711327380109375
-3.14,1711327380125000
-0.78,1711327380140625
2.69,1711327380156250
4.2,1711327380171875
1.04,1711327380187500
-8.43,1711327380203125
-24.2,1711327380218750
-44.6,1711327380234375
-66.49,1711327380250000
-85.92,1711327380265625
-98.83,1711327380281250
-102.09,1711327380296875
-94.32,1711327380312500
-76.43,1711327380328125
-51.42,1711327380343750
-23.5,1711327380359375
3.18,1711327380375000
25.79,1711327380390625
43.31,1711327380406250
56.41,1711327380421875
66.57,1711327380437500
75.14,1711327380453125
82.66,1711327380468750
88.83,1711327380484375
92.91,1711327380500000
94.36,1711327380515625
93.32,1711327380531250
90.6,1711327380546875
87.4,1711327380562500
84.58,1711327380578125
82.33,1711327380593750
80.02,1711327380609375
76.62,1711327380625000
71.31,1711327380640625
63.88,1711327380656250
54.86,1711327380671875
45.06,1711327380687500
35.03,1711327380703125
24.61,1711327380718750
12.92,1711327380734375
-1.16,1711327380750000
-18.41,1711327380765625
-38.76,1711327380781250
-61.19,1711327380796875
-83.99,1711327380812500
-105.3,1711327380828125
-123.63,1711327380843750
-138.23,1711327380859375
-149.16,1711327380875000
-157.03,1711327380890625
-162.85,1711327380906250
-167.78,1711327380921875
-173.04,1711327380937500
-179.63,1711327380953125
-188.02,1711327380968750
-197.6,1711327380984375
-206.28,1711327381000000
-210.56,1711327381015625
-206.26,1711327381031250
-189.83,1711327381046875
-159.72,1711327381062500
-117.1,1711327381078125
-65.76,1711327381093750
-10.97,1711327381109375
42.05,1711327381125000
89.4,1711327381140625
129.18,1711327381156250
161.24,1711327381171875
186.53,1711327381187500
206.35,1711327381203125
221.81,1711327381218750
233.69,1711327381234375
242.51,1711327381250000
248.7,1711327381265625
252.64,1711327381281250
254.68,1711327381296875
255.04,1711327381312500
253.78,1711327381328125
250.78,1711327381343750
246.04,1711327381359375
239.8,1711327381375000
232.77,1711327381390625
226.04,1711327381406250
220.76,1711327381421875
217.68,1711327381437500
216.79,1711327381453125
217.26,1711327381468750
217.65,1711327381484375
216.46,1711327381500000
212.59,1711327381515625
205.74,1711327381531250
196.39,1711327381546875
185.48,1711327381562500
173.97,1711327381578125
162.46,1711327381593750
150.93,1711327381609375
138.9,1711327381625000
125.67,1711327381640625
110.74,1711327381656250
94.01,1711327381671875
75.86,1711327381687500
56.86,1711327381703125
37.62,1711327381718750
18.43,1711327381734375
-0.78,1711327381750000
-20.39,1711327381765625
-40.91,1711327381781250
-62.96,1711327381796875
-87.23,1711327381812500
-114.38,1711327381828125
-144.76,1711327381843750
-177.88,1711327381859375
-212.07,1711327381875000
-244.48,1711327381890625
-271.61,1711327381906250
-290.34,1711327381921875
-298.99,1711327381937500
-297.78,1711327381953125
-288.68,1711327381968750
-274.67,1711327381984375
-258.75,1711327382000000
-243.21,1711327382015625
-229.42,1711327382031250
-217.94,1711327382046875
-208.89,1711327382062500
-202.09,1711327382078125
-197.08,1711327382093750
-193.07,1711327382109375
-188.97,1711327382125000
-183.65,1711327382140625
-176.19,1711327382156250
-166.24,1711327382171875
-153.96,1711327382187500
-140.06,1711327382203125
-125.47,1711327382218750
-111.14,1711327382234375
-97.85,1711327382250000
-86.19,1711327382265625
-76.52,1711327382281250
-68.92,1711327382296875
-63.25,1711327382312500
-59.24,1711327382328125
-56.58,1711327382343750
-55.1,1711327382359375
-54.89,1711327382375000
-56.26,1711327382390625
-59.64,1711327382406250
-65.44,1711327382421875
-74.02,1711327382437500
-85.59,1711327382453125
-100.04,1711327382468750
-116.54,1711327382484375
-133.19,1711327382500000
-146.86,1711327382515625
-153.74,1711327382531250
-150.39,1711327382546875
-134.99,1711327382562500
-108.25,1711327382578125
-73.32,1711327382593750
-34.82,1711327382609375
2.63,1711327382625000
35.7,1711327382640625
62.87,1711327382656250
84.22,1711327382671875
100.64,1711327382687500
113.04,1711327382703125
121.91,1711327382718750
127.41,1711327382734375
129.58,1711327382750000
128.75,1711327382765625
125.69,1711327382781250
121.49,1711327382796875
117.31,1711327382812500
114.03,1711327382828125
112.07,1711327382843750
111.22,1711327382859375
110.82,1711327382875000
109.83,1711327382890625
107.12,1711327382906250
101.59,1711327382921875
92.32,1711327382937500
78.72,1711327382953125
60.63,1711327382968750
38.52,1711327382984375
13.62,1711327383000000
-12.12,1711327383015625
-36.44,1711327383031250
-57.23,1711327383046875
-73.16,1711327383062500
-84.1,1711327383078125
-90.91,1711327383093750
-95.07,1711327383109375
-98.09,1711327383125000
-100.98,1711327383140625
-104.18,1711327383156250
-107.85,1711327383171875
-112.28,1711327383187500
-118.08,1711327383203125
-125.95,1711327383218750
-135.82,1711327383234375
-146.14,1711327383250000
-153.68,1711327383265625
-154.13,1711327383281250
-143.46,1711327383296875
-119.52,1711327383312500
-82.89,1711327383328125
-36.92,1711327383343750
13.28,1711327383359375
62.34,1711327383375000
105.89,1711327383390625
141.28,1711327383406250
167.59,1711327383421875
185.16,1711327383437500
194.96,1711327383453125
198.18,1711327383468750
196.03,1711327383484375
189.64,1711327383500000
180.15,1711327383515625
168.69,1711327383531250
156.31,1711327383546875
143.89,1711327383562500
131.85,1711327383578125
120.0,1711327383593750
107.55,1711327383609375
93.44,1711327383625000
76.81,1711327383640625
57.68,1711327383656250
37.15,1711327383671875
17.29,1711327383687500
0.53,1711327383703125
-11.11,1711327383718750
-16.82,1711327383734375
-17.22,1711327383750000
-14.1,1711327383765625
-9.73,1711327383781250
-5.91,1711327383796875
-3.39,1711327383812500
-1.83,1711327383828125
-0.24,1711327383843750
2.18,1711327383859375
5.29,1711327383875000
7.79,1711327383890625
7.5,1711327383906250
2.2,1711327383921875
-9.42,1711327383937500
-27.21,1711327383953125
-49.29,1711327383968750
-72.39,1711327383984375
-92.64,1711327384000000
-106.56,1711327384015625
-111.9,1711327384031250
-108.31,1711327384046875
-97.33,1711327384062500
-81.85,1711327384078125
-65.24,1711327384093750
-50.42,1711327384109375
-39.29,1711327384125000
-32.79,1711327384140625
-31.23,1711327384156250
-34.62,1711327384171875
-42.8,1711327384187500
-55.15,1711327384203125
-70.2,1711327384218750
-85.57,1711327384234375
-98.33,1711327384250000
-105.88,1711327384265625
-106.67,1711327384281250
-100.58,1711327384296875
-88.72,1711327384312500
-72.87,1711327384328125
-54.92,1711327384343750
-36.47,1711327384359375
-18.75,1711327384375000
-2.67,1711327384390625
11.26,1711327384406250
22.96,1711327384421875
32.83,1711327384437500
41.58,1711327384453125
49.85,1711327384468750
57.93,1711327384484375
65.48,1711327384500000
71.69,1711327384515625
75.56,1711327384531250
76.34,1711327384546875
73.75,1711327384562500
67.99,1711327384578125
59.55,1711327384593750
48.97,1711327384609375
36.61,1711327384625000
22.56,1711327384640625
6.61,1711327384656250
-11.6,1711327384671875
-32.49,1711327384687500
-56.25,1711327384703125
-82.35,1711327384718750
-109.29,1711327384734375
-134.31,1711327384750000
-153.89,1711327384765625
-164.41,1711327384781250
-163.33,1711327384796875
-150.01,1711327384812500
-126.04,1711327384828125
-94.72,1711327384843750
-60.02,1711327384859375
-25.51,1711327384875000
6.46,1711327384890625
34.79,1711327384906250
59.32,1711327384921875
80.21,1711327384937500
97.51,1711327384953125
111.07,1711327384968750
120.65,1711327384984375
126.24,1711327385000000
128.23,1711327385015625
127.45,1711327385031250
125.0,1711327385046875
121.96,1711327385062500
119.07,1711327385078125
116.64,1711327385093750
114.51,1711327385109375
112.33,1711327385125000
109.73,1711327385140625
106.57,1711327385156250
102.94,1711327385171875
98.96,1711327385187500
94.62,1711327385203125
89.68,1711327385218750
83.72,1711327385234375
76.24,1711327385250000
66.91,1711327385265625
55.69,1711327385281250
42.94,1711327385296875
29.35,1711327385312500
15.73,1711327385328125
2.76,1711327385343750
-9.15,1711327385359375
-20.02,1711327385375000
-30.22,1711327385390625
-40.33,1711327385406250
-51.12,1711327385421875
-63.41,1711327385437500
-77.96,1711327385453125
-95.11,1711327385468750
-114.32,1711327385484375
-133.8,1711327385500000
-150.41,1711327385515625
-160.31,1711327385531250
-160.04,1711327385546875
-147.77,1711327385562500
-124.02,1711327385578125
-91.65,1711327385593750
-54.87,1711327385609375
-18.0,1711327385625000
15.68,1711327385640625
44.42,1711327385656250
67.86,1711327385671875
86.39,1711327385687500
100.56,1711327385703125
110.73,1711327385718750
117.05,1711327385734375
119.76,1711327385750000
119.34,1711327385765625
116.6,1711327385781250
112.57,1711327385796875
108.23,1711327385812500
104.23,1711327385828125
100.79,1711327385843750
97.72,1711327385859375
94.6,1711327385875000
91.03,1711327385890625
86.81,1711327385906250
82.01,1711327385921875
76.86,1711327385937500
71.49,1711327385953125
65.83,1711327385968750
59.46,1711327385984375
51.82,1711327386000000
42.32,1711327386015625
30.71,1711327386031250
17.15,1711327386046875
2.36,1711327386062500
-12.64,1711327386078125
-26.81,1711327386093750
-39.36,1711327386109375
-50.08,1711327386125000
-59.37,1711327386140625
-68.18,1711327386156250
-77.78,1711327386171875
-89.43,1711327386187500
-104.05,1711327386203125
-121.65,1711327386218750
-141.0,1711327386234375
-159.39,1711327386250000
-172.97,1711327386265625
-177.64,1711327386281250
-170.31,1711327386296875
-150.06,1711327386312500
-118.71,1711327386328125
-80.41,1711327386343750
-40.3,1711327386359375
-3.0,1711327386375000
28.61,1711327386390625
53.76,1711327386406250
73.3,1711327386421875
88.66,1711327386437500
101.03,1711327386453125
110.92,1711327386468750
118.23,1711327386484375
122.73,1711327386500000
124.38,1711327386515625
123.58,1711327386531250
120.99,1711327386546875
117.37,1711327386562500
113.35,1711327386578125
109.31,1711327386593750
105.31,1711327386609375
101.18,1711327386625000
96.6,1711327386640625
91.19,1711327386656250
84.59,1711327386671875
76.58,1711327386687500
67.09,1711327386703125
56.24,1711327386718750
44.28,1711327386734375
31.58,1711327386750000
18.61,1711327386765625
5.81,1711327386781250
-6.39,1711327386796875
-17.66,1711327386812500
-27.83,1711327386828125
-36.93,1711327386843750
-45.17,1711327386859375
-52.87,1711327386875000
-60.52,1711327386890625
-68.65,1711327386906250
-77.84,1711327386921875
-88.72,1711327386937500
-101.86,1711327386953125
-117.68,1711327386968750
-136.08,1711327386984375
-156.09,1711327387000000
-175.55,1711327387015625
-191.12,1711327387031250
-198.87,1711327387046875
-195.44,1711327387062500
-179.2,1711327387078125
-151.05,1711327387093750
-114.36,1711327387109375
-73.9,1711327387125000
-34.4,1711327387140625
0.76,1711327387156250
30.1,1711327387171875
53.73,1711327387187500
72.58,1711327387203125
87.5,1711327387218750
98.84,1711327387234375
106.54,1711327387250000
110.48,1711327387265625
110.84,1711327387281250
108.24,1711327387296875
103.55,1711327387312500
97.8,1711327387328125
91.82,1711327387343750
86.22,1711327387359375
81.43,1711327387375000
77.62,1711327387390625
74.82,1711327387406250
72.82,1711327387421875
71.21,1711327387437500
69.36,1711327387453125
66.68,1711327387468750
62.67,1711327387484375
57.14,1711327387500000
50.13,1711327387515625
41.81,1711327387531250
32.33,1711327387546875
21.79,1711327387562500
10.26,1711327387578125
-1.99,1711327387593750
-14.46,1711327387609375
-26.53,1711327387625000
-37.61,1711327387640625
-47.44,1711327387656250
-56.17,1711327387671875
-64.41,1711327387687500
-73.09,1711327387703125
-83.23,1711327387718750
-95.75,1711327387734375
-111.09,1711327387750000
-128.85,1711327387765625
-147.33,1711327387781250
-163.48,1711327387796875
-173.32,1711327387812500
-173.05,1711327387828125
-160.28,1711327387843750
-135.12,1711327387859375
-100.34,1711327387875000
-60.53,1711327387890625
-20.77,1711327387906250
14.95,1711327387921875
44.51,1711327387937500
67.67,1711327387953125
85.35,1711327387968750
98.7,1711327387984375
108.46,1711327388000000
114.76,1711327388015625
117.53,1711327388031250
116.83,1711327388046875
113.2,1711327388062500
107.57,1711327388078125
101.05,1711327388093750
94.63,1711327388109375
88.97,1711327388125000
84.44,1711327388140625
81.12,1711327388156250
78.96,1711327388171875
77.76,1711327388187500
77.11,1711327388203125
76.33,1711327388218750
74.59,1711327388234375
71.06,1711327388250000
65.25,1711327388265625
57.19,1711327388281250
47.44,1711327388296875
36.81,1711327388312500
26.04,1711327388328125
15.58,1711327388343750
5.37,1711327388359375
-4.89,1711327388375000
-15.6,1711327388390625
-26.93,1711327388406250
-38.73,1711327388421875
-50.52,1711327388437500
-61.76,1711327388453125
-72.06,1711327388468750
-81.39,1711327388484375
-90.2,1711327388500000
-99.42,1711327388515625
-110.24,1711327388531250
-123.66,1711327388546875
-139.93,1711327388562500
-157.93,1711327388578125
-175.0,1711327388593750
-187.27,1711327388609375
-190.61,1711327388625000
-181.96,1711327388640625
-160.47,1711327388656250
-127.98,1711327388671875
-88.53,1711327388687500
-47.19,1711327388703125
-8.53,1711327388718750
24.48,1711327388734375
50.76,1711327388750000
70.7,1711327388765625
85.31,1711327388781250
95.46,1711327388796875
101.52,1711327388812500
103.65,1711327388828125
102.16,1711327388843750
97.84,1711327388859375
91.94,1711327388875000
85.91,1711327388890625
80.99,1711327388906250
77.88,1711327388921875
76.64,1711327388937500
76.9,1711327388953125
78.06,1711327388968750
79.49,1711327388984375
80.65,1711327389000000
81.08,1711327389015625
80.37,1711327389031250
78.15,1711327389046875
74.14,1711327389062500
68.2,1711327389078125
60.35,1711327389093750
50.76,1711327389109375
39.66,1711327389125000
27.34,1711327389140625
14.12,1711327389156250
0.42,1711327389171875
-13.24,1711327389187500
-26.28,1711327389203125
-38.16,1711327389218750
-48.58,1711327389234375
-57.58,1711327389250000
-65.6,1711327389265625
-73.4,1711327389281250
-81.92,1711327389296875
-92.16,1711327389312500
-104.92,1711327389328125
-120.4,1711327389343750
-137.74,1711327389359375
-154.74,1711327389375000
-167.89,1711327389390625
-173.19,1711327389406250
-167.25,1711327389421875
-148.59,1711327389437500
-118.36,1711327389453125
-80.09,1711327389468750
-38.73,1711327389484375
0.86,1711327389500000
35.09,1711327389515625
62.24,1711327389531250
82.14,1711327389546875
95.63,1711327389562500
103.7,1711327389578125
107.11,1711327389593750
106.41,1711327389609375
102.2,1711327389625000
95.38,1711327389640625
87.27,1711327389656250
79.32,1711327389671875
72.75,1711327389687500
68.19,1711327389703125
65.63,1711327389718750
64.58,1711327389734375
64.42,1711327389750000
64.61,1711327389765625
64.79,1711327389781250
64.59,1711327389796875
63.57,1711327389812500
61.14,1711327389828125
56.81,1711327389843750
50.41,1711327389859375
42.23,1711327389875000
32.9,1711327389890625
23.11,1711327389906250
13.33,1711327389921875
3.63,1711327389937500
-6.19,1711327389953125
-16.46,1711327389968750
-27.3,1711327389984375
-38.53,1711327390000000
-49.68,1711327390015625
-60.17,1711327390031250
-69.6,1711327390046875
-77.96,1711327390062500
-85.8,1711327390078125
-94.07,1711327390093750
-104.05,1711327390109375
-116.79,1711327390125000
-132.74,1711327390140625
-151.08,1711327390156250
-169.39,1711327390171875
-183.89,1711327390187500
-190.16,1711327390203125
-184.53,1711327390218750
-165.32,1711327390234375
-133.69,1711327390250000
-93.41,1711327390265625
-49.77,1711327390281250
-7.99,1711327390296875
28.06,1711327390312500
56.61,1711327390328125
77.71,1711327390343750
92.44,1711327390359375
102.08,1711327390375000
107.61,1711327390390625
109.73,1711327390406250
108.98,1711327390421875
106.08,1711327390437500
101.88,1711327390453125
97.22,1711327390468750
92.77,1711327390484375
88.85,1711327390500000
85.53,1711327390515625
82.72,1711327390531250
80.43,1711327390546875
78.65,1711327390562500
77.35,1711327390578125
76.27,1711327390593750
74.81,1711327390609375
72.16,1711327390625000
67.54,1711327390640625
60.6,1711327390656250
51.5,1711327390671875
40.96,1711327390687500
29.88,1711327390703125
19.05,1711327390718750
8.73,1711327390734375
-1.28,1711327390750000
-11.57,1711327390765625
-22.57,1711327390781250
-34.37,1711327390796875
-46.53,1711327390812500
-58.33,1711327390828125
-69.07,1711327390843750
-78.45,1711327390859375
-86.77,1711327390875000
-94.9,1711327390890625
-104.13,1711327390906250
-115.84,1711327390921875
-130.95,1711327390937500
-149.3,1711327390953125
-169.15,1711327390968750
-187.09,1711327390984375
-198.6,1711327391000000
-199.31,1711327391015625
-186.4,1711327391031250
-159.77,1711327391046875
-122.21,1711327391062500
-78.65,1711327391078125
-34.67,1711327391093750
5.1,1711327391109375
37.95,1711327391125000
63.22,1711327391140625
81.78,1711327391156250
95.0,1711327391171875
104.03,1711327391187500
109.4,1711327391203125
111.12,1711327391218750
109.19,1711327391234375
103.99,1711327391250000
96.55,1711327391265625
88.38,1711327391281250
81.11,1711327391296875
75.89,1711327391312500
73.07,1711327391328125
72.24,1711327391343750
72.48,1711327391359375
72.73,1711327391375000
72.25,1711327391390625
70.66,1711327391406250
67.92,1711327391421875
64.11,1711327391437500
59.24,1711327391453125
53.19,1711327391468750
45.74,1711327391484375
36.78,1711327391500000
26.41,1711327391515625
15.03,1711327391531250
3.24,1711327391546875
-8.29,1711327391562500
-19.06,1711327391578125
-28.79,1711327391593750
-37.55,1711327391609375
-45.64,1711327391625000
-53.56,1711327391640625
-61.96,1711327391656250
-71.58,1711327391671875
-83.17,1711327391687500
-97.27,1711327391703125
-113.69,1711327391718750
-131.18,1711327391734375
-147.21,1711327391750000
-158.27,1711327391765625
-160.69,1711327391781250
-151.76,1711327391796875
-130.7,1711327391812500
-99.16,1711327391828125
-60.8,1711327391843750
-20.34,1711327391859375
17.8,1711327391875000
50.48,1711327391890625
76.3,1711327391906250
95.26,1711327391921875
108.1,1711327391937500
115.58,1711327391953125
118.18,1711327391968750
116.22,1711327391984375
110.24,1711327392000000
101.32,1711327392015625
91.12,1711327392031250
81.53,1711327392046875
74.11,1711327392062500
69.58,1711327392078125
67.72,1711327392093750
67.58,1711327392109375
67.87,1711327392125000
67.5,1711327392140625
65.88,1711327392156250
62.9,1711327392171875
58.81,1711327392187500
53.88,1711327392203125
48.17,1711327392218750
41.37,1711327392234375
33.04,1711327392250000
22.76,1711327392265625
10.52,1711327392281250
-3.13,1711327392296875
-17.22,1711327392312500
-30.64,1711327392328125
-42.57,1711327392343750
-52.87,1711327392359375
-62.0,1711327392375000
-70.93,1711327392390625
-80.79,1711327392406250
-92.6,1711327392421875
-107.09,1711327392437500
-124.46,1711327392453125
-144.12,1711327392468750
-164.35,1711327392484375
-182.18,1711327392500000
-193.69,1711327392515625
-194.9,1711327392531250
-182.98,1711327392546875
-157.38,1711327392562500
-120.24,1711327392578125
-76.04,1711327392593750
-30.19,1711327392609375
12.35,1711327392625000
48.28,1711327392640625
76.35,1711327392656250
96.96,1711327392671875
111.32,1711327392687500
120.61,1711327392703125
125.6,1711327392718750
126.6,1711327392734375
123.9,1711327392750000
118.09,1711327392765625
110.24,1711327392781250
101.8,1711327392796875
94.18,1711327392812500
88.38,1711327392828125
84.76,1711327392843750
82.91,1711327392859375
82.0,1711327392875000
81.03,1711327392890625
79.17,1711327392906250
75.97,1711327392921875
71.24,1711327392937500
65.02,1711327392953125
57.37,1711327392968750
48.34,1711327392984375
37.88,1711327393000000
26.05,1711327393015625
12.96,1711327393031250
-1.07,1711327393046875
-15.55,1711327393062500
-29.9,1711327393078125
-43.54,1711327393093750
-56.06,1711327393109375
-67.3,1711327393125000
-77.51,1711327393140625
-87.29,1711327393156250
-97.54,1711327393171875
-109.32,1711327393187500
-123.6,1711327393203125
-140.9,1711327393218750
-160.83,1711327393234375
-181.66,1711327393250000
-200.16,1711327393265625
-212.05,1711327393281250
-212.98,1711327393296875
-199.96,1711327393312500
-172.47,1711327393328125
-132.96,1711327393343750
-86.24,1711327393359375
-38.09,1711327393375000
6.47,1711327393390625
44.29,1711327393406250
74.48,1711327393421875
97.8,1711327393437500
115.68,1711327393453125
129.39,1711327393468750
139.6,1711327393484375
146.45,1711327393500000
149.94,1711327393515625
150.16,1711327393531250
147.45,1711327393546875
142.33,1711327393562500
135.47,1711327393578125
127.57,1711327393593750
119.41,1711327393609375
111.81,1711327393625000
105.54,1711327393640625
101.12,1711327393656250
98.64,1711327393671875
97.6,1711327393687500
96.97,1711327393703125
95.38,1711327393718750
91.54,1711327393734375
84.59,1711327393750000
74.37,1711327393765625
61.59,1711327393781250
47.39,1711327393796875
33.05,1711327393812500
19.37,1711327393828125
6.53,1711327393843750
-5.89,1711327393859375
-18.45,1711327393875000
-31.48,1711327393890625
-44.81,1711327393906250
-57.94,1711327393921875
-70.35,1711327393937500
-81.83,1711327393953125
-92.7,1711327393968750
-103.75,1711327393984375
-116.0,1711327394000000
-130.3,1711327394015625
-146.9,1711327394031250
-164.92,1711327394046875
-182.06,1711327394062500
-194.76,1711327394078125
-198.93,1711327394093750
-191.2,1711327394109375
-170.17,1711327394125000
-137.19,1711327394140625
-96.05,1711327394156250
-51.9,1711327394171875
-9.68,1711327394187500
27.17,1711327394203125
57.23,1711327394218750
80.77,1711327394234375
98.87,1711327394250000
112.59,1711327394265625
122.48,1711327394281250
128.59,1711327394296875
130.85,1711327394312500
129.45,1711327394328125
125.01,1711327394343750
118.49,1711327394359375
110.96,1711327394375000
103.29,1711327394390625
96.17,1711327394406250
90.03,1711327394421875
85.12,1711327394437500
81.56,1711327394453125
