value,timestamp
-0.0,1712021956000000
-0.0,1712021956015625
-0.0,1712021956031250
-0.0,1712021956046875
-0.0,1712021956062500
-0.0,1712021956078125
-0.0,1712021956093750
-0.0,1712021956109375
-0.0,1712021956125000
-0.0,1712021956140625
0.0,1712021956156250
0.01,1712021956171875
0.01,1712021956187500
-0.0,1712021956203125
-0.03,1712021956218750
-0.05,1712021956234375
-0.05,1712021956250000
0.0,1712021956265625
0.13,1712021956281250
0.36,1712021956296875
0.66,1712021956312500
1.01,1712021956328125
1.37,1712021956343750
1.72,1712021956359375
2.06,1712021956375000
2.4,1712021956390625
2.79,1712021956406250
3.24,1712021956421875
3.8,1712021956437500
4.42,1712021956453125
5.06,1712021956468750
5.66,1712021956484375
6.2,1712021956500000
6.68,1712021956515625
7.15,1712021956531250
7.68,1712021956546875
8.31,1712021956562500
9.14,1712021956578125
10.09,1712021956593750
11.04,1712021956609375
11.88,1712021956625000
12.56,1712021956640625
13.14,1712021956656250
13.76,1712021956671875
14.65,1712021956687500
15.96,1712021956703125
17.91,1712021956718750
20.32,1712021956734375
22.9,1712021956750000
25.38,1712021956765625
27.58,1712021956781250
29.57,1712021956796875
31.68,1712021956812500
34.32,1712021956828125
37.81,1712021956843750
42.54,1712021956859375
48.15,1712021956875000
54.1,1712021956890625
59.83,1712021956906250
64.97,1712021956921875
69.58,1712021956937500
74.14,1712021956953125
79.34,1712021956968750
85.71,1712021956984375
93.76,1712021957000000
103.0,1712021957015625
112.62,1712021957031250
121.73,1712021957046875
129.77,1712021957062500
136.75,1712021957078125
143.3,1712021957093750
150.75,1712021957109375
157.77,1712021957125000
166.64,1712021957140625
177.95,1712021957156250
191.79,1712021957171875
206.97,1712021957187500
220.57,1712021957203125
228.25,1712021957218750
225.36,1712021957234375
208.53,1712021957250000
176.87,1712021957265625
132.76,1712021957281250
80.05,1712021957296875
23.07,1712021957312500
-34.94,1712021957328125
-92.44,1712021957343750
-149.16,1712021957359375
-205.23,1712021957375000
-260.37,1712021957390625
-313.73,1712021957406250
-363.84,1712021957421875
-409.79,1712021957437500
-450.88,1712021957453125
-486.52,1712021957468750
-515.83,1712021957484375
-537.43,1712021957500000
-549.53,1712021957515625
-550.35,1712021957531250
-538.8,1712021957546875
-514.64,1712021957562500
-479.08,1712021957578125
-434.28,1712021957593750
-382.88,1712021957609375
-327.52,1712021957625000
-270.44,1712021957640625
-213.34,1712021957656250
-157.44,1712021957671875
-103.75,1712021957687500
-53.14,1712021957703125
-6.62,1712021957718750
34.87,1712021957734375
70.63,1712021957750000
100.37,1712021957765625
124.26,1712021957781250
142.88,1712021957796875
157.02,1712021957812500
167.43,1712021957828125
174.73,1712021957843750
179.2,1712021957859375
181.01,1712021957875000
180.24,1712021957890625
177.15,1712021957906250
172.17,1712021957921875
165.87,1712021957937500
158.88,1712021957953125
151.68,1712021957968750
144.47,1712021957984375
137.19,1712021958000000
129.6,1712021958015625
121.47,1712021958031250
112.76,1712021958046875
103.71,1712021958062500
94.73,1712021958078125
86.32,1712021958093750
78.77,1712021958109375
72.08,1712021958125000
65.88,1712021958140625
59.68,1712021958156250
53.02,1712021958171875
45.77,1712021958187500
38.2,1712021958203125
30.88,1712021958218750
24.37,1712021958234375
19.05,1712021958250000
14.88,1712021958265625
11.47,1712021958281250
8.28,1712021958296875
4.77,1712021958312500
0.56,1712021958328125
-4.62,1712021958343750
-10.8,1712021958359375
-17.54,1712021958375000
-23.62,1712021958390625
-27.17,1712021958406250
-26.13,1712021958421875
-19.26,1712021958437500
-6.95,1712021958453125
8.56,1712021958468750
23.93,1712021958484375
35.97,1712021958500000
42.9,1712021958515625
44.81,1712021958531250
43.25,1712021958546875
40.15,1712021958562500
36.85,1712021958578125
33.78,1712021958593750
30.72,1712021958609375
27.46,1712021958625000
24.13,1712021958640625
21.24,1712021958656250
19.26,1712021958671875
18.22,1712021958687500
17.64,1712021958703125
16.8,1712021958718750
15.1,1712021958734375
12.52,1712021958750000
9.67,1712021958765625
7.51,1712021958781250
6.82,1712021958796875
7.87,1712021958812500
10.23,1712021958828125
13.1,1712021958843750
15.59,1712021958859375
17.15,1712021958875000
17.65,1712021958890625
17.29,1712021958906250
16.35,1712021958921875
15.04,1712021958937500
13.51,1712021958953125
11.84,1712021958968750
10.14,1712021958984375
8.49,1712021959000000
6.9,1712021959015625
5.25,1712021959031250
3.45,1712021959046875
1.51,1712021959062500
-0.37,1712021959078125
-1.87,1712021959093750
-2.79,1712021959109375
-3.08,1712021959125000
-2.96,1712021959140625
-2.79,1712021959156250
-2.87,1712021959171875
-3.28,1712021959187500
-3.93,1712021959203125
-4.61,1712021959218750
-5.16,1712021959234375
-5.5,1712021959250000
-5.66,1712021959265625
-5.71,1712021959281250
-5.72,1712021959296875
-5.7,1712021959312500
-5.63,1712021959328125
-5.47,1712021959343750
-5.18,1712021959359375
-4.74,1712021959375000
-4.17,1712021959390625
-3.52,1712021959406250
-2.91,1712021959421875
-2.43,1712021959437500
-2.13,1712021959453125
-1.96,1712021959468750
-1.78,1712021959484375
-1.4,1712021959500000
-0.59,1712021959515625
0.86,1712021959531250
3.11,1712021959546875
6.23,1712021959562500
10.13,1712021959578125
14.46,1712021959593750
18.7,1712021959609375
22.24,1712021959625000
24.57,1712021959640625
25.4,1712021959656250
24.73,1712021959671875
22.76,1712021959687500
19.82,1712021959703125
16.31,1712021959718750
12.4,1712021959734375
8.28,1712021959750000
4.2,1712021959765625
0.37,1712021959781250
-3.04,1712021959796875
-5.97,1712021959812500
-8.42,1712021959828125
-10.5,1712021959843750
-12.27,1712021959859375
-13.75,1712021959875000
-14.85,1712021959890625
-15.48,1712021959906250
-15.63,1712021959921875
-15.35,1712021959937500
-14.84,1712021959953125
-14.36,1712021959968750
-14.11,1712021959984375
-14.14,1712021960000000
-14.35,1712021960015625
-14.49,1712021960031250
-14.36,1712021960046875
-13.83,1712021960062500
-13.01,1712021960078125
-12.1,1712021960093750
-11.35,1712021960109375
-10.91,1712021960125000
-10.87,1712021960140625
-11.18,1712021960156250
-11.73,1712021960171875
-12.34,1712021960187500
-12.73,1712021960203125
-12.57,1712021960218750
-11.43,1712021960234375
-9.05,1712021960250000
-5.37,1712021960265625
-0.77,1712021960281250
4.07,1712021960296875
8.36,1712021960312500
11.46,1712021960328125
13.08,1712021960343750
13.38,1712021960359375
12.77,1712021960375000
11.73,1712021960390625
10.55,1712021960406250
9.35,1712021960421875
8.11,1712021960437500
6.78,1712021960453125
5.45,1712021960468750
4.25,1712021960484375
3.27,1712021960500000
2.54,1712021960515625
1.94,1712021960531250
1.3,1712021960546875
0.56,1712021960562500
-0.26,1712021960578125
-1.03,1712021960593750
-1.65,1712021960609375
-2.03,1712021960625000
-2.24,1712021960640625
-2.43,1712021960656250
-2.8,1712021960671875
-3.58,1712021960687500
-4.91,1712021960703125
-6.81,1712021960718750
-9.17,1712021960734375
-11.78,1712021960750000
-14.38,1712021960765625
-16.75,1712021960781250
-18.82,1712021960796875
-20.74,1712021960812500
-22.78,1712021960828125
-25.28,1712021960843750
-28.41,1712021960859375
-32.11,1712021960875000
-35.95,1712021960890625
-39.25,1712021960906250
-41.21,1712021960921875
-41.06,1712021960937500
-38.28,1712021960953125
-32.72,1712021960968750
-24.72,1712021960984375
-15.05,1712021961000000
-4.8,1712021961015625
4.95,1712021961031250
13.37,1712021961046875
20.09,1712021961062500
25.18,1712021961078125
28.98,1712021961093750
31.8,1712021961109375
33.79,1712021961125000
34.91,1712021961140625
35.07,1712021961156250
34.32,1712021961171875
32.89,1712021961187500
31.15,1712021961203125
29.46,1712021961218750
27.98,1712021961234375
26.66,1712021961250000
25.33,1712021961265625
23.82,1712021961281250
22.01,1712021961296875
19.89,1712021961312500
17.52,1712021961328125
14.9,1712021961343750
12.01,1712021961359375
8.81,1712021961375000
5.24,1712021961390625
1.38,1712021961406250
-2.63,1712021961421875
-6.61,1712021961437500
-10.41,1712021961453125
-14.06,1712021961468750
-17.73,1712021961484375
-21.69,1712021961500000
-26.2,1712021961515625
-31.36,1712021961531250
-37.04,1712021961546875
-42.75,1712021961562500
-47.71,1712021961578125
-50.93,1712021961593750
-51.48,1712021961609375
-48.75,1712021961625000
-42.68,1712021961640625
-33.89,1712021961656250
-23.53,1712021961671875
-12.92,1712021961687500
-3.18,1712021961703125
5.06,1712021961718750
11.73,1712021961734375
17.09,1712021961750000
21.54,1712021961765625
25.27,1712021961781250
28.31,1712021961796875
30.55,1712021961812500
31.89,1712021961828125
32.34,1712021961843750
32.0,1712021961859375
31.03,1712021961875000
29.59,1712021961890625
27.86,1712021961906250
26.02,1712021961921875
24.24,1712021961937500
22.6,1712021961953125
21.04,1712021961968750
19.32,1712021961984375
17.19,1712021962000000
14.42,1712021962015625
10.95,1712021962031250
6.93,1712021962046875
2.59,1712021962062500
-1.83,1712021962078125
-6.17,1712021962093750
-10.38,1712021962109375
-14.57,1712021962125000
-18.93,1712021962140625
-23.7,1712021962156250
-29.09,1712021962171875
-35.1,1712021962187500
-41.4,1712021962203125
-47.23,1712021962218750
-51.55,1712021962234375
-53.29,1712021962250000
-51.69,1712021962265625
-46.65,1712021962281250
-38.71,1712021962296875
-28.97,1712021962312500
-18.67,1712021962328125
-8.88,1712021962343750
-0.21,1712021962359375
7.16,1712021962375000
13.39,1712021962390625
18.69,1712021962406250
23.15,1712021962421875
26.74,1712021962437500
29.36,1712021962453125
30.95,1712021962468750
31.62,1712021962484375
31.53,1712021962500000
30.92,1712021962515625
29.95,1712021962531250
28.76,1712021962546875
27.39,1712021962562500
25.91,1712021962578125
24.29,1712021962593750
22.47,1712021962609375
20.31,1712021962625000
17.71,1712021962640625
14.59,1712021962656250
11.03,1712021962671875
7.22,1712021962687500
3.38,1712021962703125
-0.33,1712021962718750
-3.87,1712021962734375
-7.34,1712021962750000
-10.96,1712021962765625
-15.0,1712021962781250
-19.72,1712021962796875
-25.29,1712021962812500
-31.63,1712021962828125
-38.29,1712021962843750
-44.38,1712021962859375
-48.76,1712021962875000
-50.33,1712021962890625
-48.41,1712021962906250
-42.95,1712021962921875
-34.62,1712021962937500
-24.51,1712021962953125
-13.86,1712021962968750
-3.7,1712021962984375
5.37,1712021963000000
13.1,1712021963015625
19.52,1712021963031250
24.76,1712021963046875
28.91,1712021963062500
32.0,1712021963078125
34.05,1712021963093750
35.11,1712021963109375
35.31,1712021963125000
34.85,1712021963140625
33.97,1712021963156250
32.84,1712021963171875
31.6,1712021963187500
30.28,1712021963203125
28.9,1712021963218750
27.44,1712021963234375
25.94,1712021963250000
24.34,1712021963265625
22.57,1712021963281250
20.51,1712021963296875
18.04,1712021963312500
15.1,1712021963328125
11.72,1712021963343750
7.97,1712021963359375
3.92,1712021963375000
-0.35,1712021963390625
-4.89,1712021963406250
-9.79,1712021963421875
-15.2,1712021963437500
-21.21,1712021963453125
-27.7,1712021963468750
-34.2,1712021963484375
-39.83,1712021963500000
-43.5,1712021963515625
-44.22,1712021963531250
-41.49,1712021963546875
-35.47,1712021963562500
-26.99,1712021963578125
-17.21,1712021963593750
-7.28,1712021963609375
2.0,1712021963625000
10.17,1712021963640625
17.1,1712021963656250
22.72,1712021963671875
27.02,1712021963687500
29.98,1712021963703125
31.66,1712021963718750
32.25,1712021963734375
32.06,1712021963750000
31.43,1712021963765625
30.65,1712021963781250
29.85,1712021963796875
29.05,1712021963812500
28.16,1712021963828125
27.08,1712021963843750
25.74,1712021963859375
24.15,1712021963875000
22.31,1712021963890625
20.23,1712021963906250
17.88,1712021963921875
15.19,1712021963937500
12.11,1712021963953125
8.62,1712021963968750
4.77,1712021963984375
0.69,1712021964000000
-3.53,1712021964015625
-7.81,1712021964031250
-12.19,1712021964046875
-16.8,1712021964062500
-21.86,1712021964078125
-27.54,1712021964093750
-33.72,1712021964109375
-39.85,1712021964125000
-44.91,1712021964140625
-47.66,1712021964156250
-47.05,1712021964171875
-42.65,1712021964187500
-34.86,1712021964203125
-24.81,1712021964218750
-13.94,1712021964234375
-3.55,1712021964250000
5.56,1712021964265625
13.04,1712021964281250
18.92,1712021964296875
23.31,1712021964312500
26.37,1712021964328125
28.23,1712021964343750
29.05,1712021964359375
29.1,1712021964375000
28.62,1712021964390625
27.89,1712021964406250
27.06,1712021964421875
26.18,1712021964437500
25.27,1712021964453125
24.24,1712021964468750
22.99,1712021964484375
21.41,1712021964500000
19.44,1712021964515625
17.08,1712021964531250
14.41,1712021964546875
11.57,1712021964562500
8.65,1712021964578125
5.73,1712021964593750
2.78,1712021964609375
-0.23,1712021964625000
-3.41,1712021964640625
-6.87,1712021964656250
-10.75,1712021964671875
-15.19,1712021964687500
-20.27,1712021964703125
-25.96,1712021964718750
-32.06,1712021964734375
-38.15,1712021964750000
-43.58,1712021964765625
-47.51,1712021964781250
-49.06,1712021964796875
-47.5,1712021964812500
-42.58,1712021964828125
-34.65,1712021964843750
-24.66,1712021964859375
-13.86,1712021964875000
-3.52,1712021964890625
5.56,1712021964906250
13.07,1712021964921875
19.13,1712021964937500
24.03,1712021964953125
27.92,1712021964968750
30.83,1712021964984375
32.69,1712021965000000
33.56,1712021965015625
33.69,1712021965031250
33.45,1712021965046875
33.2,1712021965062500
33.13,1712021965078125
33.23,1712021965093750
33.36,1712021965109375
33.4,1712021965125000
33.25,1712021965140625
32.93,1712021965156250
32.44,1712021965171875
31.75,1712021965187500
30.77,1712021965203125
29.39,1712021965218750
27.58,1712021965234375
25.41,1712021965250000
23.01,1712021965265625
20.54,1712021965281250
18.13,1712021965296875
15.83,1712021965312500
13.62,1712021965328125
11.44,1712021965343750
9.18,1712021965359375
6.78,1712021965375000
4.17,1712021965390625
1.31,1712021965406250
-1.82,1712021965421875
-5.15,1712021965437500
-8.56,1712021965453125
-11.89,1712021965468750
-14.97,1712021965484375
-17.74,1712021965500000
-20.24,1712021965515625
-22.67,1712021965531250
-25.23,1712021965546875
-28.09,1712021965562500
-31.26,1712021965578125
-34.6,1712021965593750
-37.99,1712021965609375
-41.34,1712021965625000
-44.77,1712021965640625
-48.49,1712021965656250
-52.67,1712021965671875
-57.25,1712021965687500
-61.77,1712021965703125
-65.38,1712021965718750
-67.03,1712021965734375
-65.78,1712021965750000
-61.15,1712021965765625
-53.34,1712021965781250
-43.14,1712021965796875
-31.7,1712021965812500
-20.2,1712021965828125
-9.49,1712021965843750
-0.03,1712021965859375
8.1,1712021965875000
14.94,1712021965890625
20.57,1712021965906250
24.95,1712021965921875
28.1,1712021965937500
30.09,1712021965953125
31.18,1712021965968750
31.7,1712021965984375
32.03,1712021966000000
32.39,1712021966015625
32.89,1712021966031250
33.46,1712021966046875
33.97,1712021966062500
34.32,1712021966078125
34.43,1712021966093750
34.3,1712021966109375
33.93,1712021966125000
33.35,1712021966140625
32.52,1712021966156250
31.42,1712021966171875
30.03,1712021966187500
28.35,1712021966203125
26.46,1712021966218750
24.43,1712021966234375
22.34,1712021966250000
20.24,1712021966265625
18.06,1712021966281250
15.73,1712021966296875
13.16,1712021966312500
10.31,1712021966328125
7.27,1712021966343750
4.2,1712021966359375
1.27,1712021966375000
-1.4,1712021966390625
-3.79,1712021966406250
-6.05,1712021966421875
-8.4,1712021966437500
-11.05,1712021966453125
-14.07,1712021966468750
-17.38,1712021966484375
-20.75,1712021966500000
-23.91,1712021966515625
-26.71,1712021966531250
-29.19,1712021966546875
-31.56,1712021966562500
-34.19,1712021966578125
-37.4,1712021966593750
-41.37,1712021966609375
-45.98,1712021966625000
-50.78,1712021966640625
-55.01,1712021966656250
-57.74,1712021966671875
-58.1,1712021966687500
-55.56,1712021966703125
-50.12,1712021966718750
-42.27,1712021966734375
-32.9,1712021966750000
-23.01,1712021966765625
-13.43,1712021966781250
-4.67,1712021966796875
3.04,1712021966812500
9.71,1712021966828125
15.38,1712021966843750
20.07,1712021966859375
23.77,1712021966875000
26.48,1712021966890625
28.25,1712021966906250
29.28,1712021966921875
29.81,1712021966937500
30.12,1712021966953125
30.44,1712021966968750
30.86,1712021966984375
31.34,1712021967000000
31.76,1712021967015625
31.98,1712021967031250
31.92,1712021967046875
31.6,1712021967062500
31.1,1712021967078125
30.48,1712021967093750
29.74,1712021967109375
28.77,1712021967125000
27.46,1712021967140625
25.7,1712021967156250
23.49,1712021967171875
20.97,1712021967187500
18.34,1712021967203125
15.81,1712021967218750
13.47,1712021967234375
11.27,1712021967250000
9.02,1712021967265625
6.53,1712021967281250
3.7,1712021967296875
0.59,1712021967312500
-2.61,1712021967328125
-5.74,1712021967343750
-8.69,1712021967359375
-11.51,1712021967375000
-14.32,1712021967390625
-17.21,1712021967406250
-20.17,1712021967421875
-23.1,1712021967437500
-25.85,1712021967453125
-28.36,1712021967468750
-30.73,1712021967484375
-33.18,1712021967500000
-36.0,1712021967515625
-39.42,1712021967531250
-43.45,1712021967546875
-47.82,1712021967562500
-51.97,1712021967578125
-55.1,1712021967593750
-56.36,1712021967609375
-55.08,1712021967625000
-50.95,1712021967640625
-44.18,1712021967656250
-35.45,1712021967671875
-25.77,1712021967687500
-16.15,1712021967703125
-7.4,1712021967718750
0.05,1712021967734375
6.16,1712021967750000
11.14,1712021967765625
15.2,1712021967781250
18.47,1712021967796875
20.99,1712021967812500
22.74,1712021967828125
23.79,1712021967843750
24.33,1712021967859375
24.67,1712021967875000
25.06,1712021967890625
25.66,1712021967906250
26.43,1712021967921875
27.21,1712021967937500
27.81,1712021967953125
28.06,1712021967968750
27.91,1712021967984375
27.4,1712021968000000
26.63,1712021968015625
25.68,1712021968031250
24.58,1712021968046875
23.33,1712021968062500
21.84,1712021968078125
20.02,1712021968093750
17.87,1712021968109375
15.43,1712021968125000
12.87,1712021968140625
10.33,1712021968156250
7.97,1712021968171875
5.78,1712021968187500
3.67,1712021968203125
1.44,1712021968218750
-1.08,1712021968234375
-3.99,1712021968250000
-7.24,1712021968265625
-10.65,1712021968281250
-13.96,1712021968296875
-16.97,1712021968312500
-19.55,1712021968328125
-21.8,1712021968343750
-23.95,1712021968359375
-26.32,1712021968375000
-29.2,1712021968390625
-32.74,1712021968406250
-36.85,1712021968421875
-41.23,1712021968437500
-45.33,1712021968453125
-48.49,1712021968468750
-49.99,1712021968484375
-49.24,1712021968500000
-45.91,1712021968515625
-40.13,1712021968531250
-32.41,1712021968546875
-23.62,1712021968562500
-14.68,1712021968578125
-6.44,1712021968593750
0.58,1712021968609375
6.17,1712021968625000
10.35,1712021968640625
13.27,1712021968656250
15.16,1712021968671875
16.24,1712021968687500
16.78,1712021968703125
17.05,1712021968718750
17.26,1712021968734375
17.49,1712021968750000
17.72,1712021968765625
17.81,1712021968781250
17.6,1712021968796875
17.05,1712021968812500
16.21,1712021968828125
15.34,1712021968843750
14.67,1712021968859375
14.26,1712021968875000
13.93,1712021968890625
13.33,1712021968906250
12.12,1712021968921875
10.08,1712021968937500
7.13,1712021968953125
3.33,1712021968968750
-1.0,1712021968984375
-5.5,1712021969000000
-9.88,1712021969015625
-14.07,1712021969031250
-18.2,1712021969046875
-22.59,1712021969062500
-27.61,1712021969078125
-33.59,1712021969093750
-40.66,1712021969109375
-48.39,1712021969125000
-56.16,1712021969140625
-63.52,1712021969156250
-70.46,1712021969171875
-77.36,1712021969187500
-84.84,1712021969203125
-93.52,1712021969218750
-103.86,1712021969234375
-116.0,1712021969250000
-128.8,1712021969265625
-140.9,1712021969281250
-151.26,1712021969296875
-159.49,1712021969312500
-165.75,1712021969328125
-170.43,1712021969343750
-174.22,1712021969359375
-178.19,1712021969375000
-183.64,1712021969390625
-189.69,1712021969406250
-194.75,1712021969421875
-197.07,1712021969437500
-195.25,1712021969453125
-188.32,1712021969468750
-175.52,1712021969484375
-156.71,1712021969500000
-132.73,1712021969515625
-105.15,1712021969531250
-72.63,1712021969546875
-33.77,1712021969562500
11.5,1712021969578125
60.87,1712021969593750
110.45,1712021969609375
156.61,1712021969625000
197.37,1712021969640625
232.94,1712021969656250
265.25,1712021969671875
300.74,1712021969687500
344.44,1712021969703125
396.92,1712021969718750
453.75,1712021969734375
508.32,1712021969750000
555.85,1712021969765625
595.33,1712021969781250
628.84,1712021969796875
634.11,1712021969812500
595.46,1712021969828125
510.43,1712021969843750
393.85,1712021969859375
268.53,1712021969875000
152.74,1712021969890625
55.73,1712021969906250
-20.47,1712021969921875
-78.18,1712021969937500
-121.79,1712021969953125
-151.95,1712021969968750
-168.73,1712021969984375
-173.11,1712021970000000
-168.0,1712021970015625
-157.55,1712021970031250
-145.67,1712021970046875
-135.37,1712021970062500
-128.74,1712021970078125
-127.09,1712021970093750
-127.63,1712021970109375
-126.9,1712021970125000
-122.53,1712021970140625
-114.18,1712021970156250
-103.13,1712021970171875
-91.11,1712021970187500
-79.61,1712021970203125
-69.98,1712021970218750
-63.4,1712021970234375
-58.74,1712021970250000
-53.93,1712021970265625
-48.44,1712021970281250
-42.7,1712021970296875
-37.8,1712021970312500
-34.61,1712021970328125
-33.49,1712021970343750
-34.29,1712021970359375
-36.69,1712021970375000
-39.27,1712021970390625
-40.71,1712021970406250
-40.41,1712021970421875
-38.48,1712021970437500
-35.62,1712021970453125
-32.62,1712021970468750
-30.03,1712021970484375
-28.12,1712021970500000
-26.98,1712021970515625
-26.14,1712021970531250
-25.09,1712021970546875
-23.61,1712021970562500
-21.74,1712021970578125
-19.78,1712021970593750
-18.08,1712021970609375
-16.88,1712021970625000
-16.25,1712021970640625
-16.13,1712021970656250
-16.35,1712021970671875
-16.75,1712021970687500
-17.24,1712021970703125
-17.96,1712021970718750
-18.95,1712021970734375
-20.22,1712021970750000
-21.77,1712021970765625
-23.59,1712021970781250
-25.63,1712021970796875
-27.84,1712021970812500
-30.17,1712021970828125
-32.64,1712021970843750
-35.24,1712021970859375
-37.92,1712021970875000
-40.64,1712021970890625
-43.32,1712021970906250
-45.83,1712021970921875
-48.13,1712021970937500
-50.26,1712021970953125
-52.51,1712021970968750
-55.33,1712021970984375
-59.26,1712021971000000
-64.69,1712021971015625
-71.61,1712021971031250
-79.45,1712021971046875
-86.93,1712021971062500
-92.26,1712021971078125
-93.53,1712021971093750
-89.25,1712021971109375
-78.87,1712021971125000
-63.01,1712021971140625
-43.24,1712021971156250
-21.66,1712021971171875
-0.34,1712021971187500
19.21,1712021971203125
36.13,1712021971218750
50.15,1712021971234375
61.38,1712021971250000
70.06,1712021971265625
76.44,1712021971281250
80.83,1712021971296875
83.58,1712021971312500
85.11,1712021971328125
85.82,1712021971343750
86.04,1712021971359375
85.98,1712021971375000
85.71,1712021971390625
85.11,1712021971406250
84.04,1712021971421875
82.36,1712021971437500
80.07,1712021971453125
77.31,1712021971468750
74.31,1712021971484375
71.3,1712021971500000
68.36,1712021971515625
65.32,1712021971531250
61.86,1712021971546875
57.61,1712021971562500
52.34,1712021971578125
46.07,1712021971593750
39.12,1712021971609375
31.99,1712021971625000
25.17,1712021971640625
18.99,1712021971656250
13.5,1712021971671875
8.45,1712021971687500
3.46,1712021971703125
-1.91,1712021971718750
-7.91,1712021971734375
-14.56,1712021971750000
-21.64,1712021971765625
-28.8,1712021971781250
-35.66,1712021971796875
-41.99,1712021971812500
-47.77,1712021971828125
-53.26,1712021971843750
-58.95,1712021971859375
-65.45,1712021971875000
-73.3,1712021971890625
-82.67,1712021971906250
-93.06,1712021971921875
-103.12,1712021971937500
-110.79,1712021971953125
-113.83,1712021971968750
-110.54,1712021971984375
-100.49,1712021972000000
-84.79,1712021972015625
-65.85,1712021972031250
-46.62,1712021972046875
-29.62,1712021972062500
-16.25,1712021972078125
-6.54,1712021972093750
0.5,1712021972109375
6.13,1712021972125000
11.3,1712021972140625
16.21,1712021972156250
20.45,1712021972171875
23.28,1712021972187500
24.1,1712021972203125
22.66,1712021972218750
19.14,1712021972234375
14.06,1712021972250000
8.11,1712021972265625
2.09,1712021972281250
-3.2,1712021972296875
-7.06,1712021972312500
-9.0,1712021972328125
-8.9,1712021972343750
-6.96,1712021972359375
-3.71,1712021972375000
0.21,1712021972390625
4.17,1712021972406250
7.63,1712021972421875
10.24,1712021972437500
11.84,1712021972453125
12.58,1712021972468750
12.91,1712021972484375
13.42,1712021972500000
14.6,1712021972515625
16.49,1712021972531250
18.52,1712021972546875
19.77,1712021972562500
19.36,1712021972578125
16.88,1712021972593750
12.61,1712021972609375
7.35,1712021972625000
2.13,1712021972640625
-2.11,1712021972656250
-4.67,1712021972671875
-4.98,1712021972687500
-2.64,1712021972703125
2.59,1712021972718750
10.58,1712021972734375
20.65,1712021972750000
31.61,1712021972765625
42.09,1712021972781250
50.97,1712021972796875
57.73,1712021972812500
62.51,1712021972828125
65.88,1712021972843750
68.49,1712021972859375
70.77,1712021972875000
72.85,1712021972890625
74.67,1712021972906250
76.11,1712021972921875
77.12,1712021972937500
77.68,1712021972953125
77.8,1712021972968750
77.42,1712021972984375
76.51,1712021973000000
75.02,1712021973015625
72.94,1712021973031250
70.25,1712021973046875
66.83,1712021973062500
62.44,1712021973078125
56.77,1712021973093750
49.6,1712021973109375
40.95,1712021973125000
31.2,1712021973140625
20.95,1712021973156250
10.87,1712021973171875
1.48,1712021973187500
-6.89,1712021973203125
-14.33,1712021973218750
-21.16,1712021973234375
-27.82,1712021973250000
-34.7,1712021973265625
-41.98,1712021973281250
-49.54,1712021973296875
-56.91,1712021973312500
-63.27,1712021973328125
-67.47,1712021973343750
-68.41,1712021973359375
-65.4,1712021973375000
-58.46,1712021973390625
-48.39,1712021973406250
-36.65,1712021973421875
-24.89,1712021973437500
-14.48,1712021973453125
-6.1,1712021973468750
0.58,1712021973484375
6.26,1712021973500000
11.54,1712021973515625
16.61,1712021973531250
21.3,1712021973546875
25.31,1712021973562500
28.42,1712021973578125
30.54,1712021973593750
31.79,1712021973609375
32.82,1712021973625000
33.94,1712021973640625
35.08,1712021973656250
36.11,1712021973671875
37.17,1712021973687500
38.77,1712021973703125
41.44,1712021973718750
45.27,1712021973734375
49.82,1712021973750000
54.99,1712021973765625
60.14,1712021973781250
64.32,1712021973796875
66.78,1712021973812500
67.38,1712021973828125
66.64,1712021973843750
65.26,1712021973859375
63.56,1712021973875000
61.61,1712021973890625
60.21,1712021973906250
59.4,1712021973921875
58.42,1712021973937500
56.01,1712021973953125
51.09,1712021973968750
43.3,1712021973984375
32.96,1712021974000000
20.91,1712021974015625
2.53,1712021974031250
-21.69,1712021974046875
-47.12,1712021974062500
-67.69,1712021974078125
-79.95,1712021974093750
-84.37,1712021974109375
-83.57,1712021974125000
-79.38,1712021974140625
-74.15,1712021974156250
-69.04,1712021974171875
-63.49,1712021974187500
-57.28,1712021974203125
-50.88,1712021974218750
-45.11,1712021974234375
-41.55,1712021974250000
-40.47,1712021974265625
-41.42,1712021974281250
-43.61,1712021974296875
-46.02,1712021974312500
-46.83,1712021974328125
-45.22,1712021974343750
-41.36,1712021974359375
-36.34,1712021974375000
-31.71,1712021974390625
-28.71,1712021974406250
-28.28,1712021974421875
-30.95,1712021974437500
-36.61,1712021974453125
-44.12,1712021974468750
-52.66,1712021974484375
-61.3,1712021974500000
-68.53,1712021974515625
-72.83,1712021974531250
-73.32,1712021974546875
-70.31,1712021974562500
-64.81,1712021974578125
-58.9,1712021974593750
-52.64,1712021974609375
-46.11,1712021974625000
-39.67,1712021974640625
-33.91,1712021974656250
-29.41,1712021974671875
-26.26,1712021974687500
-24.27,1712021974703125
-22.88,1712021974718750
-21.32,1712021974734375
-18.73,1712021974750000
-14.92,1712021974765625
-10.22,1712021974781250
-5.39,1712021974796875
-1.46,1712021974812500
0.56,1712021974828125
-0.16,1712021974843750
-4.0,1712021974859375
-10.74,1712021974875000
-19.43,1712021974890625
-28.63,1712021974906250
-36.47,1712021974921875
-41.09,1712021974937500
-41.22,1712021974953125
-36.46,1712021974968750
-27.38,1712021974984375
-15.2,1712021975000000
-1.37,1712021975015625
12.8,1712021975031250
26.24,1712021975046875
38.21,1712021975062500
48.21,1712021975078125
55.96,1712021975093750
61.31,1712021975109375
64.31,1712021975125000
65.29,1712021975140625
64.77,1712021975156250
63.39,1712021975171875
61.73,1712021975187500
60.22,1712021975203125
59.11,1712021975218750
58.46,1712021975234375
58.11,1712021975250000
57.82,1712021975265625
57.33,1712021975281250
56.46,1712021975296875
55.18,1712021975312500
53.5,1712021975328125
51.48,1712021975343750
49.05,1712021975359375
46.06,1712021975375000
42.35,1712021975390625
37.84,1712021975406250
32.68,1712021975421875
27.24,1712021975437500
21.95,1712021975453125
17.17,1712021975468750
12.94,1712021975484375
9.05,1712021975500000
5.12,1712021975515625
0.78,1712021975531250
-4.11,1712021975546875
-9.46,1712021975562500
-15.0,1712021975578125
-20.45,1712021975593750
-25.59,1712021975609375
-30.4,1712021975625000
-34.98,1712021975640625
-39.61,1712021975656250
-44.59,1712021975671875
-50.26,1712021975687500
-56.8,1712021975703125
-64.15,1712021975718750
-71.82,1712021975734375
-78.81,1712021975750000
-83.8,1712021975765625
-85.49,1712021975781250
-82.98,1712021975796875
-76.16,1712021975812500
-65.73,1712021975828125
-52.98,1712021975843750
-39.36,1712021975859375
-26.16,1712021975875000
-14.24,1712021975890625
-4.09,1712021975906250
4.09,1712021975921875
10.23,1712021975937500
14.37,1712021975953125
16.67,1712021975968750
17.49,1712021975984375
17.43,1712021976000000
17.24,1712021976015625
17.68,1712021976031250
19.31,1712021976046875
22.32,1712021976062500
26.42,1712021976078125
30.91,1712021976093750
34.93,1712021976109375
37.79,1712021976125000
39.25,1712021976140625
39.56,1712021976156250
39.31,1712021976171875
39.07,1712021976187500
39.11,1712021976203125
39.17,1712021976218750
38.7,1712021976234375
37.08,1712021976250000
33.96,1712021976265625
29.45,1712021976281250
24.03,1712021976296875
18.42,1712021976312500
13.2,1712021976328125
8.74,1712021976343750
5.07,1712021976359375
2.04,1712021976375000
-0.55,1712021976390625
-2.82,1712021976406250
-4.82,1712021976421875
-6.56,1712021976437500
-8.02,1712021976453125
-9.25,1712021976468750
-10.31,1712021976484375
-11.29,1712021976500000
-12.31,1712021976515625
-13.49,1712021976531250
-15.0,1712021976546875
-17.1,1712021976562500
-20.08,1712021976578125
-24.16,1712021976593750
-29.33,1712021976609375
-35.17,1712021976625000
-40.64,1712021976640625
-44.24,1712021976656250
-44.27,1712021976671875
-39.41,1712021976687500
-29.32,1712021976703125
-14.87,1712021976718750
2.1,1712021976734375
19.33,1712021976750000
34.88,1712021976765625
47.65,1712021976781250
57.42,1712021976796875
64.53,1712021976812500
69.42,1712021976828125
72.15,1712021976843750
72.61,1712021976859375
70.73,1712021976875000
66.76,1712021976890625
61.23,1712021976906250
54.78,1712021976921875
47.83,1712021976937500
40.61,1712021976953125
33.14,1712021976968750
25.21,1712021976984375
16.82,1712021977000000
8.27,1712021977015625
0.02,1712021977031250
-7.58,1712021977046875
-14.47,1712021977062500
-20.85,1712021977078125
-26.98,1712021977093750
-33.11,1712021977109375
-39.85,1712021977125000
-47.56,1712021977140625
-56.26,1712021977156250
-65.56,1712021977171875
-74.75,1712021977187500
-83.04,1712021977203125
-89.7,1712021977218750
-94.13,1712021977234375
-96.07,1712021977250000
-96.16,1712021977265625
-95.06,1712021977281250
-93.18,1712021977296875
-90.53,1712021977312500
-87.0,1712021977328125
-82.61,1712021977343750
-77.69,1712021977359375
-72.6,1712021977375000
-64.52,1712021977390625
-52.25,1712021977406250
-36.44,1712021977421875
-19.51,1712021977437500
-4.29,1712021977453125
7.34,1712021977468750
14.85,1712021977484375
18.84,1712021977500000
20.91,1712021977515625
23.26,1712021977531250
27.04,1712021977546875
32.78,1712021977562500
40.3,1712021977578125
48.97,1712021977593750
58.01,1712021977609375
66.78,1712021977625000
73.98,1712021977640625
78.92,1712021977656250
81.5,1712021977671875
81.45,1712021977687500
78.87,1712021977703125
74.27,1712021977718750
68.55,1712021977734375
62.76,1712021977750000
57.69,1712021977765625
53.67,1712021977781250
50.68,1712021977796875
48.31,1712021977812500
45.4,1712021977828125
41.07,1712021977843750
35.04,1712021977859375
27.76,1712021977875000
20.27,1712021977890625
13.37,1712021977906250
7.46,1712021977921875
2.63,1712021977937500
-1.36,1712021977953125
-5.37,1712021977968750
-10.04,1712021977984375
-15.59,1712021978000000
-21.75,1712021978015625
-27.81,1712021978031250
-33.54,1712021978046875
-39.04,1712021978062500
-44.46,1712021978078125
-49.84,1712021978093750
-55.34,1712021978109375
-60.73,1712021978125000
-65.34,1712021978140625
-68.49,1712021978156250
-69.48,1712021978171875
-68.58,1712021978187500
-66.58,1712021978203125
-64.31,1712021978218750
-59.69,1712021978234375
-51.57,1712021978250000
-40.39,1712021978265625
-28.14,1712021978281250
-18.73,1712021978296875
-11.48,1712021978312500
-4.49,1712021978328125
4.05,1712021978343750
15.6,1712021978359375
30.02,1712021978375000
45.52,1712021978390625
59.64,1712021978406250
70.27,1712021978421875
74.91,1712021978437500
72.68,1712021978453125
64.52,1712021978468750
53.08,1712021978484375
41.17,1712021978500000
30.5,1712021978515625
21.54,1712021978531250
13.37,1712021978546875
5.65,1712021978562500
-1.4,1712021978578125
-6.9,1712021978593750
-10.63,1712021978609375
-12.39,1712021978625000
-12.73,1712021978640625
-12.46,1712021978656250
-12.4,1712021978671875
-13.01,1712021978687500
-14.17,1712021978703125
-15.53,1712021978718750
-16.43,1712021978734375
-16.59,1712021978750000
-16.03,1712021978765625
-15.1,1712021978781250
-14.16,1712021978796875
-13.49,1712021978812500
-13.18,1712021978828125
-13.07,1712021978843750
-12.94,1712021978859375
-12.43,1712021978875000
-11.27,1712021978890625
-9.4,1712021978906250
-7.02,1712021978921875
-4.6,1712021978937500
-2.72,1712021978953125
-1.96,1712021978968750
-2.68,1712021978984375
-5.05,1712021979000000
-9.0,1712021979015625
-14.42,1712021979031250
-21.12,1712021979046875
-28.71,1712021979062500
-36.34,1712021979078125
-42.61,1712021979093750
-45.85,1712021979109375
-44.6,1712021979125000
-38.24,1712021979140625
-27.26,1712021979156250
-13.18,1712021979171875
1.99,1712021979187500
16.32,1712021979203125
28.61,1712021979218750
38.44,1712021979234375
46.08,1712021979250000
52.03,1712021979265625
56.71,1712021979281250
60.27,1712021979296875
62.71,1712021979312500
64.0,1712021979328125
64.24,1712021979343750
63.69,1712021979359375
62.66,1712021979375000
61.38,1712021979390625
59.83,1712021979406250
57.83,1712021979421875
55.1,1712021979437500
51.43,1712021979453125
46.75,1712021979468750
41.12,1712021979484375
34.68,1712021979500000
27.57,1712021979515625
19.91,1712021979531250
11.89,1712021979546875
3.73,1712021979562500
-4.23,1712021979578125
-11.67,1712021979593750
-18.35,1712021979609375
-24.13,1712021979625000
-28.96,1712021979640625
-32.85,1712021979656250
-35.91,1712021979671875
-38.27,1712021979687500
-40.14,1712021979703125
-41.72,1712021979718750
-43.11,1712021979734375
-44.2,1712021979750000
-44.73,1712021979765625
-44.43,1712021979781250
-43.21,1712021979796875
-41.3,1712021979812500
-39.2,1712021979828125
-37.57,1712021979843750
-37.04,1712021979859375
-38.11,1712021979875000
-41.02,1712021979890625
-45.8,1712021979906250
-52.11,1712021979921875
-59.17,1712021979937500
-65.71,1712021979953125
-70.09,1712021979968750
-70.73,1712021979984375
-66.5,1712021980000000
-57.17,1712021980015625
-43.5,1712021980031250
-27.0,1712021980046875
-9.52,1712021980062500
7.32,1712021980078125
22.35,1712021980093750
35.04,1712021980109375
45.23,1712021980125000
53.01,1712021980140625
58.47,1712021980156250
61.71,1712021980171875
62.89,1712021980187500
62.34,1712021980203125
60.58,1712021980218750
58.22,1712021980234375
55.78,1712021980250000
53.51,1712021980265625
51.25,1712021980281250
48.56,1712021980296875
44.93,1712021980312500
40.08,1712021980328125
34.11,1712021980343750
27.55,1712021980359375
21.12,1712021980375000
15.44,1712021980390625
10.79,1712021980406250
7.08,1712021980421875
3.86,1712021980437500
0.65,1712021980453125
-2.91,1712021980468750
-6.85,1712021980484375
-10.95,1712021980500000
-14.85,1712021980515625
-18.27,1712021980531250
-21.12,1712021980546875
-23.54,1712021980562500
-25.81,1712021980578125
-28.21,1712021980593750
-30.86,1712021980609375
-33.73,1712021980625000
-36.63,1712021980640625
-39.32,1712021980656250
-41.63,1712021980671875
-43.49,1712021980687500
-44.97,1712021980703125
-46.26,1712021980718750
-47.59,1712021980734375
-49.24,1712021980750000
-51.48,1712021980765625
-54.55,1712021980781250
-58.59,1712021980796875
-63.36,1712021980812500
-68.13,1712021980828125
-71.62,1712021980843750
-72.28,1712021980859375
-68.72,1712021980875000
-60.27,1712021980890625
-47.33,1712021980906250
-31.27,1712021980921875
-14.05,1712021980937500
2.4,1712021980953125
16.69,1712021980968750
28.14,1712021980984375
36.62,1712021981000000
42.3,1712021981015625
45.42,1712021981031250
46.27,1712021981046875
45.25,1712021981062500
42.87,1712021981078125
39.78,1712021981093750
36.78,1712021981109375
34.51,1712021981125000
33.33,1712021981140625
33.2,1712021981156250
33.81,1712021981171875
34.8,1712021981187500
35.92,1712021981203125
37.12,1712021981218750
38.56,1712021981234375
40.68,1712021981250000
43.68,1712021981265625
47.24,1712021981281250
50.54,1712021981296875
52.59,1712021981312500
52.7,1712021981328125
50.82,1712021981343750
47.48,1712021981359375
43.57,1712021981375000
40.33,1712021981390625
38.48,1712021981406250
37.92,1712021981421875
37.81,1712021981437500
37.12,1712021981453125
35.19,1712021981468750
31.94,1712021981484375
27.76,1712021981500000
23.26,1712021981515625
19.42,1712021981531250
16.9,1712021981546875
15.74,1712021981562500
15.5,1712021981578125
15.68,1712021981593750
16.05,1712021981609375
16.61,1712021981625000
17.4,1712021981640625
15.37,1712021981656250
8.87,1712021981671875
-1.33,1712021981687500
-12.01,1712021981703125
-19.78,1712021981718750
-22.99,1712021981734375
-22.04,1712021981750000
-18.65,1712021981765625
-14.95,1712021981781250
-12.62,1712021981796875
-11.85,1712021981812500
-12.02,1712021981828125
-12.48,1712021981843750
-13.11,1712021981859375
-14.39,1712021981875000
-16.88,1712021981890625
-20.83,1712021981906250
-25.85,1712021981921875
-31.01,1712021981937500
-34.81,1712021981953125
-36.12,1712021981968750
-34.63,1712021981984375
-30.88,1712021982000000
-25.81,1712021982015625
-20.38,1712021982031250
-15.34,1712021982046875
-11.2,1712021982062500
-8.2,1712021982078125
-6.09,1712021982093750
-4.43,1712021982109375
-2.86,1712021982125000
-1.27,1712021982140625
0.2,1712021982156250
1.34,1712021982171875
1.99,1712021982187500
2.13,1712021982203125
1.91,1712021982218750
1.66,1712021982234375
1.69,1712021982250000
1.82,1712021982265625
1.72,1712021982281250
1.04,1712021982296875
-0.4,1712021982312500
-2.48,1712021982328125
-4.89,1712021982343750
-7.27,1712021982359375
-9.34,1712021982375000
-11.05,1712021982390625
-12.46,1712021982406250
-13.49,1712021982421875
-13.83,1712021982437500
-12.86,1712021982453125
-10.0,1712021982468750
-5.03,1712021982484375
1.55,1712021982500000
8.6,1712021982515625
14.68,1712021982531250
18.65,1712021982546875
20.07,1712021982562500
19.29,1712021982578125
17.18,1712021982593750
14.63,1712021982609375
12.24,1712021982625000
10.15,1712021982640625
8.26,1712021982656250
6.45,1712021982671875
4.82,1712021982687500
3.63,1712021982703125
3.25,1712021982718750
3.87,1712021982734375
5.41,1712021982750000
7.5,1712021982765625
9.66,1712021982781250
11.4,1712021982796875
12.4,1712021982812500
12.62,1712021982828125
12.02,1712021982843750
10.78,1712021982859375
9.08,1712021982875000
7.03,1712021982890625
4.55,1712021982906250
1.53,1712021982921875
-2.17,1712021982937500
-6.57,1712021982953125
-11.53,1712021982968750
-16.74,1712021982984375
-21.76,1712021983000000
-26.16,1712021983015625
-29.6,1712021983031250
-31.88,1712021983046875
-33.02,1712021983062500
-33.27,1712021983078125
-33.12,1712021983093750
-33.32,1712021983109375
-34.71,1712021983125000
-37.88,1712021983140625
-42.87,1712021983156250
-48.83,1712021983171875
-54.08,1712021983187500
-56.48,1712021983203125
-54.15,1712021983218750
-46.16,1712021983234375
-32.93,1712021983250000
-16.18,1712021983265625
1.68,1712021983281250
18.29,1712021983296875
32.01,1712021983312500
42.2,1712021983328125
49.1,1712021983343750
53.36,1712021983359375
55.67,1712021983375000
56.41,1712021983390625
55.68,1712021983406250
53.56,1712021983421875
50.24,1712021983437500
46.24,1712021983453125
42.23,1712021983468750
38.8,1712021983484375
36.16,1712021983500000
34.06,1712021983515625
31.92,1712021983531250
29.15,1712021983546875
25.51,1712021983562500
21.27,1712021983578125
17.08,1712021983593750
13.64,1712021983609375
11.34,1712021983625000
10.02,1712021983640625
8.96,1712021983656250
7.22,1712021983671875
3.93,1712021983687500
-1.3,1712021983703125
-8.23,1712021983718750
-16.04,1712021983734375
-23.64,1712021983750000
-30.08,1712021983765625
-34.91,1712021983781250
-38.36,1712021983796875
-41.15,1712021983812500
-44.23,1712021983828125
-48.35,1712021983843750
-53.89,1712021983859375
-60.7,1712021983875000
-68.18,1712021983890625
-75.3,1712021983906250
-80.71,1712021983921875
-82.95,1712021983937500
-80.75,1712021983953125
-73.51,1712021983968750
-61.58,1712021983984375
-46.29,1712021984000000
-29.59,1712021984015625
-13.38,1712021984031250
1.11,1712021984046875
13.57,1712021984062500
24.42,1712021984078125
34.28,1712021984093750
43.49,1712021984109375
51.82,1712021984125000
58.65,1712021984140625
63.33,1712021984156250
65.52,1712021984171875
65.41,1712021984187500
63.55,1712021984203125
60.64,1712021984218750
57.17,1712021984234375
53.32,1712021984250000
48.97,1712021984265625
43.93,1712021984281250
38.16,1712021984296875
31.9,1712021984312500
25.64,1712021984328125
19.9,1712021984343750
15.01,1712021984359375
10.96,1712021984375000
7.48,1712021984390625
4.19,1712021984406250
0.93,1712021984421875
-2.18,1712021984437500
-4.78,1712021984453125
-6.57,1712021984468750
-7.55,1712021984484375
-8.22,1712021984500000
-9.49,1712021984515625
-12.33,1712021984531250
-17.52,1712021984546875
-25.29,1712021984562500
-35.32,1712021984578125
-46.74,1712021984593750
-58.3,1712021984609375
-68.45,1712021984625000
-75.55,1712021984640625
-78.02,1712021984656250
-74.72,1712021984671875
-65.31,1712021984687500
-50.52,1712021984703125
-32.06,1712021984718750
-12.22,1712021984734375
6.79,1712021984750000
23.4,1712021984765625
36.84,1712021984781250
46.97,1712021984796875
53.93,1712021984812500
57.76,1712021984828125
58.49,1712021984843750
56.24,1712021984859375
51.57,1712021984875000
45.49,1712021984890625
39.2,1712021984906250
33.7,1712021984921875
29.48,1712021984937500
26.42,1712021984953125
24.03,1712021984968750
21.8,1712021984984375
19.49,1712021985000000
17.14,1712021985015625
14.86,1712021985031250
12.6,1712021985046875
9.97,1712021985062500
6.34,1712021985078125
1.14,1712021985093750
-5.81,1712021985109375
-14.06,1712021985125000
-22.67,1712021985140625
-30.51,1712021985156250
-36.69,1712021985171875
-40.93,1712021985187500
-43.64,1712021985203125
-45.7,1712021985218750
-48.18,1712021985234375
-51.85,1712021985250000
-56.89,1712021985265625
-62.76,1712021985281250
-68.2,1712021985296875
-71.47,1712021985312500
-70.89,1712021985328125
-65.31,1712021985343750
-54.6,1712021985359375
-39.75,1712021985375000
-22.61,1712021985390625
-5.29,1712021985406250
10.45,1712021985421875
23.65,1712021985437500
34.19,1712021985453125
42.47,1712021985468750
48.98,1712021985484375
53.96,1712021985500000
57.31,1712021985515625
58.83,1712021985531250
58.51,1712021985546875
56.67,1712021985562500
53.99,1712021985578125
51.23,1712021985593750
48.91,1712021985609375
47.15,1712021985625000
45.67,1712021985640625
44.02,1712021985656250
41.89,1712021985671875
39.2,1712021985687500
36.13,1712021985703125
32.94,1712021985718750
29.67,1712021985734375
26.17,1712021985750000
22.13,1712021985765625
17.28,1712021985781250
11.61,1712021985796875
5.45,1712021985812500
-0.71,1712021985828125
-6.31,1712021985843750
-10.97,1712021985859375
-14.52,1712021985875000
-17.04,1712021985890625
-18.75,1712021985906250
-19.96,1712021985921875
-21.0,1712021985937500
-22.27,1712021985953125
-24.09,1712021985968750
-26.64,1712021985984375
-29.69,1712021986000000
-32.53,1712021986015625
-34.05,1712021986031250
-33.14,1712021986046875
-29.1,1712021986062500
-22.0,1712021986078125
-12.8,1712021986093750
-2.93,1712021986109375
6.24,1712021986125000
13.92,1712021986140625
20.16,1712021986156250
25.59,1712021986171875
30.97,1712021986187500
36.62,1712021986203125
42.22,1712021986218750
46.96,1712021986234375
50.01,1712021986250000
50.93,1712021986265625
49.88,1712021986281250
47.44,1712021986296875
44.31,1712021986312500
40.9,1712021986328125
37.27,1712021986343750
33.27,1712021986359375
28.78,1712021986375000
23.92,1712021986390625
19.05,1712021986406250
14.65,1712021986421875
11.07,1712021986437500
8.41,1712021986453125
6.49,1712021986468750
4.93,1712021986484375
3.19,1712021986500000
0.67,1712021986515625
-3.18,1712021986531250
-8.71,1712021986546875
-15.9,1712021986562500
-24.3,1712021986578125
-33.06,1712021986593750
-41.2,1712021986609375
-47.93,1712021986625000
-52.86,1712021986640625
-56.14,1712021986656250
-58.33,1712021986671875
-60.17,1712021986687500
-62.36,1712021986703125
-65.35,1712021986718750
-69.21,1712021986734375
-73.53,1712021986750000
-77.37,1712021986765625
-79.31,1712021986781250
-77.78,1712021986796875
-71.54,1712021986812500
-60.17,1712021986828125
-44.39,1712021986843750
-25.96,1712021986859375
-7.22,1712021986875000
9.66,1712021986890625
23.26,1712021986906250
33.14,1712021986921875
39.7,1712021986937500
43.76,1712021986953125
46.12,1712021986968750
47.36,1712021986984375
47.81,1712021987000000
47.73,1712021987015625
47.34,1712021987031250
46.89,1712021987046875
46.49,1712021987062500
46.08,1712021987078125
45.4,1712021987093750
44.16,1712021987109375
42.24,1712021987125000
39.77,1712021987140625
37.13,1712021987156250
34.69,1712021987171875
32.67,1712021987187500
30.94,1712021987203125
29.17,1712021987218750
26.94,1712021987234375
24.05,1712021987250000
20.61,1712021987265625
16.96,1712021987281250
13.44,1712021987296875
10.2,1712021987312500
7.06,1712021987328125
3.66,1712021987343750
-0.25,1712021987359375
-4.68,1712021987375000
-9.34,1712021987390625
-13.8,1712021987406250
-17.74,1712021987421875
-21.19,1712021987437500
-24.52,1712021987453125
-28.36,1712021987468750
-33.38,1712021987484375
-40.1,1712021987500000
-48.62,1712021987515625
-58.55,1712021987531250
-68.86,1712021987546875
-77.99,1712021987562500
-84.07,1712021987578125
-85.39,1712021987593750
-80.89,1712021987609375
-70.65,1712021987625000
-55.87,1712021987640625
-38.64,1712021987656250
-21.26,1712021987671875
-5.69,1712021987687500
6.87,1712021987703125
16.04,1712021987718750
22.0,1712021987734375
25.16,1712021987750000
25.96,1712021987765625
24.88,1712021987781250
22.49,1712021987796875
19.64,1712021987812500
17.27,1712021987828125
16.24,1712021987843750
16.98,1712021987859375
19.3,1712021987875000
22.44,1712021987890625
25.33,1712021987906250
27.06,1712021987921875
27.14,1712021987937500
25.64,1712021987953125
23.05,1712021987968750
19.95,1712021987984375
16.72,1712021988000000
13.38,1712021988015625
9.69,1712021988031250
5.28,1712021988046875
-0.04,1712021988062500
-6.21,1712021988078125
-12.88,1712021988093750
-19.54,1712021988109375
-25.64,1712021988125000
-30.8,1712021988140625
-34.79,1712021988156250
-37.65,1712021988171875
-39.57,1712021988187500
-40.96,1712021988203125
-42.33,1712021988218750
-44.24,1712021988234375
-47.08,1712021988250000
-50.86,1712021988265625
-54.93,1712021988281250
-57.96,1712021988296875
-58.19,1712021988312500
-54.0,1712021988328125
-44.54,1712021988343750
-30.12,1712021988359375
-12.2,1712021988375000
7.13,1712021988390625
25.79,1712021988406250
42.31,1712021988421875
55.96,1712021988437500
66.54,1712021988453125
74.07,1712021988468750
78.51,1712021988484375
79.79,1712021988500000
78.06,1712021988515625
73.81,1712021988531250
67.91,1712021988546875
61.38,1712021988562500
55.02,1712021988578125
49.12,1712021988593750
43.44,1712021988609375
37.24,1712021988625000
29.64,1712021988640625
19.98,1712021988656250
8.13,1712021988671875
-5.37,1712021988687500
-19.46,1712021988703125
-32.87,1712021988718750
-44.63,1712021988734375
-54.3,1712021988750000
-62.08,1712021988765625
-68.54,1712021988781250
-74.24,1712021988796875
-79.35,1712021988812500
-83.59,1712021988828125
-86.42,1712021988843750
-87.36,1712021988859375
-86.3,1712021988875000
-83.58,1712021988890625
-79.88,1712021988906250
-75.99,1712021988921875
-72.63,1712021988937500
-70.35,1712021988953125
-69.53,1712021988968750
-70.31,1712021988984375
-72.43,1712021989000000
-75.04,1712021989015625
-76.62,1712021989031250
-75.31,1712021989046875
-69.34,1712021989062500
-57.75,1712021989078125
-40.83,1712021989093750
-20.08,1712021989109375
2.23,1712021989125000
23.84,1712021989140625
43.12,1712021989156250
59.4,1712021989171875
72.76,1712021989187500
83.68,1712021989203125
92.48,1712021989218750
99.09,1712021989234375
103.1,1712021989250000
103.96,1712021989265625
101.31,1712021989281250
95.18,1712021989296875
86.17,1712021989312500
75.23,1712021989328125
63.55,1712021989343750
52.2,1712021989359375
41.98,1712021989375000
33.37,1712021989390625
26.53,1712021989406250
21.45,1712021989421875
18.02,1712021989437500
16.02,1712021989453125
15.07,1712021989468750
14.63,1712021989484375
13.97,1712021989500000
12.41,1712021989515625
9.52,1712021989531250
5.25,1712021989546875
-0.04,1712021989562500
-5.73,1712021989578125
-11.22,1712021989593750
-16.17,1712021989609375
-20.58,1712021989625000
-24.75,1712021989640625
-29.14,1712021989656250
-34.15,1712021989671875
-40.12,1712021989687500
-47.23,1712021989703125
-55.46,1712021989718750
-64.46,1712021989734375
-73.34,1712021989750000
-80.62,1712021989765625
-84.48,1712021989781250
-83.2,1712021989796875
-75.82,1712021989812500
-62.62,1712021989828125
-45.13,1712021989843750
-25.75,1712021989859375
-6.93,1712021989875000
9.43,1712021989890625
22.36,1712021989906250
31.72,1712021989921875
37.89,1712021989937500
41.4,1712021989953125
42.76,1712021989968750
42.5,1712021989984375
41.23,1712021990000000
39.72,1712021990015625
38.71,1712021990031250
38.69,1712021990046875
39.75,1712021990062500
41.49,1712021990078125
43.24,1712021990093750
44.27,1712021990109375
44.11,1712021990125000
42.65,1712021990140625
40.16,1712021990156250
37.12,1712021990171875
33.99,1712021990187500
31.05,1712021990203125
28.29,1712021990218750
25.42,1712021990234375
22.04,1712021990250000
17.84,1712021990265625
12.8,1712021990281250
7.24,1712021990296875
1.69,1712021990312500
-3.3,1712021990328125
-7.45,1712021990343750
-10.87,1712021990359375
-13.99,1712021990375000
-17.48,1712021990390625
-22.0,1712021990406250
-28.09,1712021990421875
-35.94,1712021990437500
-45.28,1712021990453125
-55.22,1712021990468750
-64.23,1712021990484375
-70.42,1712021990500000
-71.96,1712021990515625
-67.63,1712021990531250
-57.26,1712021990546875
-41.9,1712021990562500
-23.44,1712021990578125
-4.12,1712021990593750
14.09,1712021990609375
29.84,1712021990625000
42.47,1712021990640625
51.77,1712021990656250
57.73,1712021990671875
60.41,1712021990687500
60.04,1712021990703125
57.16,1712021990718750
52.76,1712021990734375
48.1,1712021990750000
44.39,1712021990765625
42.34,1712021990781250
41.9,1712021990796875
42.31,1712021990812500
42.43,1712021990828125
41.24,1712021990843750
38.2,1712021990859375
33.29,1712021990875000
26.9,1712021990890625
19.59,1712021990906250
11.82,1712021990921875
3.98,1712021990937500
-3.64,1712021990953125
-10.75,1712021990968750
-17.09,1712021990984375
-22.43,1712021991000000
-26.67,1712021991015625
-29.92,1712021991031250
-32.46,1712021991046875
-34.66,1712021991062500
-36.93,1712021991078125
-39.67,1712021991093750
-43.17,1712021991109375
-47.57,1712021991125000
-52.68,1712021991140625
-57.85,1712021991156250
-61.92,1712021991171875
-63.38,1712021991187500
-60.79,1712021991203125
-53.24,1712021991218750
-40.75,1712021991234375
-24.37,1712021991250000
-5.87,1712021991265625
12.83,1712021991281250
30.15,1712021991296875
45.1,1712021991312500
57.2,1712021991328125
66.23,1712021991343750
71.99,1712021991359375
74.33,1712021991375000
73.4,1712021991390625
69.86,1712021991406250
64.91,1712021991421875
59.99,1712021991437500
56.28,1712021991453125
54.31,1712021991468750
53.82,1712021991484375
53.99,1712021991500000
53.86,1712021991515625
52.77,1712021991531250
50.54,1712021991546875
47.39,1712021991562500
43.78,1712021991578125
40.1,1712021991593750
36.53,1712021991609375
32.95,1712021991625000
29.05,1712021991640625
24.41,1712021991656250
18.67,1712021991671875
11.77,1712021991687500
3.99,1712021991703125
-3.99,1712021991718750
-11.35,1712021991734375
-17.33,1712021991750000
-21.57,1712021991765625
-24.2,1712021991781250
-25.81,1712021991796875
-27.29,1712021991812500
-29.57,1712021991828125
-33.36,1712021991843750
-38.91,1712021991859375
-45.72,1712021991875000
-52.6,1712021991890625
-57.85,1712021991906250
-59.79,1712021991921875
-57.38,1712021991937500
-50.54,1712021991953125
-40.23,1712021991968750
-28.04,1712021991984375
-15.63,1712021992000000
-4.33,1712021992015625
5.08,1712021992031250
12.28,1712021992046875
17.15,1712021992062500
19.7,1712021992078125
20.09,1712021992093750
18.74,1712021992109375
16.36,1712021992125000
13.85,1712021992140625
12.09,1712021992156250
11.63,1712021992171875
12.64,1712021992187500
14.86,1712021992203125
17.82,1712021992218750
20.97,1712021992234375
23.89,1712021992250000
26.28,1712021992265625
28.02,1712021992281250
29.08,1712021992296875
29.49,1712021992312500
29.33,1712021992328125
28.64,1712021992343750
27.43,1712021992359375
25.6,1712021992375000
23.02,1712021992390625
19.61,1712021992406250
15.47,1712021992421875
10.91,1712021992437500
6.39,1712021992453125
2.22,1712021992468750
-1.56,1712021992484375
-5.28,1712021992500000
-9.57,1712021992515625
-15.05,1712021992531250
-22.15,1712021992546875
-30.88,1712021992562500
-40.73,1712021992578125
-50.65,1712021992593750
-59.13,1712021992609375
-64.48,1712021992625000
-65.16,1712021992640625
-60.35,1712021992656250
-50.28,1712021992671875
-36.3,1712021992687500
-20.59,1712021992703125
-5.44,1712021992718750
7.29,1712021992734375
16.59,1712021992750000
22.25,1712021992765625
24.52,1712021992781250
23.78,1712021992796875
20.41,1712021992812500
14.91,1712021992828125
8.06,1712021992843750
0.99,1712021992859375
-5.08,1712021992875000
-9.13,1712021992890625
-10.76,1712021992906250
-10.28,1712021992921875
-8.52,1712021992937500
-6.43,1712021992953125
-4.77,1712021992968750
-3.84,1712021992984375
-3.57,1712021993000000
-3.68,1712021993015625
-3.92,1712021993031250
-4.21,1712021993046875
-4.61,1712021993062500
-5.31,1712021993078125
-6.47,1712021993093750
-8.16,1712021993109375
-10.33,1712021993125000
-12.81,1712021993140625
-15.37,1712021993156250
-17.82,1712021993171875
-20.13,1712021993187500
-22.48,1712021993203125
-25.24,1712021993218750
-28.88,1712021993234375
-33.87,1712021993250000
-40.49,1712021993265625
-48.76,1712021993281250
-58.3,1712021993296875
-68.28,1712021993312500
-77.43,1712021993328125
-84.16,1712021993343750
-86.94,1712021993359375
-84.64,1712021993375000
-77.0,1712021993390625
-64.71,1712021993406250
-49.31,1712021993421875
-32.67,1712021993437500
-16.58,1712021993453125
-2.33,1712021993468750
9.39,1712021993484375
18.34,1712021993500000
24.58,1712021993515625
28.28,1712021993531250
29.79,1712021993546875
29.66,1712021993562500
28.64,1712021993578125
27.63,1712021993593750
27.48,1712021993609375
28.73,1712021993625000
31.43,1712021993640625
35.14,1712021993656250
39.05,1712021993671875
42.22,1712021993687500
43.95,1712021993703125
43.91,1712021993718750
42.26,1712021993734375
39.49,1712021993750000
36.19,1712021993765625
32.74,1712021993781250
29.22,1712021993796875
25.41,1712021993812500
21.04,1712021993828125
16.05,1712021993843750
10.68,1712021993859375
5.44,1712021993875000
0.82,1712021993890625
-2.9,1712021993906250
-5.87,1712021993921875
-8.53,1712021993937500
-11.47,1712021993953125
-15.2,1712021993968750
-19.97,1712021993984375
-25.77,1712021994000000
-32.22,1712021994015625
-38.54,1712021994031250
-43.6,1712021994046875
-46.04,1712021994062500
-44.67,1712021994078125
-38.88,1712021994093750
-28.99,1712021994109375
-16.17,1712021994125000
-2.18,1712021994140625
11.26,1712021994156250
22.84,1712021994171875
31.9,1712021994187500
38.26,1712021994203125
41.97,1712021994218750
43.18,1712021994234375
42.18,1712021994250000
39.53,1712021994265625
36.14,1712021994281250
33.2,1712021994296875
31.74,1712021994312500
32.27,1712021994328125
34.57,1712021994343750
37.68,1712021994359375
40.28,1712021994375000
41.15,1712021994390625
39.62,1712021994406250
35.84,1712021994421875
30.72,1712021994437500
25.65,1712021994453125
22.0,1712021994468750
20.61,1712021994484375
21.45,1712021994500000
23.53,1712021994515625
25.26,1712021994531250
25.05,1712021994546875
21.93,1712021994562500
16.03,1712021994578125
8.53,1712021994593750
1.14,1712021994609375
-4.59,1712021994625000
-7.89,1712021994640625
-9.0,1712021994656250
-8.89,1712021994671875
-8.82,1712021994687500
-9.9,1712021994703125
-12.9,1712021994718750
-18.15,1712021994734375
-25.49,1712021994750000
-34.12,1712021994765625
-42.54,1712021994781250
-48.67,1712021994796875
-50.29,1712021994812500
-45.84,1712021994828125
-35.03,1712021994843750
-19.02,1712021994859375
-0.15,1712021994875000
18.87,1712021994890625
35.66,1712021994906250
48.63,1712021994921875
57.03,1712021994937500
60.74,1712021994953125
60.01,1712021994968750
55.41,1712021994984375
47.79,1712021995000000
38.34,1712021995015625
28.47,1712021995031250
19.53,1712021995046875
12.48,1712021995062500
7.7,1712021995078125
4.88,1712021995093750
3.27,1712021995109375
1.96,1712021995125000
0.31,1712021995140625
-1.88,1712021995156250
-4.35,1712021995171875
-6.65,1712021995187500
-8.37,1712021995203125
-9.48,1712021995218750
-10.34,1712021995234375
-11.56,1712021995250000
-13.77,1712021995265625
-17.33,1712021995281250
-22.26,1712021995296875
-28.24,1712021995312500
-34.77,1712021995328125
-41.29,1712021995343750
-47.23,1712021995359375
-52.17,1712021995375000
-55.81,1712021995390625
-58.14,1712021995406250
-59.55,1712021995421875
-60.76,1712021995437500
-62.72,1712021995453125
-66.14,1712021995468750
-71.13,1712021995484375
-76.88,1712021995500000
-81.76,1712021995515625
-83.82,1712021995531250
-81.47,1712021995546875
-74.13,1712021995562500
-62.41,1712021995578125
-47.9,1712021995593750
-32.56,1712021995609375
-18.11,1712021995625000
-5.59,1712021995640625
4.67,1712021995656250
12.82,1712021995671875
19.21,1712021995687500
24.13,1712021995703125
27.75,1712021995718750
30.25,1712021995734375
31.91,1712021995750000
33.2,1712021995765625
34.64,1712021995781250
36.57,1712021995796875
39.0,1712021995812500
41.55,1712021995828125
43.49,1712021995843750
44.07,1712021995859375
42.83,1712021995875000
39.83,1712021995890625
35.59,1712021995906250
30.87,1712021995921875
26.31,1712021995937500
22.22,1712021995953125
18.57,1712021995968750
15.06,1712021995984375
11.25,1712021996000000
6.82,1712021996015625
1.62,1712021996031250
-4.32,1712021996046875
-10.78,1712021996062500
-17.33,1712021996078125
-23.42,1712021996093750
-28.33,1712021996109375
-31.65,1712021996125000
-33.42,1712021996140625
-34.18,1712021996156250
-34.73,1712021996171875
-36.0,1712021996187500
-38.76,1712021996203125
-43.34,1712021996218750
-49.42,1712021996234375
-55.75,1712021996250000
-60.58,1712021996265625
-62.02,1712021996281250
-58.49,1712021996296875
-49.1,1712021996312500
-34.09,1712021996328125
-14.96,1712021996343750
6.02,1712021996359375
26.26,1712021996375000
43.82,1712021996390625
57.36,1712021996406250
66.18,1712021996421875
70.23,1712021996437500
70.07,1712021996453125
66.54,1712021996468750
60.47,1712021996484375
52.63,1712021996500000
42.27,1712021996515625
30.47,1712021996531250
19.6,1712021996546875
11.61,1712021996562500
6.96,1712021996578125
5.13,1712021996593750
5.35,1712021996609375
6.42,1712021996625000
7.98,1712021996640625
9.51,1712021996656250
10.51,1712021996671875
10.27,1712021996687500
7.98,1712021996703125
3.19,1712021996718750
-3.73,1712021996734375
-11.4,1712021996750000
-17.97,1712021996765625
-21.6,1712021996781250
-21.43,1712021996796875
-17.48,1712021996812500
-10.66,1712021996828125
-2.48,1712021996843750
5.57,1712021996859375
12.47,1712021996875000
17.85,1712021996890625
21.89,1712021996906250
25.36,1712021996921875
29.32,1712021996937500
33.75,1712021996953125
38.83,1712021996968750
44.55,1712021996984375
50.54,1712021997000000
55.79,1712021997015625
59.08,1712021997031250
59.44,1712021997046875
56.69,1712021997062500
51.27,1712021997078125
44.04,1712021997093750
36.08,1712021997109375
28.23,1712021997125000
21.07,1712021997140625
15.03,1712021997156250
10.63,1712021997171875
7.88,1712021997187500
6.85,1712021997203125
7.34,1712021997218750
8.94,1712021997234375
11.34,1712021997250000
14.22,1712021997265625
17.33,1712021997281250
20.24,1712021997296875
22.56,1712021997312500
23.88,1712021997328125
23.81,1712021997343750
21.8,1712021997359375
17.28,1712021997375000
10.49,1712021997390625
2.08,1712021997406250
-6.94,1712021997421875
-15.85,1712021997437500
-23.93,1712021997453125
-30.61,1712021997468750
-35.6,1712021997484375
-39.17,1712021997500000
-41.93,1712021997515625
-44.47,1712021997531250
-47.25,1712021997546875
-50.57,1712021997562500
-55.26,1712021997578125
-61.68,1712021997593750
-69.6,1712021997609375
-78.32,1712021997625000
-86.9,1712021997640625
-94.19,1712021997656250
-98.72,1712021997671875
-99.13,1712021997687500
-94.65,1712021997703125
-86.39,1712021997718750
-76.06,1712021997734375
-65.43,1712021997750000
-56.0,1712021997765625
-48.81,1712021997781250
-44.29,1712021997796875
-42.04,1712021997812500
-41.16,1712021997828125
-35.38,1712021997843750
-22.16,1712021997859375
-2.78,1712021997875000
19.87,1712021997890625
43.42,1712021997906250
65.52,1712021997921875
83.03,1712021997937500
92.56,1712021997953125
92.1,1712021997968750
82.31,1712021997984375
65.82,1712021998000000
47.2,1712021998015625
31.35,1712021998031250
21.4,1712021998046875
17.81,1712021998062500
18.81,1712021998078125
21.85,1712021998093750
24.76,1712021998109375
26.37,1712021998125000
25.81,1712021998140625
23.12,1712021998156250
19.07,1712021998171875
14.62,1712021998187500
10.49,1712021998203125
6.98,1712021998218750
4.09,1712021998234375
1.71,1712021998250000
-0.27,1712021998265625
-2.16,1712021998281250
-3.84,1712021998296875
-4.7,1712021998312500
-4.09,1712021998328125
-1.71,1712021998343750
2.24,1712021998359375
7.13,1712021998375000
12.02,1712021998390625
15.81,1712021998406250
17.39,1712021998421875
16.17,1712021998437500
12.54,1712021998453125
7.38,1712021998468750
2.07,1712021998484375
-1.92,1712021998500000
-3.5,1712021998515625
-2.12,1712021998531250
1.97,1712021998546875
7.75,1712021998562500
13.72,1712021998578125
18.23,1712021998593750
19.98,1712021998609375
18.26,1712021998625000
13.0,1712021998640625
4.85,1712021998656250
-5.0,1712021998671875
-15.02,1712021998687500
-23.65,1712021998703125
-29.63,1712021998718750
-32.29,1712021998734375
-31.61,1712021998750000
-28.19,1712021998765625
-23.04,1712021998781250
-17.3,1712021998796875
-11.81,1712021998812500
-7.05,1712021998828125
-3.06,1712021998843750
0.3,1712021998859375
3.14,1712021998875000
5.44,1712021998890625
7.04,1712021998906250
7.8,1712021998921875
7.69,1712021998937500
6.87,1712021998953125
5.65,1712021998968750
4.47,1712021998984375
3.83,1712021999000000
4.21,1712021999015625
5.9,1712021999031250
8.85,1712021999046875
12.57,1712021999062500
16.19,1712021999078125
18.75,1712021999093750
19.53,1712021999109375
18.35,1712021999125000
15.57,1712021999140625
11.88,1712021999156250
8.03,1712021999171875
4.49,1712021999187500
1.48,1712021999203125
-0.97,1712021999218750
-2.83,1712021999234375
-4.02,1712021999250000
-4.44,1712021999265625
-4.13,1712021999281250
-3.3,1712021999296875
-2.33,1712021999312500
-1.64,1712021999328125
-1.5,1712021999343750
-1.91,1712021999359375
-2.65,1712021999375000
-3.36,1712021999390625
-3.69,1712021999406250
-3.47,1712021999421875
-2.77,1712021999437500
-1.86,1712021999453125
-1.1,1712021999468750
-0.78,1712021999484375
-0.97,1712021999500000
-1.49,1712021999515625
-2.01,1712021999531250
-2.17,1712021999546875
-1.8,1712021999562500
-1.01,1712021999578125
-0.11,1712021999593750
0.54,1712021999609375
0.71,1712021999625000
0.36,1712021999640625
-0.28,1712021999656250
-0.83,1712021999671875
-0.73,1712021999687500
0.54,1712021999703125
3.39,1712021999718750
7.92,1712021999734375
13.81,1712021999750000
20.34,1712021999765625
26.56,1712021999781250
31.62,1712021999796875
35.01,1712021999812500
36.69,1712021999828125
37.06,1712021999843750
36.62,1712021999859375
35.75,1712021999875000
34.6,1712021999890625
33.09,1712021999906250
31.3,1712021999921875
29.38,1712021999937500
27.52,1712021999953125
25.92,1712021999968750
24.72,1712021999984375
23.86,1712022000000000
23.17,1712022000015625
22.33,1712022000031250
21.03,1712022000046875
18.97,1712022000062500
16.0,1712022000078125
12.13,1712022000093750
7.58,1712022000109375
2.72,1712022000125000
-2.06,1712022000140625
-6.47,1712022000156250
-10.39,1712022000171875
-13.81,1712022000187500
-16.82,1712022000203125
-19.45,1712022000218750
-21.69,1712022000234375
-23.54,1712022000250000
-25.07,1712022000265625
-26.47,1712022000281250
-28.01,1712022000296875
-29.85,1712022000312500
-31.92,1712022000328125
-33.85,1712022000343750
-35.0,1712022000359375
-34.74,1712022000375000
-32.61,1712022000390625
-28.61,1712022000406250
-23.17,1712022000421875
-17.06,1712022000437500
-11.14,1712022000453125
-6.05,1712022000468750
-2.02,1712022000484375
1.05,1712022000500000
3.53,1712022000515625
5.73,1712022000531250
7.81,1712022000546875
9.65,1712022000562500
11.0,1712022000578125
11.67,1712022000593750
11.62,1712022000609375
11.01,1712022000625000
10.15,1712022000640625
9.32,1712022000656250
8.66,1712022000671875
8.15,1712022000687500
7.63,1712022000703125
6.89,1712022000718750
5.8,1712022000734375
4.3,1712022000750000
2.44,1712022000765625
0.32,1712022000781250
-1.91,1712022000796875
-4.12,1712022000812500
-6.18,1712022000828125
-8.03,1712022000843750
-9.68,1712022000859375
-11.3,1712022000875000
-13.12,1712022000890625
-15.37,1712022000906250
-18.21,1712022000921875
-21.51,1712022000937500
-24.92,1712022000953125
-27.82,1712022000968750
-29.5,1712022000984375
-29.3,1712022001000000
-26.85,1712022001015625
-22.19,1712022001031250
-15.82,1712022001046875
-8.62,1712022001062500
-1.6,1712022001078125
4.4,1712022001093750
8.94,1712022001109375
12.03,1712022001125000
14.02,1712022001140625
15.39,1712022001156250
16.49,1712022001171875
17.41,1712022001187500
18.07,1712022001203125
18.3,1712022001218750
18.02,1712022001234375
17.24,1712022001250000
16.1,1712022001265625
14.77,1712022001281250
13.4,1712022001296875
12.06,1712022001312500
10.78,1712022001328125
9.52,1712022001343750
8.19,1712022001359375
6.73,1712022001375000
5.05,1712022001390625
3.09,1712022001406250
0.81,1712022001421875
-1.77,1712022001437500
-4.6,1712022001453125
-7.54,1712022001468750
-10.46,1712022001484375
-13.25,1712022001500000
-15.95,1712022001515625
-18.73,1712022001531250
-21.88,1712022001546875
-25.58,1712022001562500
-29.7,1712022001578125
-33.74,1712022001593750
-36.86,1712022001609375
-38.16,1712022001625000
-37.02,1712022001640625
-33.32,1712022001656250
-27.54,1712022001671875
-20.52,1712022001687500
-13.18,1712022001703125
-6.23,1712022001718750
-0.12,1712022001734375
5.03,1712022001750000
9.23,1712022001765625
12.56,1712022001781250
15.08,1712022001796875
16.84,1712022001812500
17.94,1712022001828125
18.51,1712022001843750
18.7,1712022001859375
18.65,1712022001875000
18.46,1712022001890625
18.12,1712022001906250
17.6,1712022001921875
16.84,1712022001937500
15.8,1712022001953125
14.53,1712022001968750
13.14,1712022001984375
11.74,1712022002000000
10.37,1712022002015625
8.93,1712022002031250
7.22,1712022002046875
4.99,1712022002062500
2.18,1712022002078125
-1.05,1712022002093750
-4.33,1712022002109375
-7.23,1712022002125000
-9.48,1712022002140625
-11.14,1712022002156250
-12.57,1712022002171875
-14.27,1712022002187500
-16.61,1712022002203125
-19.73,1712022002218750
-23.42,1712022002234375
-27.27,1712022002250000
-30.79,1712022002265625
-33.57,1712022002281250
-35.32,1712022002296875
-35.92,1712022002312500
-35.35,1712022002328125
-33.69,1712022002343750
-31.02,1712022002359375
-27.29,1712022002375000
-22.37,1712022002390625
-16.07,1712022002406250
-8.26,1712022002421875
0.81,1712022002437500
10.49,1712022002453125
19.72,1712022002468750
27.21,1712022002484375
31.88,1712022002500000
33.2,1712022002515625
31.39,1712022002531250
27.46,1712022002546875
22.97,1712022002562500
19.53,1712022002578125
18.34,1712022002593750
19.78,1712022002609375
23.19,1712022002625000
27.13,1712022002640625
29.89,1712022002656250
30.17,1712022002671875
27.6,1712022002687500
22.89,1712022002703125
17.42,1712022002718750
12.63,1712022002734375
9.3,1712022002750000
7.31,1712022002765625
5.83,1712022002781250
3.86,1712022002796875
0.91,1712022002812500
-2.79,1712022002828125
-6.39,1712022002843750
-9.01,1712022002859375
-10.3,1712022002875000
-10.7,1712022002890625
-11.3,1712022002906250
-13.19,1712022002921875
-16.99,1712022002937500
-22.34,1712022002953125
-28.18,1712022002968750
-33.18,1712022002984375
-36.3,1712022003000000
-37.22,1712022003015625
-36.3,1712022003031250
-34.2,1712022003046875
-31.43,1712022003062500
-28.11,1712022003078125
-23.93,1712022003093750
-18.41,1712022003109375
-11.28,1712022003125000
-2.72,1712022003140625
6.63,1712022003156250
15.83,1712022003171875
23.88,1712022003187500
30.04,1712022003203125
33.92,1712022003218750
35.68,1712022003234375
35.93,1712022003250000
35.66,1712022003265625
35.9,1712022003281250
37.5,1712022003296875
40.83,1712022003312500
45.64,1712022003328125
51.2,1712022003343750
56.52,1712022003359375
60.59,1712022003375000
62.68,1712022003390625
62.47,1712022003406250
60.1,1712022003421875
56.05,1712022003437500
51.01,1712022003453125
45.59,1712022003468750
40.19,1712022003484375
34.82,1712022003500000
29.28,1712022003515625
23.25,1712022003531250
16.59,1712022003546875
9.42,1712022003562500
2.1,1712022003578125
-4.92,1712022003593750
-11.29,1712022003609375
-16.81,1712022003625000
-21.49,1712022003640625
-25.39,1712022003656250
-28.61,1712022003671875
-31.27,1712022003687500
-33.46,1712022003703125
-35.26,1712022003718750
-36.69,1712022003734375
-37.67,1712022003750000
-38.01,1712022003765625
-37.47,1712022003781250
-35.85,1712022003796875
-32.96,1712022003812500
-28.75,1712022003828125
-23.31,1712022003843750
-16.92,1712022003859375
-10.13,1712022003875000
-3.71,1712022003890625
1.51,1712022003906250
4.91,1712022003921875
6.3,1712022003937500
6.05,1712022003953125
4.87,1712022003968750
3.54,1712022003984375
2.61,1712022004000000
2.21,1712022004015625
2.09,1712022004031250
1.84,1712022004046875
1.15,1712022004062500
-0.08,1712022004078125
-1.76,1712022004093750
-3.7,1712022004109375
-5.68,1712022004125000
-7.55,1712022004140625
-9.21,1712022004156250
-10.56,1712022004171875
-11.55,1712022004187500
-12.19,1712022004203125
-12.62,1712022004218750
-13.0,1712022004234375
-13.47,1712022004250000
-14.04,1712022004265625
-14.61,1712022004281250
-14.95,1712022004296875
-14.91,1712022004312500
-14.43,1712022004328125
-13.62,1712022004343750
-12.68,1712022004359375
-11.8,1712022004375000
-11.1,1712022004390625
-10.63,1712022004406250
-10.38,1712022004421875
-10.34,1712022004437500
-10.51,1712022004453125
-10.89,1712022004468750
-11.44,1712022004484375
-12.01,1712022004500000
-12.44,1712022004515625
-12.59,1712022004531250
-12.43,1712022004546875
-12.06,1712022004562500
-11.64,1712022004578125
-11.35,1712022004593750
-11.34,1712022004609375
-11.64,1712022004625000
-12.25,1712022004640625
-13.1,1712022004656250
-14.07,1712022004671875
-14.99,1712022004687500
-15.68,1712022004703125
-15.93,1712022004718750
-15.64,1712022004734375
-14.83,1712022004750000
-13.69,1712022004765625
-12.46,1712022004781250
-11.34,1712022004796875
-10.45,1712022004812500
-9.74,1712022004828125
-9.14,1712022004843750
-8.62,1712022004859375
-8.23,1712022004875000
-8.0,1712022004890625
-7.93,1712022004906250
-7.96,1712022004921875
-7.99,1712022004937500
-7.93,1712022004953125
-7.8,1712022004968750
-7.66,1712022004984375
-7.54,1712022005000000
-7.45,1712022005015625
-7.26,1712022005031250
-6.84,1712022005046875
-6.13,1712022005062500
-5.22,1712022005078125
-4.32,1712022005093750
-3.62,1712022005109375
-3.22,1712022005125000
-3.02,1712022005140625
-2.84,1712022005156250
-2.57,1712022005171875
-2.21,1712022005187500
-1.94,1712022005203125
-1.89,1712022005218750
-2.13,1712022005234375
-2.54,1712022005250000
-2.94,1712022005265625
-3.16,1712022005281250
-3.19,1712022005296875
-3.19,1712022005312500
-3.33,1712022005328125
-3.77,1712022005343750
-4.52,1712022005359375
-5.47,1712022005375000
-6.46,1712022005390625
-7.36,1712022005406250
-8.11,1712022005421875
-8.7,1712022005437500
-9.22,1712022005453125
-9.84,1712022005468750
-10.75,1712022005484375
-12.09,1712022005500000
-13.88,1712022005515625
-15.92,1712022005531250
-17.83,1712022005546875
-19.15,1712022005562500
-19.46,1712022005578125
-18.52,1712022005593750
-16.25,1712022005609375
-12.78,1712022005625000
-8.4,1712022005640625
-3.51,1712022005656250
1.41,1712022005671875
5.89,1712022005687500
9.51,1712022005703125
12.05,1712022005718750
13.5,1712022005734375
14.05,1712022005750000
13.99,1712022005765625
13.64,1712022005781250
13.26,1712022005796875
13.01,1712022005812500
12.92,1712022005828125
12.97,1712022005843750
13.06,1712022005859375
13.11,1712022005875000
13.04,1712022005890625
12.81,1712022005906250
12.41,1712022005921875
11.85,1712022005937500
11.19,1712022005953125
10.52,1712022005968750
9.9,1712022005984375
9.33,1712022006000000
8.73,1712022006015625
7.94,1712022006031250
6.8,1712022006046875
5.27,1712022006062500
3.4,1712022006078125
1.41,1712022006093750
-0.51,1712022006109375
-2.23,1712022006125000
-3.82,1712022006140625
-5.46,1712022006156250
-7.4,1712022006171875
-9.77,1712022006187500
-12.51,1712022006203125
-15.39,1712022006218750
-18.06,1712022006234375
-20.14,1712022006250000
-21.27,1712022006265625
-21.18,1712022006281250
-19.67,1712022006296875
-16.67,1712022006312500
-12.26,1712022006328125
-6.74,1712022006343750
-0.54,1712022006359375
5.81,1712022006375000
11.82,1712022006390625
17.12,1712022006406250
21.5,1712022006421875
24.9,1712022006437500
27.42,1712022006453125
29.21,1712022006468750
30.46,1712022006484375
31.3,1712022006500000
31.78,1712022006515625
31.9,1712022006531250
31.59,1712022006546875
30.86,1712022006562500
29.75,1712022006578125
28.38,1712022006593750
26.88,1712022006609375
25.33,1712022006625000
23.72,1712022006640625
21.99,1712022006656250
20.07,1712022006671875
17.92,1712022006687500
15.53,1712022006703125
12.94,1712022006718750
10.14,1712022006734375
7.13,1712022006750000
3.97,1712022006765625
0.81,1712022006781250
-2.13,1712022006796875
-4.59,1712022006812500
-6.4,1712022006828125
-7.53,1712022006843750
-8.18,1712022006859375
-8.64,1712022006875000
-9.21,1712022006890625
-10.09,1712022006906250
-11.28,1712022006921875
-12.65,1712022006937500
-13.98,1712022006953125
-15.08,1712022006968750
-15.82,1712022006984375
-16.1,1712022007000000
-15.86,1712022007015625
-14.99,1712022007031250
-13.45,1712022007046875
-11.24,1712022007062500
-8.51,1712022007078125
-5.55,1712022007093750
-2.67,1712022007109375
-0.19,1712022007125000
1.72,1712022007140625
3.0,1712022007156250
3.75,1712022007171875
4.1,1712022007187500
4.26,1712022007203125
4.36,1712022007218750
4.47,1712022007234375
4.58,1712022007250000
4.6,1712022007265625
4.43,1712022007281250
4.03,1712022007296875
3.41,1712022007312500
2.7,1712022007328125
2.04,1712022007343750
1.52,1712022007359375
1.11,1712022007375000
0.68,1712022007390625
0.05,1712022007406250
-0.85,1712022007421875
-1.98,1712022007437500
-3.12,1712022007453125
-4.01,1712022007468750
-4.48,1712022007484375
-4.53,1712022007500000
-4.37,1712022007515625
-4.28,1712022007531250
-4.52,1712022007546875
-5.17,1712022007562500
-6.19,1712022007578125
-7.37,1712022007593750
-8.5,1712022007609375
-9.44,1712022007625000
-10.11,1712022007640625
-10.55,1712022007656250
-10.87,1712022007671875
-11.24,1712022007687500
-11.83,1712022007703125
-12.73,1712022007718750
-13.9,1712022007734375
-15.17,1712022007750000
-16.24,1712022007765625
-16.76,1712022007781250
-16.41,1712022007796875
-14.99,1712022007812500
-12.48,1712022007828125
-9.09,1712022007843750
-5.25,1712022007859375
-1.41,1712022007875000
2.04,1712022007890625
4.88,1712022007906250
7.16,1712022007921875
9.03,1712022007937500
10.64,1712022007953125
12.03,1712022007968750
13.12,1712022007984375
13.76,1712022008000000
13.91,1712022008015625
13.6,1712022008031250
12.95,1712022008046875
12.07,1712022008062500
10.98,1712022008078125
9.69,1712022008093750
8.24,1712022008109375
6.76,1712022008125000
5.45,1712022008140625
4.49,1712022008156250
3.9,1712022008171875
3.56,1712022008187500
3.21,1712022008203125
2.65,1712022008218750
1.78,1712022008234375
0.65,1712022008250000
-0.59,1712022008265625
-1.8,1712022008281250
-2.92,1712022008296875
-3.96,1712022008312500
-4.91,1712022008328125
-5.73,1712022008343750
-6.37,1712022008359375
-6.81,1712022008375000
-7.15,1712022008390625
-7.56,1712022008406250
-8.3,1712022008421875
-9.48,1712022008437500
-11.03,1712022008453125
-12.68,1712022008468750
-14.07,1712022008484375
-14.93,1712022008500000
-15.23,1712022008515625
-15.18,1712022008531250
-15.12,1712022008546875
-15.36,1712022008562500
-16.04,1712022008578125
-17.14,1712022008593750
-18.44,1712022008609375
-19.64,1712022008625000
-20.37,1712022008640625
-20.27,1712022008656250
-19.04,1712022008671875
-16.52,1712022008687500
-12.79,1712022008703125
-8.15,1712022008718750
-3.09,1712022008734375
1.82,1712022008750000
6.13,1712022008765625
9.57,1712022008781250
12.07,1712022008796875
13.71,1712022008812500
14.65,1712022008828125
15.12,1712022008843750
15.3,1712022008859375
15.39,1712022008875000
15.54,1712022008890625
15.8,1712022008906250
16.15,1712022008921875
16.51,1712022008937500
16.81,1712022008953125
16.97,1712022008968750
16.99,1712022008984375
16.84,1712022009000000
16.44,1712022009015625
15.66,1712022009031250
14.42,1712022009046875
12.7,1712022009062500
10.68,1712022009078125
8.62,1712022009093750
6.82,1712022009109375
5.36,1712022009125000
4.12,1712022009140625
2.72,1712022009156250
0.81,1712022009171875
-1.82,1712022009187500
-5.04,1712022009203125
-8.48,1712022009218750
-11.67,1712022009234375
-14.27,1712022009250000
-16.21,1712022009265625
-17.67,1712022009281250
-18.92,1712022009296875
-20.26,1712022009312500
-21.83,1712022009328125
-23.71,1712022009343750
-25.89,1712022009359375
-28.38,1712022009375000
-31.06,1712022009390625
-33.64,1712022009406250
-35.59,1712022009421875
-36.24,1712022009437500
-34.96,1712022009453125
-31.42,1712022009468750
-25.79,1712022009484375
-18.7,1712022009500000
-11.02,1712022009515625
-3.61,1712022009531250
2.94,1712022009546875
8.43,1712022009562500
12.94,1712022009578125
16.62,1712022009593750
19.61,1712022009609375
21.86,1712022009625000
23.3,1712022009640625
23.91,1712022009656250
23.82,1712022009671875
23.37,1712022009687500
22.97,1712022009703125
22.92,1712022009718750
23.3,1712022009734375
23.9,1712022009750000
24.35,1712022009765625
24.3,1712022009781250
23.56,1712022009796875
22.2,1712022009812500
20.52,1712022009828125
18.85,1712022009843750
17.4,1712022009859375
16.19,1712022009875000
15.02,1712022009890625
13.59,1712022009906250
11.7,1712022009921875
9.29,1712022009937500
6.5,1712022009953125
3.6,1712022009968750
0.82,1712022009984375
-1.73,1712022010000000
-4.05,1712022010015625
-6.24,1712022010031250
-8.42,1712022010046875
-10.75,1712022010062500
-13.36,1712022010078125
-16.34,1712022010093750
-19.74,1712022010109375
-23.4,1712022010125000
-26.9,1712022010140625
-29.6,1712022010156250
-30.79,1712022010171875
-29.9,1712022010187500
-26.76,1712022010203125
-21.6,1712022010218750
-14.99,1712022010234375
-7.64,1712022010250000
-0.2,1712022010265625
6.81,1712022010281250
13.01,1712022010296875
18.04,1712022010312500
21.66,1712022010328125
23.65,1712022010343750
24.0,1712022010359375
22.94,1712022010375000
20.97,1712022010390625
18.73,1712022010406250
16.89,1712022010421875
15.98,1712022010437500
16.24,1712022010453125
17.59,1712022010468750
19.64,1712022010484375
21.87,1712022010500000
23.78,1712022010515625
24.99,1712022010531250
25.4,1712022010546875
25.05,1712022010562500
24.08,1712022010578125
22.64,1712022010593750
20.81,1712022010609375
18.61,1712022010625000
16.04,1712022010640625
13.15,1712022010656250
10.04,1712022010671875
6.91,1712022010687500
3.93,1712022010703125
1.23,1712022010718750
-1.15,1712022010734375
-3.28,1712022010750000
-5.22,1712022010765625
-7.04,1712022010781250
-8.82,1712022010796875
-10.66,1712022010812500
-12.69,1712022010828125
-15.11,1712022010843750
-18.02,1712022010859375
-21.31,1712022010875000
-24.57,1712022010890625
-27.05,1712022010906250
-27.89,1712022010921875
-26.35,1712022010937500
-22.11,1712022010953125
-15.4,1712022010968750
-6.93,1712022010984375
2.32,1712022011000000
11.34,1712022011015625
19.36,1712022011031250
25.95,1712022011046875
31.0,1712022011062500
34.6,1712022011078125
36.9,1712022011093750
38.06,1712022011109375
38.22,1712022011125000
37.55,1712022011140625
36.27,1712022011156250
34.58,1712022011171875
32.63,1712022011187500
30.46,1712022011203125
27.97,1712022011218750
25.01,1712022011234375
21.52,1712022011250000
17.61,1712022011265625
13.59,1712022011281250
9.83,1712022011296875
6.6,1712022011312500
3.99,1712022011328125
1.86,1712022011343750
-0.03,1712022011359375
-1.91,1712022011375000
-3.84,1712022011390625
-5.76,1712022011406250
-7.54,1712022011421875
-9.04,1712022011437500
-10.23,1712022011453125
-11.19,1712022011468750
-12.11,1712022011484375
-13.18,1712022011500000
-14.55,1712022011515625
-16.24,1712022011531250
-18.1,1712022011546875
-19.97,1712022011562500
-21.7,1712022011578125
-23.3,1712022011593750
-24.9,1712022011609375
-26.68,1712022011625000
-28.66,1712022011640625
-30.61,1712022011656250
-32.09,1712022011671875
-32.62,1712022011687500
-31.87,1712022011703125
-29.82,1712022011718750
-26.7,1712022011734375
-22.92,1712022011750000
-18.87,1712022011765625
-14.83,1712022011781250
-11.04,1712022011796875
-7.63,1712022011812500
-4.72,1712022011828125
-2.34,1712022011843750
-0.43,1712022011859375
1.1,1712022011875000
2.36,1712022011890625
3.4,1712022011906250
4.19,1712022011921875
4.68,1712022011937500
4.86,1712022011953125
4.77,1712022011968750
4.5,1712022011984375
4.24,1712022012000000
4.15,1712022012015625
4.45,1712022012031250
5.27,1712022012046875
6.64,1712022012062500
8.36,1712022012078125
10.04,1712022012093750
11.17,1712022012109375
11.29,1712022012125000
10.24,1712022012140625
8.16,1712022012156250
5.5,1712022012171875
2.8,1712022012187500
0.49,1712022012203125
-1.22,1712022012218750
-2.39,1712022012234375
-3.33,1712022012250000
-4.39,1712022012265625
-5.91,1712022012281250
-8.03,1712022012296875
-10.65,1712022012312500
-13.49,1712022012328125
-16.17,1712022012343750
-18.45,1712022012359375
-20.33,1712022012375000
-22.11,1712022012390625
-24.18,1712022012406250
-26.89,1712022012421875
-30.26,1712022012437500
-33.95,1712022012453125
-37.23,1712022012468750
-39.24,1712022012484375
-39.14,1712022012500000
-36.43,1712022012515625
-31.08,1712022012531250
-23.6,1712022012546875
-14.85,1712022012562500
-5.79,1712022012578125
2.8,1712022012593750
10.52,1712022012609375
17.26,1712022012625000
23.08,1712022012640625
27.95,1712022012656250
31.75,1712022012671875
34.33,1712022012687500
35.71,1712022012703125
36.17,1712022012718750
36.19,1712022012734375
36.19,1712022012750000
36.35,1712022012765625
36.55,1712022012781250
36.49,1712022012796875
35.9,1712022012812500
34.71,1712022012828125
33.06,1712022012843750
31.15,1712022012859375
29.09,1712022012875000
26.88,1712022012890625
24.37,1712022012906250
21.41,1712022012921875
17.96,1712022012937500
14.09,1712022012953125
9.96,1712022012968750
5.81,1712022012984375
1.82,1712022013000000
-1.85,1712022013015625
-5.14,1712022013031250
-8.1,1712022013046875
-10.85,1712022013062500
-13.61,1712022013078125
-16.51,1712022013093750
-19.57,1712022013109375
-22.62,1712022013125000
-25.41,1712022013140625
-27.72,1712022013156250
-29.47,1712022013171875
-30.85,1712022013187500
-32.18,1712022013203125
-33.9,1712022013218750
-36.29,1712022013234375
-39.4,1712022013250000
-42.88,1712022013265625
-45.99,1712022013281250
-47.77,1712022013296875
-47.31,1712022013312500
-44.06,1712022013328125
-38.06,1712022013343750
-29.94,1712022013359375
-20.7,1712022013375000
-11.38,1712022013390625
-2.74,1712022013406250
4.85,1712022013421875
11.31,1712022013437500
16.67,1712022013453125
20.9,1712022013468750
23.89,1712022013484375
25.61,1712022013500000
26.25,1712022013515625
26.22,1712022013531250
26.02,1712022013546875
26.0,1712022013562500
26.25,1712022013578125
26.53,1712022013593750
26.49,1712022013609375
25.85,1712022013625000
24.58,1712022013640625
22.86,1712022013656250
21.01,1712022013671875
19.31,1712022013687500
17.86,1712022013703125
16.56,1712022013718750
15.21,1712022013734375
13.55,1712022013750000
11.37,1712022013765625
8.62,1712022013781250
5.36,1712022013796875
1.81,1712022013812500
-1.74,1712022013828125
-5.06,1712022013843750
-8.04,1712022013859375
-10.7,1712022013875000
-13.24,1712022013890625
-15.89,1712022013906250
-18.89,1712022013921875
-22.41,1712022013937500
-26.57,1712022013953125
-31.28,1712022013968750
-36.22,1712022013984375
-40.72,1712022014000000
-43.85,1712022014015625
-44.63,1712022014031250
-42.38,1712022014046875
-36.99,1712022014062500
-28.98,1712022014078125
-19.38,1712022014093750
-9.38,1712022014109375
-0.06,1712022014125000
7.86,1712022014140625
14.12,1712022014156250
18.77,1712022014171875
22.11,1712022014187500
24.48,1712022014203125
26.15,1712022014218750
27.35,1712022014234375
28.13,1712022014250000
28.5,1712022014265625
28.46,1712022014281250
28.06,1712022014296875
27.34,1712022014312500
26.38,1712022014328125
25.2,1712022014343750
23.76,1712022014359375
22.02,1712022014375000
20.02,1712022014390625
17.87,1712022014406250
15.7,1712022014421875
13.57,1712022014437500
11.36,1712022014453125
8.83,1712022014468750
5.75,1712022014484375
2.04,1712022014500000
-2.11,1712022014515625
-6.27,1712022014531250
-10.0,1712022014546875
-13.02,1712022014562500
-15.41,1712022014578125
-17.58,1712022014593750
-20.13,1712022014609375
-23.57,1712022014625000
-28.12,1712022014640625
-33.53,1712022014656250
-39.13,1712022014671875
-43.94,1712022014687500
-46.87,1712022014703125
-47.05,1712022014718750
-44.01,1712022014734375
-37.88,1712022014750000
-29.29,1712022014765625
-19.28,1712022014781250
-8.94,1712022014796875
0.82,1712022014812500
9.43,1712022014828125
16.65,1712022014843750
22.49,1712022014859375
27.01,1712022014875000
30.25,1712022014890625
32.26,1712022014906250
33.11,1712022014921875
32.98,1712022014937500
32.2,1712022014953125
31.12,1712022014968750
30.04,1712022014984375
29.12,1712022015000000
28.27,1712022015015625
27.29,1712022015031250
25.92,1712022015046875
24.01,1712022015062500
21.56,1712022015078125
18.77,1712022015093750
15.94,1712022015109375
13.29,1712022015125000
10.84,1712022015140625
8.41,1712022015156250
5.63,1712022015171875
2.22,1712022015187500
-1.88,1712022015203125
-6.43,1712022015218750
-11.01,1712022015234375
-15.2,1712022015250000
-18.78,1712022015265625
-21.9,1712022015281250
-24.94,1712022015296875
-28.37,1712022015312500
-32.51,1712022015328125
-37.45,1712022015343750
-42.96,1712022015359375
-48.57,1712022015375000
-53.64,1712022015390625
-57.36,1712022015406250
-58.87,1712022015421875
-57.46,1712022015437500
-52.76,1712022015453125
-44.9,1712022015468750
-34.55,1712022015484375
-22.76,1712022015500000
-10.67,1712022015515625
0.75,1712022015531250
10.92,1712022015546875
19.54,1712022015562500
26.59,1712022015578125
32.12,1712022015593750
36.2,1712022015609375
38.94,1712022015625000
40.48,1712022015640625
41.11,1712022015656250
41.15,1712022015671875
40.88,1712022015687500
40.48,1712022015703125
39.97,1712022015718750
39.21,1712022015734375
38.04,1712022015750000
36.36,1712022015765625
34.24,1712022015781250
31.9,1712022015796875
29.5,1712022015812500
27.13,1712022015828125
24.61,1712022015843750
21.65,1712022015859375
17.98,1712022015875000
13.49,1712022015890625
8.39,1712022015906250
3.02,1712022015921875
-2.18,1712022015937500
-6.93,1712022015953125
-11.15,1712022015968750
-14.98,1712022015984375
-18.7,1712022016000000
-22.7,1712022016015625
-27.35,1712022016031250
-32.97,1712022016046875
-39.62,1712022016062500
-46.96,1712022016078125
-54.13,1712022016093750
-59.79,1712022016109375
-62.49,1712022016125000
-61.08,1712022016140625
-55.19,1712022016156250
-45.36,1712022016171875
-32.93,1712022016187500
-19.58,1712022016203125
-6.83,1712022016218750
4.34,1712022016234375
13.63,1712022016250000
21.23,1712022016265625
27.53,1712022016281250
32.86,1712022016296875
37.32,1712022016312500
40.85,1712022016328125
43.34,1712022016343750
44.81,1712022016359375
45.37,1712022016375000
45.29,1712022016390625
44.86,1712022016406250
44.27,1712022016421875
43.56,1712022016437500
42.66,1712022016453125
41.44,1712022016468750
39.8,1712022016484375
37.76,1712022016500000
35.42,1712022016515625
32.93,1712022016531250
30.39,1712022016546875
27.78,1712022016562500
24.99,1712022016578125
21.89,1712022016593750
18.38,1712022016609375
14.39,1712022016625000
9.97,1712022016640625
5.21,1712022016656250
0.21,1712022016671875
-4.89,1712022016687500
-9.92,1712022016703125
-14.74,1712022016718750
-19.19,1712022016734375
-23.27,1712022016750000
-27.1,1712022016765625
-30.98,1712022016781250
-35.25,1712022016796875
-40.23,1712022016812500
-46.01,1712022016828125
-52.34,1712022016843750
-58.54,1712022016859375
-63.61,1712022016875000
-66.35,1712022016890625
-65.76,1712022016906250
-61.25,1712022016921875
-52.92,1712022016937500
-41.52,1712022016953125
-28.27,1712022016968750
-14.52,1712022016984375
-1.46,1712022017000000
10.14,1712022017015625
19.86,1712022017031250
27.59,1712022017046875
33.43,1712022017062500
37.57,1712022017078125
40.31,1712022017093750
42.04,1712022017109375
43.13,1712022017125000
43.88,1712022017140625
44.41,1712022017156250
44.74,1712022017171875
44.82,1712022017187500
44.61,1712022017203125
44.13,1712022017218750
43.43,1712022017234375
42.5,1712022017250000
41.32,1712022017265625
39.79,1712022017281250
37.88,1712022017296875
35.56,1712022017312500
32.85,1712022017328125
29.8,1712022017343750
26.43,1712022017359375
22.75,1712022017375000
18.9,1712022017390625
15.02,1712022017406250
11.3,1712022017421875
7.84,1712022017437500
4.6,1712022017453125
1.42,1712022017468750
-1.95,1712022017484375
-5.67,1712022017500000
-9.77,1712022017515625
-14.09,1712022017531250
-18.41,1712022017546875
-22.49,1712022017562500
-26.15,1712022017578125
-29.4,1712022017593750
-32.38,1712022017609375
-35.34,1712022017625000
-38.59,1712022017640625
-42.44,1712022017656250
-47.11,1712022017671875
-52.56,1712022017687500
-58.33,1712022017703125
-63.51,1712022017718750
-66.82,1712022017734375
-67.0,1712022017750000
-63.19,1712022017765625
-55.29,1712022017781250
-44.04,1712022017796875
-30.81,1712022017812500
-17.11,1712022017828125
-4.22,1712022017843750
7.09,1712022017859375
16.52,1712022017875000
24.14,1712022017890625
30.1,1712022017906250
34.57,1712022017921875
37.7,1712022017937500
39.66,1712022017953125
40.65,1712022017968750
40.9,1712022017984375
40.65,1712022018000000
40.13,1712022018015625
39.52,1712022018031250
38.97,1712022018046875
38.48,1712022018062500
37.94,1712022018078125
37.14,1712022018093750
35.89,1712022018109375
34.09,1712022018125000
31.78,1712022018140625
29.13,1712022018156250
26.28,1712022018171875
23.34,1712022018187500
20.31,1712022018203125
17.15,1712022018218750
13.84,1712022018234375
10.39,1712022018250000
6.81,1712022018265625
3.11,1712022018281250
-0.78,1712022018296875
-4.91,1712022018312500
-9.26,1712022018328125
-13.73,1712022018343750
-18.11,1712022018359375
-22.18,1712022018375000
-25.79,1712022018390625
-28.97,1712022018406250
-31.9,1712022018421875
-34.94,1712022018437500
-38.5,1712022018453125
-42.86,1712022018468750
-48.08,1712022018484375
-53.77,1712022018500000
-59.06,1712022018515625
-62.77,1712022018531250
-63.71,1712022018546875
-61.06,1712022018562500
-54.67,1712022018578125
-45.16,1712022018593750
-33.77,1712022018609375
-21.95,1712022018625000
-11.04,1712022018640625
-1.99,1712022018656250
4.8,1712022018671875
9.35,1712022018687500
12.0,1712022018703125
13.17,1712022018718750
13.22,1712022018734375
12.38,1712022018750000
10.68,1712022018765625
8.04,1712022018781250
4.6,1712022018796875
0.31,1712022018812500
-5.14,1712022018828125
-12.21,1712022018843750
-21.21,1712022018859375
-32.26,1712022018875000
-45.35,1712022018890625
-60.55,1712022018906250
-77.95,1712022018921875
-97.34,1712022018937500
-118.48,1712022018953125
-140.95,1712022018968750
-163.85,1712022018984375
-185.67,1712022019000000
-204.53,1712022019015625
-218.99,1712022019031250
-228.54,1712022019046875
-233.86,1712022019062500
-235.79,1712022019078125
-235.83,1712022019093750
-235.73,1712022019109375
-236.51,1712022019125000
-237.55,1712022019140625
-236.47,1712022019156250
-229.95,1712022019171875
-214.87,1712022019187500
-189.48,1712022019203125
-152.35,1712022019218750
-105.68,1712022019234375
-55.73,1712022019250000
-10.48,1712022019265625
23.86,1712022019281250
44.86,1712022019296875
54.01,1712022019312500
55.78,1712022019328125
55.95,1712022019343750
63.97,1712022019359375
85.19,1712022019375000
118.05,1712022019390625
156.27,1712022019406250
193.45,1712022019421875
225.43,1712022019437500
250.35,1712022019453125
267.98,1712022019468750
279.02,1712022019484375
291.21,1712022019500000
309.0,1712022019515625
330.29,1712022019531250
349.56,1712022019546875
363.48,1712022019562500
372.11,1712022019578125
377.09,1712022019593750
379.88,1712022019609375
381.33,1712022019625000
390.84,1712022019640625
413.51,1712022019656250
445.86,1712022019671875
479.48,1712022019687500
508.01,1712022019703125
529.4,1712022019718750
544.34,1712022019734375
554.79,1712022019750000
507.94,1712022019765625
387.4,1712022019781250
224.46,1712022019796875
69.6,1712022019812500
-49.14,1712022019828125
-130.59,1712022019843750
-184.92,1712022019859375
-222.84,1712022019875000
-252.04,1712022019890625
-277.03,1712022019906250
-290.88,1712022019921875
-289.82,1712022019937500
-278.04,1712022019953125
-264.23,1712022019968750
-254.49,1712022019984375
-250.26,1712022020000000
-250.34,1712022020015625
-252.8,1712022020031250
-255.86,1712022020046875
-250.55,1712022020062500
-231.77,1712022020078125
-201.45,1712022020093750
-165.84,1712022020109375
-130.07,1712022020125000
-96.84,1712022020140625
-67.63,1712022020156250
-43.71,1712022020171875
-29.5,1712022020187500
-21.14,1712022020203125
-14.65,1712022020218750
-9.12,1712022020234375
-6.03,1712022020250000
-6.49,1712022020265625
-10.28,1712022020281250
-16.45,1712022020296875
-23.91,1712022020312500
-31.62,1712022020328125
-36.13,1712022020343750
-35.8,1712022020359375
-31.68,1712022020375000
-26.37,1712022020390625
-21.94,1712022020406250
-19.29,1712022020421875
-18.45,1712022020437500
-19.17,1712022020453125
-21.06,1712022020468750
-22.63,1712022020484375
-23.08,1712022020500000
-22.63,1712022020515625
-21.93,1712022020531250
-21.38,1712022020546875
-20.94,1712022020562500
-20.43,1712022020578125
-19.78,1712022020593750
-19.14,1712022020609375
-18.45,1712022020625000
-17.85,1712022020640625
-17.3,1712022020656250
-16.6,1712022020671875
-15.46,1712022020687500
-13.72,1712022020703125
-11.45,1712022020718750
-9.04,1712022020734375
-6.91,1712022020750000
-5.21,1712022020765625
-3.78,1712022020781250
-2.32,1712022020796875
-0.18,1712022020812500
3.37,1712022020828125
8.77,1712022020843750
15.87,1712022020859375
23.85,1712022020875000
31.39,1712022020890625
37.09,1712022020906250
39.87,1712022020921875
39.14,1712022020937500
35.34,1712022020953125
29.73,1712022020968750
23.92,1712022020984375
19.25,1712022021000000
16.34,1712022021015625
15.02,1712022021031250
14.52,1712022021046875
13.94,1712022021062500
12.33,1712022021078125
9.54,1712022021093750
6.19,1712022021109375
3.46,1712022021125000
2.57,1712022021140625
4.24,1712022021156250
8.27,1712022021171875
13.24,1712022021187500
19.32,1712022021203125
24.4,1712022021218750
26.34,1712022021234375
24.0,1712022021250000
17.82,1712022021265625
9.64,1712022021281250
2.19,1712022021296875
-1.93,1712022021312500
-0.96,1712022021328125
5.56,1712022021343750
16.22,1712022021359375
29.01,1712022021375000
41.92,1712022021390625
53.23,1712022021406250
61.61,1712022021421875
66.35,1712022021437500
67.32,1712022021453125
65.03,1712022021468750
60.57,1712022021484375
54.38,1712022021500000
47.32,1712022021515625
40.72,1712022021531250
36.02,1712022021546875
34.14,1712022021562500
35.42,1712022021578125
39.24,1712022021593750
44.43,1712022021609375
49.51,1712022021625000
51.35,1712022021640625
48.12,1712022021656250
40.39,1712022021671875
30.38,1712022021687500
20.17,1712022021703125
11.19,1712022021718750
3.15,1712022021734375
-4.81,1712022021750000
-13.59,1712022021765625
-26.86,1712022021781250
-45.92,1712022021796875
-68.1,1712022021812500
-88.69,1712022021828125
-104.33,1712022021843750
-113.41,1712022021859375
-117.27,1712022021875000
-117.51,1712022021890625
-115.37,1712022021906250
-116.55,1712022021921875
-124.07,1712022021937500
-135.9,1712022021953125
-147.66,1712022021968750
-157.05,1712022021984375
-163.5,1712022022000000
-169.51,1712022022015625
-176.56,1712022022031250
-184.83,1712022022046875
-200.17,1712022022062500
-225.42,1712022022078125
-257.43,1712022022093750
-290.18,1712022022109375
-320.38,1712022022125000
-346.56,1712022022140625
-370.65,1712022022156250
-392.97,1712022022171875
-372.0,1712022022187500
-292.1,1712022022203125
-175.34,1712022022218750
-59.29,1712022022234375
34.23,1712022022250000
92.72,1712022022265625
130.98,1712022022281250
158.33,1712022022296875
180.42,1712022022312500
200.52,1712022022328125
214.57,1712022022343750
218.82,1712022022359375
215.2,1712022022375000
209.26,1712022022390625
203.91,1712022022406250
200.84,1712022022421875
198.93,1712022022437500
197.84,1712022022453125
197.17,1712022022468750
191.03,1712022022484375
175.23,1712022022500000
149.28,1712022022515625
119.2,1712022022531250
91.28,1712022022546875
67.91,1712022022562500
49.55,1712022022578125
37.4,1712022022593750
31.74,1712022022609375
28.33,1712022022625000
22.93,1712022022640625
14.37,1712022022656250
3.94,1712022022671875
-8.95,1712022022687500
-24.36,1712022022703125
-41.68,1712022022718750
-58.92,1712022022734375
-74.07,1712022022750000
-87.09,1712022022765625
-97.97,1712022022781250
-105.24,1712022022796875
-98.44,1712022022812500
-75.72,1712022022828125
-45.13,1712022022843750
-17.7,1712022022859375
0.75,1712022022875000
9.42,1712022022890625
12.08,1712022022906250
11.72,1712022022921875
10.99,1712022022937500
12.08,1712022022953125
14.57,1712022022968750
17.53,1712022022984375
20.61,1712022023000000
23.96,1712022023015625
27.53,1712022023031250
31.13,1712022023046875
34.35,1712022023062500
37.21,1712022023078125
39.84,1712022023093750
41.06,1712022023109375
40.01,1712022023125000
37.14,1712022023140625
33.65,1712022023156250
30.58,1712022023171875
28.35,1712022023187500
26.82,1712022023203125
25.8,1712022023218750
25.17,1712022023234375
24.08,1712022023250000
21.99,1712022023265625
19.27,1712022023281250
16.94,1712022023296875
15.86,1712022023312500
16.14,1712022023328125
17.37,1712022023343750
18.9,1712022023359375
19.96,1712022023375000
19.46,1712022023390625
16.57,1712022023406250
11.2,1712022023421875
4.15,1712022023437500
-3.54,1712022023453125
-11.53,1712022023468750
-19.84,1712022023484375
-29.07,1712022023500000
-40.06,1712022023515625
-53.69,1712022023531250
-70.23,1712022023546875
-88.78,1712022023562500
-107.02,1712022023578125
-120.01,1712022023593750
-123.0,1712022023609375
-114.35,1712022023625000
-96.35,1712022023640625
-72.62,1712022023656250
-46.19,1712022023671875
-19.24,1712022023687500
4.46,1712022023703125
20.63,1712022023718750
26.28,1712022023734375
15.93,1712022023750000
-10.23,1712022023765625
-46.72,1712022023781250
-84.53,1712022023796875
-114.53,1712022023812500
-130.7,1712022023828125
-131.51,1712022023843750
-118.81,1712022023859375
-95.94,1712022023875000
-66.22,1712022023890625
-31.48,1712022023906250
6.87,1712022023921875
46.88,1712022023937500
85.37,1712022023953125
118.46,1712022023968750
142.73,1712022023984375
156.67,1712022024000000
161.08,1712022024015625
158.27,1712022024031250
151.73,1712022024046875
144.49,1712022024062500
138.23,1712022024078125
132.95,1712022024093750
127.21,1712022024109375
119.09,1712022024125000
107.39,1712022024140625
92.31,1712022024156250
75.4,1712022024171875
59.34,1712022024187500
46.7,1712022024203125
39.12,1712022024218750
36.87,1712022024234375
38.98,1712022024250000
43.84,1712022024265625
49.92,1712022024281250
56.13,1712022024296875
61.82,1712022024312500
66.67,1712022024328125
70.32,1712022024343750
72.22,1712022024359375
71.67,1712022024375000
68.15,1712022024390625
61.58,1712022024406250
52.58,1712022024421875
42.29,1712022024437500
31.95,1712022024453125
22.59,1712022024468750
14.65,1712022024484375
8.08,1712022024500000
2.55,1712022024515625
-2.21,1712022024531250
-6.33,1712022024546875
-9.91,1712022024562500
-13.16,1712022024578125
-16.48,1712022024593750
-20.35,1712022024609375
-25.08,1712022024625000
-30.79,1712022024640625
-37.29,1712022024656250
-44.25,1712022024671875
-51.31,1712022024687500
-58.16,1712022024703125
-64.61,1712022024718750
-70.63,1712022024734375
-76.39,1712022024750000
-82.2,1712022024765625
-88.48,1712022024781250
-95.44,1712022024796875
-102.79,1712022024812500
-109.58,1712022024828125
-114.3,1712022024843750
-115.23,1712022024859375
-111.06,1712022024875000
-101.33,1712022024890625
-86.64,1712022024906250
-68.49,1712022024921875
-48.77,1712022024937500
-29.31,1712022024953125
-11.47,1712022024968750
3.92,1712022024984375
16.44,1712022025000000
25.96,1712022025015625
32.48,1712022025031250
36.2,1712022025046875
37.53,1712022025062500
37.13,1712022025078125
35.71,1712022025093750
33.92,1712022025109375
32.16,1712022025125000
30.6,1712022025140625
29.27,1712022025156250
28.13,1712022025171875
27.25,1712022025187500
26.65,1712022025203125
26.31,1712022025218750
26.05,1712022025234375
25.54,1712022025250000
24.49,1712022025265625
22.71,1712022025281250
20.19,1712022025296875
17.13,1712022025312500
13.79,1712022025328125
10.42,1712022025343750
7.11,1712022025359375
3.79,1712022025375000
0.16,1712022025390625
-4.2,1712022025406250
-9.77,1712022025421875
-16.82,1712022025437500
-25.19,1712022025453125
-34.12,1712022025468750
-42.27,1712022025484375
-47.99,1712022025500000
-49.76,1712022025515625
-46.72,1712022025531250
-38.96,1712022025546875
-27.6,1712022025562500
-14.44,1712022025578125
-1.41,1712022025593750
9.97,1712022025609375
19.0,1712022025625000
25.72,1712022025640625
30.74,1712022025656250
34.69,1712022025671875
38.03,1712022025687500
40.82,1712022025703125
42.82,1712022025718750
43.77,1712022025734375
43.54,1712022025750000
42.25,1712022025765625
40.14,1712022025781250
37.52,1712022025796875
34.64,1712022025812500
31.78,1712022025828125
29.23,1712022025843750
27.27,1712022025859375
26.07,1712022025875000
25.52,1712022025890625
25.22,1712022025906250
24.46,1712022025921875
22.55,1712022025937500
19.02,1712022025953125
13.96,1712022025968750
7.94,1712022025984375
1.77,1712022026000000
-3.75,1712022026015625
-8.23,1712022026031250
-11.77,1712022026046875
-14.99,1712022026062500
-18.86,1712022026078125
-24.32,1712022026093750
-31.67,1712022026109375
-40.4,1712022026125000
-49.23,1712022026140625
-56.15,1712022026156250
-58.97,1712022026171875
-56.15,1712022026187500
-47.48,1712022026203125
-34.26,1712022026218750
-18.8,1712022026234375
-3.19,1712022026250000
11.1,1712022026265625
23.45,1712022026281250
34.17,1712022026296875
43.98,1712022026312500
53.28,1712022026328125
61.64,1712022026343750
67.86,1712022026359375
70.6,1712022026375000
69.6,1712022026390625
65.39,1712022026406250
58.78,1712022026421875
50.87,1712022026437500
42.81,1712022026453125
35.15,1712022026468750
27.61,1712022026484375
19.12,1712022026500000
8.54,1712022026515625
-4.23,1712022026531250
-18.64,1712022026546875
-34.09,1712022026562500
-49.26,1712022026578125
-61.64,1712022026593750
-68.71,1712022026609375
-67.38,1712022026625000
-55.78,1712022026640625
-38.59,1712022026656250
-20.38,1712022026671875
-4.17,1712022026687500
6.42,1712022026703125
9.48,1712022026718750
6.62,1712022026734375
1.0,1712022026750000
-4.12,1712022026765625
-6.4,1712022026781250
-5.16,1712022026796875
-0.57,1712022026812500
6.58,1712022026828125
14.31,1712022026843750
20.77,1712022026859375
25.94,1712022026875000
30.13,1712022026890625
33.89,1712022026906250
37.32,1712022026921875
40.2,1712022026937500
39.99,1712022026953125
34.66,1712022026968750
22.0,1712022026984375
1.58,1712022027000000
-23.71,1712022027015625
-50.56,1712022027031250
-76.46,1712022027046875
-99.08,1712022027062500
-116.93,1712022027078125
-128.81,1712022027093750
-126.55,1712022027109375
-108.27,1712022027125000
-89.0,1712022027140625
-73.28,1712022027156250
-58.94,1712022027171875
-46.63,1712022027187500
-37.26,1712022027203125
-31.71,1712022027218750
-30.0,1712022027234375
-30.95,1712022027250000
-34.09,1712022027265625
-38.22,1712022027281250
-39.45,1712022027296875
-34.85,1712022027312500
-23.02,1712022027328125
-1.43,1712022027343750
28.03,1712022027359375
59.15,1712022027375000
84.78,1712022027390625
99.34,1712022027406250
101.33,1712022027421875
94.25,1712022027437500
82.45,1712022027453125
69.53,1712022027468750
58.25,1712022027484375
49.33,1712022027500000
42.14,1712022027515625
35.67,1712022027531250
28.49,1712022027546875
19.97,1712022027562500
11.52,1712022027578125
4.48,1712022027593750
-0.49,1712022027609375
-3.19,1712022027625000
-4.54,1712022027640625
-5.69,1712022027656250
-7.5,1712022027671875
-10.72,1712022027687500
-15.69,1712022027703125
-21.81,1712022027718750
-28.48,1712022027734375
-35.16,1712022027750000
-41.16,1712022027765625
-46.1,1712022027781250
-49.63,1712022027796875
-51.39,1712022027812500
-51.32,1712022027828125
-49.47,1712022027843750
-45.79,1712022027859375
-40.33,1712022027875000
-33.68,1712022027890625
-25.88,1712022027906250
-17.66,1712022027921875
-9.9,1712022027937500
-3.14,1712022027953125
2.45,1712022027968750
7.09,1712022027984375
11.09,1712022028000000
14.59,1712022028015625
17.47,1712022028031250
19.53,1712022028046875
20.69,1712022028062500
21.17,1712022028078125
22.05,1712022028093750
24.34,1712022028109375
28.31,1712022028125000
33.39,1712022028140625
38.32,1712022028156250
41.87,1712022028171875
43.34,1712022028187500
43.03,1712022028203125
40.99,1712022028218750
37.52,1712022028234375
32.74,1712022028250000
26.59,1712022028265625
19.06,1712022028281250
10.45,1712022028296875
1.51,1712022028312500
-6.59,1712022028328125
-12.82,1712022028343750
-16.59,1712022028359375
-18.1,1712022028375000
-18.3,1712022028390625
-18.35,1712022028406250
-18.94,1712022028421875
-20.07,1712022028437500
-21.15,1712022028453125
-21.54,1712022028468750
-21.11,1712022028484375
-20.33,1712022028500000
-19.86,1712022028515625
-20.16,1712022028531250
-21.2,1712022028546875
-22.67,1712022028562500
-24.5,1712022028578125
-26.68,1712022028593750
-29.27,1712022028609375
-32.07,1712022028625000
-34.22,1712022028640625
-34.14,1712022028656250
-30.17,1712022028671875
-21.32,1712022028687500
-7.91,1712022028703125
8.49,1712022028718750
25.03,1712022028734375
39.11,1712022028750000
49.1,1712022028765625
54.62,1712022028781250
56.36,1712022028796875
55.41,1712022028812500
52.71,1712022028828125
48.64,1712022028843750
42.97,1712022028859375
35.16,1712022028875000
24.99,1712022028890625
12.92,1712022028906250
0.29,1712022028921875
-10.93,1712022028937500
-18.89,1712022028953125
-22.55,1712022028968750
-22.23,1712022028984375
-19.43,1712022029000000
-16.16,1712022029015625
-13.98,1712022029031250
-13.45,1712022029046875
-14.04,1712022029062500
-14.72,1712022029078125
-14.66,1712022029093750
-13.69,1712022029109375
-12.33,1712022029125000
-11.21,1712022029140625
-10.6,1712022029156250
-10.12,1712022029171875
-9.1,1712022029187500
-7.06,1712022029203125
-4.23,1712022029218750
-1.46,1712022029234375
0.32,1712022029250000
0.66,1712022029265625
-0.09,1712022029281250
-1.04,1712022029296875
-1.23,1712022029312500
-0.32,1712022029328125
1.45,1712022029343750
3.57,1712022029359375
5.79,1712022029375000
8.2,1712022029390625
11.11,1712022029406250
14.63,1712022029421875
18.55,1712022029437500
22.52,1712022029453125
26.42,1712022029468750
30.57,1712022029484375
35.42,1712022029500000
40.67,1712022029515625
45.35,1712022029531250
47.51,1712022029546875
45.22,1712022029562500
37.62,1712022029578125
25.6,1712022029593750
11.44,1712022029609375
-2.11,1712022029625000
-13.01,1712022029640625
-20.59,1712022029656250
-25.27,1712022029671875
-28.0,1712022029687500
-29.51,1712022029703125
-30.05,1712022029718750
-29.53,1712022029734375
-27.97,1712022029750000
-25.56,1712022029765625
-22.71,1712022029781250
-19.95,1712022029796875
-17.55,1712022029812500
-15.62,1712022029828125
-14.09,1712022029843750
-12.9,1712022029859375
-11.96,1712022029875000
-11.3,1712022029890625
-10.86,1712022029906250
-10.52,1712022029921875
-10.11,1712022029937500
-9.43,1712022029953125
-8.42,1712022029968750
-7.17,1712022029984375
-5.86,1712022030000000
-4.76,1712022030015625
-4.11,1712022030031250
-4.04,1712022030046875
-4.53,1712022030062500
-5.45,1712022030078125
-6.52,1712022030093750
-7.46,1712022030109375
-7.93,1712022030125000
-7.67,1712022030140625
-6.57,1712022030156250
-4.68,1712022030171875
-2.29,1712022030187500
0.52,1712022030203125
3.72,1712022030218750
7.41,1712022030234375
11.43,1712022030250000
15.32,1712022030265625
18.6,1712022030281250
20.88,1712022030296875
22.01,1712022030312500
21.62,1712022030328125
19.2,1712022030343750
14.21,1712022030359375
6.61,1712022030375000
-2.6,1712022030390625
-11.37,1712022030406250
-17.42,1712022030421875
-19.33,1712022030437500
-17.74,1712022030453125
-14.76,1712022030468750
-12.35,1712022030484375
-10.96,1712022030500000
-9.06,1712022030515625
-4.49,1712022030531250
3.72,1712022030546875
14.03,1712022030562500
22.99,1712022030578125
27.16,1712022030593750
25.34,1712022030609375
19.35,1712022030625000
12.97,1712022030640625
9.62,1712022030656250
10.46,1712022030671875
13.99,1712022030687500
17.23,1712022030703125
17.81,1712022030718750
15.19,1712022030734375
10.73,1712022030750000
6.58,1712022030765625
4.02,1712022030781250
2.72,1712022030796875
1.09,1712022030812500
-2.52,1712022030828125
-8.61,1712022030843750
-16.04,1712022030859375
-22.54,1712022030875000
-25.93,1712022030890625
-25.21,1712022030906250
-20.83,1712022030921875
-14.1,1712022030937500
-6.36,1712022030953125
1.44,1712022030968750
8.56,1712022030984375
13.97,1712022031000000
16.05,1712022031015625
13.07,1712022031031250
4.31,1712022031046875
-8.95,1712022031062500
-23.38,1712022031078125
-34.71,1712022031093750
-39.41,1712022031109375
-36.53,1712022031125000
-27.8,1712022031140625
-16.35,1712022031156250
-5.0,1712022031171875
4.9,1712022031187500
13.56,1712022031203125
21.67,1712022031218750
29.29,1712022031234375
35.31,1712022031250000
37.97,1712022031265625
36.02,1712022031281250
29.72,1712022031296875
21.0,1712022031312500
12.79,1712022031328125
7.73,1712022031343750
6.88,1712022031359375
9.45,1712022031375000
13.1,1712022031390625
14.96,1712022031406250
12.66,1712022031421875
5.38,1712022031437500
-5.96,1712022031453125
-18.92,1712022031468750
-30.38,1712022031484375
-37.56,1712022031500000
-38.89,1712022031515625
-34.48,1712022031531250
-25.59,1712022031546875
-14.65,1712022031562500
-3.65,1712022031578125
6.27,1712022031593750
14.88,1712022031609375
22.42,1712022031625000
29.05,1712022031640625
34.67,1712022031656250
38.71,1712022031671875
40.72,1712022031687500
40.49,1712022031703125
38.26,1712022031718750
34.45,1712022031734375
29.39,1712022031750000
23.27,1712022031765625
16.07,1712022031781250
7.82,1712022031796875
-1.38,1712022031812500
-11.16,1712022031828125
-20.97,1712022031843750
-30.18,1712022031859375
-38.08,1712022031875000
-43.81,1712022031890625
-46.46,1712022031906250
-45.47,1712022031921875
-41.01,1712022031937500
-34.54,1712022031953125
-27.8,1712022031968750
-22.94,1712022031984375
-21.33,1712022032000000
-22.93,1712022032015625
-26.3,1712022032031250
-29.27,1712022032046875
-30.01,1712022032062500
-27.76,1712022032078125
-23.11,1712022032093750
-17.49,1712022032109375
-12.56,1712022032125000
-9.51,1712022032140625
-8.67,1712022032156250
-9.54,1712022032171875
-10.87,1712022032187500
-10.91,1712022032203125
-7.82,1712022032218750
-0.25,1712022032234375
11.57,1712022032250000
25.54,1712022032265625
37.98,1712022032281250
44.79,1712022032296875
43.04,1712022032312500
32.1,1712022032328125
13.88,1712022032343750
-7.96,1712022032359375
-29.26,1712022032375000
-46.41,1712022032390625
-57.36,1712022032406250
-61.01,1712022032421875
-57.47,1712022032437500
-47.76,1712022032453125
-33.51,1712022032468750
-16.65,1712022032484375
0.82,1712022032500000
17.21,1712022032515625
31.08,1712022032531250
41.47,1712022032546875
48.03,1712022032562500
50.85,1712022032578125
50.63,1712022032593750
48.67,1712022032609375
46.67,1712022032625000
46.1,1712022032640625
47.58,1712022032656250
50.43,1712022032671875
52.93,1712022032687500
53.14,1712022032703125
49.86,1712022032718750
43.25,1712022032734375
34.81,1712022032750000
26.8,1712022032765625
20.64,1712022032781250
16.81,1712022032796875
14.6,1712022032812500
12.57,1712022032828125
9.53,1712022032843750
5.03,1712022032859375
-0.42,1712022032875000
-5.78,1712022032890625
-10.06,1712022032906250
-12.86,1712022032921875
-14.4,1712022032937500
-15.3,1712022032953125
-16.13,1712022032968750
-17.11,1712022032984375
-18.12,1712022033000000
-18.82,1712022033015625
-18.92,1712022033031250
-18.46,1712022033046875
-17.91,1712022033062500
-17.97,1712022033078125
-19.44,1712022033093750
-22.84,1712022033109375
-28.28,1712022033125000
-35.51,1712022033140625
-44.22,1712022033156250
-53.98,1712022033171875
-63.89,1712022033187500
-72.0,1712022033203125
-75.08,1712022033218750
-69.53,1712022033234375
-52.83,1712022033250000
-25.2,1712022033265625
9.93,1712022033281250
46.75,1712022033296875
78.96,1712022033312500
101.86,1712022033328125
113.59,1712022033343750
115.19,1712022033359375
109.35,1712022033375000
99.12,1712022033390625
86.78,1712022033406250
73.95,1712022033421875
61.92,1712022033437500
51.95,1712022033453125
45.19,1712022033468750
42.25,1712022033484375
42.88,1712022033500000
45.86,1712022033515625
49.54,1712022033531250
52.18,1712022033546875
52.88,1712022033562500
51.78,1712022033578125
49.88,1712022033593750
48.48,1712022033609375
48.47,1712022033625000
49.89,1712022033640625
51.77,1712022033656250
53.55,1712022033671875
54.15,1712022033687500
52.79,1712022033703125
49.21,1712022033718750
43.37,1712022033734375
35.2,1712022033750000
24.5,1712022033765625
11.22,1712022033781250
-4.28,1712022033796875
-21.14,1712022033812500
-38.5,1712022033828125
-55.49,1712022033843750
-71.46,1712022033859375
-86.02,1712022033875000
-98.76,1712022033890625
-109.22,1712022033906250
-116.82,1712022033921875
-121.13,1712022033937500
-122.15,1712022033953125
-120.54,1712022033968750
-117.19,1712022033984375
-112.86,1712022034000000
-107.96,1712022034015625
-102.35,1712022034031250
-95.45,1712022034046875
-86.3,1712022034062500
-73.83,1712022034078125
-57.49,1712022034093750
-37.75,1712022034109375
-16.12,1712022034125000
5.23,1712022034140625
23.93,1712022034156250
38.3,1712022034171875
47.77,1712022034187500
53.77,1712022034203125
59.35,1712022034218750
68.02,1712022034234375
81.87,1712022034250000
100.67,1712022034265625
121.34,1712022034281250
138.44,1712022034296875
145.95,1712022034312500
138.81,1712022034328125
115.71,1712022034343750
79.18,1712022034359375
33.76,1712022034375000
-16.49,1712022034390625
-68.7,1712022034406250
-121.37,1712022034421875
-173.96,1712022034437500
-225.79,1712022034453125
-276.28,1712022034468750
-322.79,1712022034484375
-360.84,1712022034500000
-385.72,1712022034515625
-394.44,1712022034531250
-385.46,1712022034546875
-359.17,1712022034562500
-318.67,1712022034578125
-269.32,1712022034593750
-218.87,1712022034609375
-173.32,1712022034625000
-135.09,1712022034640625
-103.62,1712022034656250
-77.22,1712022034671875
-52.95,1712022034687500
-27.63,1712022034703125
0.76,1712022034718750
37.83,1712022034734375
77.89,1712022034750000
109.17,1712022034765625
124.11,1712022034781250
128.07,1712022034796875
127.24,1712022034812500
124.95,1712022034828125
122.81,1712022034843750
117.94,1712022034859375
109.95,1712022034875000
98.57,1712022034890625
85.76,1712022034906250
74.92,1712022034921875
68.98,1712022034937500
68.29,1712022034953125
71.72,1712022034968750
77.46,1712022034984375
83.34,1712022035000000
87.76,1712022035015625
88.61,1712022035031250
85.55,1712022035046875
80.01,1712022035062500
74.09,1712022035078125
68.99,1712022035093750
65.32,1712022035109375
63.6,1712022035125000
64.32,1712022035140625
68.22,1712022035156250
74.96,1712022035171875
84.31,1712022035187500
96.02,1712022035203125
109.8,1712022035218750
124.66,1712022035234375
138.92,1712022035250000
151.14,1712022035265625
160.68,1712022035281250
167.97,1712022035296875
173.25,1712022035312500
177.19,1712022035328125
180.38,1712022035343750
183.81,1712022035359375
188.08,1712022035375000
192.06,1712022035390625
194.05,1712022035406250
193.28,1712022035421875
190.42,1712022035437500
186.19,1712022035453125
180.79,1712022035468750
172.57,1712022035484375
159.02,1712022035500000
137.3,1712022035515625
103.58,1712022035531250
55.76,1712022035546875
-4.36,1712022035562500
-71.31,1712022035578125
-138.49,1712022035593750
-199.88,1712022035609375
-251.9,1712022035625000
-291.79,1712022035640625
-307.94,1712022035656250
-291.53,1712022035671875
-246.61,1712022035687500
-188.78,1712022035703125
-133.52,1712022035718750
-91.85,1712022035734375
-61.79,1712022035750000
-40.65,1712022035765625
-25.12,1712022035781250
-11.56,1712022035796875
0.05,1712022035812500
9.1,1712022035828125
15.55,1712022035843750
20.17,1712022035859375
23.13,1712022035875000
23.82,1712022035890625
20.07,1712022035906250
10.65,1712022035921875
-3.93,1712022035937500
-22.38,1712022035953125
-41.78,1712022035968750
-57.8,1712022035984375
-66.27,1712022036000000
-65.63,1712022036015625
-57.59,1712022036031250
-46.9,1712022036046875
-38.06,1712022036062500
-33.43,1712022036078125
-33.41,1712022036093750
-36.27,1712022036109375
-39.12,1712022036125000
-39.27,1712022036140625
-35.62,1712022036156250
-28.61,1712022036171875
-20.02,1712022036187500
-11.34,1712022036203125
-3.43,1712022036218750
3.09,1712022036234375
7.78,1712022036250000
10.22,1712022036265625
9.96,1712022036281250
6.71,1712022036296875
0.5,1712022036312500
-8.25,1712022036328125
-18.43,1712022036343750
-28.45,1712022036359375
-36.43,1712022036375000
-40.58,1712022036390625
-39.63,1712022036406250
-33.23,1712022036421875
-21.94,1712022036437500
-7.38,1712022036453125
7.97,1712022036468750
21.1,1712022036484375
29.2,1712022036500000
30.8,1712022036515625
26.23,1712022036531250
17.4,1712022036546875
6.87,1712022036562500
-2.4,1712022036578125
-8.18,1712022036593750
-8.56,1712022036609375
-2.78,1712022036625000
7.36,1712022036640625
18.95,1712022036656250
