value,timestamp
-0.0,1712209391000000
-0.0,1712209391015625
-0.0,1712209391031250
-0.0,1712209391046875
-0.0,1712209391062500
-0.0,1712209391078125
-0.0,1712209391093750
-0.0,1712209391109375
-0.0,1712209391125000
-0.0,1712209391140625
0.0,1712209391156250
0.01,1712209391171875
0.01,1712209391187500
-0.0,1712209391203125
-0.03,1712209391218750
-0.05,1712209391234375
-0.05,1712209391250000
0.0,1712209391265625
0.13,1712209391281250
0.36,1712209391296875
0.66,1712209391312500
1.01,1712209391328125
1.37,1712209391343750
1.72,1712209391359375
2.06,1712209391375000
2.4,1712209391390625
2.79,1712209391406250
3.24,1712209391421875
3.8,1712209391437500
4.42,1712209391453125
5.06,1712209391468750
5.66,1712209391484375
6.2,1712209391500000
6.68,1712209391515625
7.15,1712209391531250
7.68,1712209391546875
8.31,1712209391562500
9.14,1712209391578125
10.09,1712209391593750
11.04,1712209391609375
11.88,1712209391625000
12.56,1712209391640625
13.14,1712209391656250
13.76,1712209391671875
14.65,1712209391687500
15.96,1712209391703125
17.91,1712209391718750
20.32,1712209391734375
22.9,1712209391750000
25.38,1712209391765625
27.58,1712209391781250
29.57,1712209391796875
31.68,1712209391812500
34.32,1712209391828125
37.81,1712209391843750
42.54,1712209391859375
48.15,1712209391875000
54.1,1712209391890625
59.83,1712209391906250
64.97,1712209391921875
69.58,1712209391937500
74.14,1712209391953125
79.34,1712209391968750
85.71,1712209391984375
93.76,1712209392000000
103.0,1712209392015625
112.62,1712209392031250
121.73,1712209392046875
129.77,1712209392062500
136.75,1712209392078125
143.3,1712209392093750
150.75,1712209392109375
157.77,1712209392125000
166.64,1712209392140625
177.95,1712209392156250
191.79,1712209392171875
206.97,1712209392187500
220.57,1712209392203125
228.25,1712209392218750
225.36,1712209392234375
208.53,1712209392250000
176.87,1712209392265625
132.76,1712209392281250
80.05,1712209392296875
23.07,1712209392312500
-34.94,1712209392328125
-92.44,1712209392343750
-149.16,1712209392359375
-205.23,1712209392375000
-260.37,1712209392390625
-313.74,1712209392406250
-363.87,1712209392421875
-409.83,1712209392437500
-450.91,1712209392453125
-486.5,1712209392468750
-515.74,1712209392484375
-537.23,1712209392500000
-549.22,1712209392515625
-549.96,1712209392531250
-538.37,1712209392546875
-514.21,1712209392562500
-478.67,1712209392578125
-433.88,1712209392593750
-382.45,1712209392609375
-327.02,1712209392625000
-269.84,1712209392640625
-212.63,1712209392656250
-156.66,1712209392671875
-102.95,1712209392687500
-52.37,1712209392703125
-5.9,1712209392718750
35.58,1712209392734375
71.43,1712209392750000
101.35,1712209392765625
125.5,1712209392781250
144.38,1712209392796875
158.69,1712209392812500
169.15,1712209392828125
176.37,1712209392843750
180.75,1712209392859375
182.57,1712209392875000
182.07,1712209392890625
179.51,1712209392906250
175.23,1712209392921875
169.65,1712209392937500
163.18,1712209392953125
156.15,1712209392968750
148.81,1712209392984375
141.3,1712209393000000
133.69,1712209393015625
126.02,1712209393031250
118.33,1712209393046875
110.69,1712209393062500
103.16,1712209393078125
95.8,1712209393093750
88.68,1712209393109375
81.83,1712209393125000
75.25,1712209393140625
68.95,1712209393156250
62.95,1712209393171875
57.25,1712209393187500
51.86,1712209393203125
46.78,1712209393218750
42.03,1712209393234375
37.59,1712209393250000
33.45,1712209393265625
29.61,1712209393281250
26.07,1712209393296875
22.81,1712209393312500
19.83,1712209393328125
17.11,1712209393343750
14.67,1712209393359375
12.48,1712209393375000
10.54,1712209393390625
8.83,1712209393406250
7.35,1712209393421875
6.07,1712209393437500
4.97,1712209393453125
4.05,1712209393468750
3.27,1712209393484375
2.62,1712209393500000
2.09,1712209393515625
1.65,1712209393531250
1.3,1712209393546875
1.01,1712209393562500
0.79,1712209393578125
0.61,1712209393593750
0.47,1712209393609375
0.37,1712209393625000
0.28,1712209393640625
0.22,1712209393656250
0.18,1712209393671875
0.15,1712209393687500
0.13,1712209393703125
0.12,1712209393718750
0.13,1712209393734375
0.14,1712209393750000
0.15,1712209393765625
0.18,1712209393781250
0.2,1712209393796875
0.24,1712209393812500
0.28,1712209393828125
0.32,1712209393843750
0.36,1712209393859375
0.41,1712209393875000
0.45,1712209393890625
0.5,1712209393906250
0.54,1712209393921875
0.6,1712209393937500
0.65,1712209393953125
0.7,1712209393968750
0.76,1712209393984375
0.83,1712209394000000
0.9,1712209394015625
0.98,1712209394031250
1.06,1712209394046875
1.16,1712209394062500
1.26,1712209394078125
1.38,1712209394093750
1.52,1712209394109375
1.67,1712209394125000
1.83,1712209394140625
2.02,1712209394156250
2.23,1712209394171875
2.46,1712209394187500
2.71,1712209394203125
2.99,1712209394218750
3.3,1712209394234375
3.64,1712209394250000
4.01,1712209394265625
4.42,1712209394281250
4.86,1712209394296875
5.34,1712209394312500
5.85,1712209394328125
6.41,1712209394343750
7.0,1712209394359375
7.64,1712209394375000
8.32,1712209394390625
9.04,1712209394406250
9.81,1712209394421875
10.62,1712209394437500
11.48,1712209394453125
12.38,1712209394468750
13.32,1712209394484375
14.33,1712209394500000
15.4,1712209394515625
16.53,1712209394531250
17.72,1712209394546875
18.96,1712209394562500
20.24,1712209394578125
21.5,1712209394593750
22.68,1712209394609375
23.69,1712209394625000
24.43,1712209394640625
24.77,1712209394656250
24.59,1712209394671875
23.78,1712209394687500
22.27,1712209394703125
20.02,1712209394718750
17.06,1712209394734375
13.49,1712209394750000
9.38,1712209394765625
4.94,1712209394781250
0.39,1712209394796875
-4.08,1712209394812500
-8.24,1712209394828125
-11.91,1712209394843750
-14.94,1712209394859375
-17.25,1712209394875000
-18.77,1712209394890625
-19.54,1712209394906250
-19.6,1712209394921875
-19.1,1712209394937500
-18.17,1712209394953125
-16.97,1712209394968750
-15.62,1712209394984375
-14.19,1712209395000000
-12.75,1712209395015625
-11.26,1712209395031250
-9.72,1712209395046875
-8.1,1712209395062500
-6.43,1712209395078125
-4.76,1712209395093750
-3.12,1712209395109375
-1.52,1712209395125000
0.07,1712209395140625
1.72,1712209395156250
3.47,1712209395171875
5.42,1712209395187500
7.6,1712209395203125
9.87,1712209395218750
12.1,1712209395234375
14.2,1712209395250000
16.13,1712209395265625
17.95,1712209395281250
19.78,1712209395296875
21.84,1712209395312500
24.28,1712209395328125
27.27,1712209395343750
30.47,1712209395359375
33.62,1712209395375000
36.45,1712209395390625
38.88,1712209395406250
40.99,1712209395421875
43.06,1712209395437500
45.45,1712209395453125
48.51,1712209395468750
52.44,1712209395484375
56.67,1712209395500000
60.58,1712209395515625
63.64,1712209395531250
65.59,1712209395546875
66.52,1712209395562500
66.9,1712209395578125
67.39,1712209395593750
68.59,1712209395609375
70.81,1712209395625000
73.19,1712209395640625
74.72,1712209395656250
74.4,1712209395671875
71.5,1712209395687500
65.75,1712209395703125
57.14,1712209395718750
45.58,1712209395734375
30.16,1712209395750000
14.03,1712209395765625
-2.39,1712209395781250
-19.43,1712209395796875
-37.91,1712209395812500
-58.8,1712209395828125
-83.02,1712209395843750
-110.8,1712209395859375
-141.04,1712209395875000
-170.89,1712209395890625
-195.94,1712209395906250
-212.0,1712209395921875
-215.82,1712209395937500
-206.51,1712209395953125
-186.1,1712209395968750
-158.83,1712209395984375
-129.62,1712209396000000
-102.37,1712209396015625
-79.07,1712209396031250
-59.88,1712209396046875
-44.54,1712209396062500
-32.59,1712209396078125
-23.99,1712209396093750
-18.9,1712209396109375
-17.26,1712209396125000
-18.4,1712209396140625
-21.02,1712209396156250
-23.58,1712209396171875
-24.79,1712209396187500
-24.36,1712209396203125
-22.72,1712209396218750
-20.93,1712209396234375
-20.12,1712209396250000
-21.14,1712209396265625
-24.1,1712209396281250
-28.36,1712209396296875
-32.78,1712209396312500
-36.24,1712209396328125
-38.28,1712209396343750
-39.14,1712209396359375
-39.74,1712209396375000
-41.28,1712209396390625
-44.98,1712209396406250
-51.79,1712209396421875
-62.14,1712209396437500
-75.73,1712209396453125
-91.16,1712209396468750
-105.78,1712209396484375
-115.82,1712209396500000
-117.26,1712209396515625
-107.05,1712209396531250
-84.38,1712209396546875
-51.21,1712209396562500
-11.83,1712209396578125
28.38,1712209396593750
64.57,1712209396609375
93.44,1712209396625000
113.67,1712209396640625
125.41,1712209396656250
129.71,1712209396671875
127.91,1712209396687500
121.51,1712209396703125
112.17,1712209396718750
101.67,1712209396734375
91.75,1712209396750000
83.78,1712209396765625
78.46,1712209396781250
75.7,1712209396796875
74.83,1712209396812500
74.86,1712209396828125
74.98,1712209396843750
74.76,1712209396859375
74.24,1712209396875000
73.8,1712209396890625
73.83,1712209396906250
74.41,1712209396921875
75.12,1712209396937500
75.05,1712209396953125
73.09,1712209396968750
68.33,1712209396984375
60.48,1712209397000000
49.96,1712209397015625
37.84,1712209397031250
25.48,1712209397046875
14.13,1712209397062500
4.49,1712209397078125
-3.34,1712209397093750
-9.88,1712209397109375
-15.96,1712209397125000
-22.33,1712209397140625
-29.34,1712209397156250
-36.8,1712209397171875
-44.07,1712209397187500
-50.45,1712209397203125
-55.51,1712209397218750
-59.32,1712209397234375
-62.51,1712209397250000
-66.06,1712209397265625
-71.07,1712209397281250
-78.58,1712209397296875
-89.15,1712209397312500
-102.47,1712209397328125
-116.93,1712209397343750
-129.5,1712209397359375
-136.23,1712209397375000
-133.43,1712209397390625
-118.96,1712209397406250
-93.26,1712209397421875
-59.38,1712209397437500
-22.06,1712209397453125
13.73,1712209397468750
44.13,1712209397484375
67.05,1712209397500000
82.08,1712209397515625
89.88,1712209397531250
91.49,1712209397546875
88.04,1712209397562500
80.64,1712209397578125
70.54,1712209397593750
59.21,1712209397609375
48.25,1712209397625000
39.12,1712209397640625
32.88,1712209397656250
29.94,1712209397671875
30.1,1712209397687500
32.62,1712209397703125
36.56,1712209397718750
40.98,1712209397734375
45.13,1712209397750000
48.41,1712209397765625
50.36,1712209397781250
50.58,1712209397796875
48.82,1712209397812500
45.06,1712209397828125
39.53,1712209397843750
32.6,1712209397859375
24.66,1712209397875000
15.92,1712209397890625
6.42,1712209397906250
-3.83,1712209397921875
-14.64,1712209397937500
-25.54,1712209397953125
-35.83,1712209397968750
-44.81,1712209397984375
-52.06,1712209398000000
-57.54,1712209398015625
-61.78,1712209398031250
-65.65,1712209398046875
-70.28,1712209398062500
-76.8,1712209398078125
-85.85,1712209398093750
-97.13,1712209398109375
-108.98,1712209398125000
-118.36,1712209398140625
-121.58,1712209398156250
-115.4,1712209398171875
-98.36,1712209398187500
-71.45,1712209398203125
-38.03,1712209398218750
-2.7,1712209398234375
30.01,1712209398250000
56.83,1712209398265625
76.22,1712209398281250
88.11,1712209398296875
93.27,1712209398312500
92.75,1712209398328125
87.66,1712209398343750
79.23,1712209398359375
68.9,1712209398375000
58.29,1712209398390625
48.96,1712209398406250
42.07,1712209398421875
38.18,1712209398437500
37.14,1712209398453125
38.35,1712209398468750
41.01,1712209398484375
44.39,1712209398500000
47.99,1712209398515625
51.4,1712209398531250
54.24,1712209398546875
55.97,1712209398562500
55.93,1712209398578125
53.48,1712209398593750
48.35,1712209398609375
40.77,1712209398625000
31.44,1712209398640625
21.4,1712209398656250
11.53,1712209398671875
2.32,1712209398687500
-6.31,1712209398703125
-14.85,1712209398718750
-23.85,1712209398734375
-33.54,1712209398750000
-43.65,1712209398765625
-53.45,1712209398781250
-62.0,1712209398796875
-68.68,1712209398812500
-73.37,1712209398828125
-76.72,1712209398843750
-80.01,1712209398859375
-84.85,1712209398875000
-92.71,1712209398890625
-104.19,1712209398906250
-118.38,1712209398921875
-132.62,1712209398937500
-142.88,1712209398953125
-144.81,1712209398968750
-135.26,1712209398984375
-113.48,1712209399000000
-81.56,1712209399015625
-43.88,1712209399031250
-5.7,1712209399046875
28.36,1712209399062500
55.39,1712209399078125
74.34,1712209399093750
85.68,1712209399109375
90.58,1712209399125000
90.36,1712209399140625
86.31,1712209399156250
79.72,1712209399171875
71.94,1712209399187500
64.34,1712209399203125
58.05,1712209399218750
53.69,1712209399234375
51.34,1712209399250000
50.51,1712209399265625
50.56,1712209399281250
50.99,1712209399296875
51.69,1712209399312500
52.88,1712209399328125
54.77,1712209399343750
57.25,1712209399359375
59.59,1712209399375000
60.61,1712209399390625
59.07,1712209399406250
54.21,1712209399421875
46.13,1712209399437500
35.82,1712209399453125
24.68,1712209399468750
13.95,1712209399484375
4.23,1712209399500000
-4.64,1712209399515625
-13.28,1712209399531250
-22.32,1712209399546875
-31.92,1712209399562500
-41.71,1712209399578125
-50.96,1712209399593750
-58.96,1712209399609375
-65.37,1712209399625000
-70.35,1712209399640625
-74.61,1712209399656250
-79.17,1712209399671875
-85.3,1712209399687500
-94.17,1712209399703125
-106.31,1712209399718750
-121.07,1712209399734375
-136.14,1712209399750000
-147.74,1712209399765625
-151.51,1712209399781250
-143.94,1712209399796875
-123.82,1712209399812500
-92.85,1712209399828125
-55.2,1712209399843750
-16.19,1712209399859375
19.32,1712209399875000
48.11,1712209399890625
68.89,1712209399906250
81.92,1712209399921875
88.26,1712209399937500
89.2,1712209399953125
86.03,1712209399968750
80.13,1712209399984375
72.97,1712209400000000
66.0,1712209400015625
60.43,1712209400031250
56.92,1712209400046875
55.47,1712209400062500
55.58,1712209400078125
56.54,1712209400093750
57.76,1712209400109375
59.01,1712209400125000
60.37,1712209400140625
62.0,1712209400156250
63.9,1712209400171875
65.63,1712209400187500
66.35,1712209400203125
65.06,1712209400218750
60.98,1712209400234375
53.88,1712209400250000
44.27,1712209400265625
33.28,1712209400281250
22.19,1712209400296875
12.03,1712209400312500
3.14,1712209400328125
-4.83,1712209400343750
-12.68,1712209400359375
-21.18,1712209400375000
-30.57,1712209400390625
-40.42,1712209400406250
-49.8,1712209400421875
-57.69,1712209400437500
-63.48,1712209400453125
-67.36,1712209400468750
-70.28,1712209400484375
-73.77,1712209400500000
-79.5,1712209400515625
-88.85,1712209400531250
-102.27,1712209400546875
-118.75,1712209400562500
-135.61,1712209400578125
-148.7,1712209400593750
-153.47,1712209400609375
-146.33,1712209400625000
-126.05,1712209400640625
-94.37,1712209400656250
-55.6,1712209400671875
-15.26,1712209400687500
21.56,1712209400703125
51.46,1712209400718750
73.12,1712209400734375
86.85,1712209400750000
93.78,1712209400765625
95.23,1712209400781250
92.4,1712209400796875
86.49,1712209400812500
78.89,1712209400828125
71.17,1712209400843750
64.85,1712209400859375
61.01,1712209400875000
59.99,1712209400890625
61.36,1712209400906250
64.11,1712209400921875
67.11,1712209400937500
69.57,1712209400953125
71.25,1712209400968750
72.45,1712209400984375
73.63,1712209401000000
74.93,1712209401015625
75.94,1712209401031250
75.66,1712209401046875
72.92,1712209401062500
66.87,1712209401078125
57.48,1712209401093750
45.66,1712209401109375
32.93,1712209401125000
20.98,1712209401140625
10.98,1712209401156250
3.24,1712209401171875
-2.85,1712209401187500
-8.45,1712209401203125
-14.72,1712209401218750
-22.29,1712209401234375
-31.03,1712209401250000
-40.13,1712209401265625
-48.52,1712209401281250
-55.39,1712209401296875
-60.57,1712209401312500
-64.62,1712209401328125
-68.68,1712209401343750
-74.22,1712209401359375
-82.61,1712209401375000
-94.69,1712209401390625
-110.21,1712209401406250
-127.41,1712209401421875
-142.91,1712209401437500
-152.29,1712209401453125
-151.32,1712209401468750
-137.42,1712209401484375
-110.77,1712209401500000
-74.52,1712209401515625
-33.94,1712209401531250
5.3,1712209401546875
38.61,1712209401562500
63.44,1712209401578125
79.35,1712209401593750
87.34,1712209401609375
89.05,1712209401625000
86.14,1712209401640625
80.11,1712209401656250
72.23,1712209401671875
63.78,1712209401687500
55.88,1712209401703125
49.53,1712209401718750
45.39,1712209401734375
43.8,1712209401750000
44.64,1712209401765625
47.51,1712209401781250
51.77,1712209401796875
56.62,1712209401812500
61.32,1712209401828125
65.13,1712209401843750
67.36,1712209401859375
67.44,1712209401875000
64.96,1712209401890625
59.82,1712209401906250
52.33,1712209401921875
43.21,1712209401937500
33.33,1712209401953125
23.48,1712209401968750
14.07,1712209401984375
5.09,1712209402000000
-3.76,1712209402015625
-12.76,1712209402031250
-21.88,1712209402046875
-30.72,1712209402062500
-38.68,1712209402078125
-45.29,1712209402093750
-50.47,1712209402109375
-54.73,1712209402125000
-59.06,1712209402140625
-64.71,1712209402156250
-72.85,1712209402171875
-84.03,1712209402187500
-97.63,1712209402203125
-111.57,1712209402218750
-122.47,1712209402234375
-126.43,1712209402250000
-120.19,1712209402265625
-102.41,1712209402281250
-74.27,1712209402296875
-39.31,1712209402312500
-2.34,1712209402328125
31.91,1712209402343750
60.04,1712209402359375
80.34,1712209402375000
92.68,1712209402390625
97.86,1712209402406250
97.08,1712209402421875
91.67,1712209402437500
83.1,1712209402453125
73.0,1712209402468750
63.09,1712209402484375
54.91,1712209402500000
49.52,1712209402515625
47.27,1712209402531250
47.77,1712209402546875
50.15,1712209402562500
53.42,1712209402578125
56.82,1712209402593750
59.96,1712209402609375
62.78,1712209402625000
65.27,1712209402640625
67.11,1712209402656250
67.66,1712209402671875
65.97,1712209402687500
61.32,1712209402703125
53.54,1712209402718750
43.3,1712209402734375
31.88,1712209402750000
20.68,1712209402765625
10.72,1712209402781250
2.17,1712209402796875
-5.56,1712209402812500
-13.43,1712209402828125
-22.2,1712209402843750
-31.96,1712209402859375
-42.12,1712209402875000
-51.65,1712209402890625
-59.62,1712209402906250
-65.6,1712209402921875
-69.93,1712209402937500
-73.65,1712209402953125
-78.21,1712209402968750
-85.19,1712209402984375
-95.75,1712209403000000
-110.1,1712209403015625
-126.96,1712209403031250
-143.3,1712209403046875
-154.76,1712209403062500
-156.73,1712209403078125
-145.85,1712209403093750
-121.43,1712209403109375
-85.9,1712209403125000
-44.31,1712209403140625
-2.72,1712209403156250
33.59,1712209403171875
61.36,1712209403187500
79.81,1712209403203125
89.94,1712209403218750
93.65,1712209403234375
92.82,1712209403250000
88.96,1712209403265625
83.26,1712209403281250
76.8,1712209403296875
70.71,1712209403312500
66.02,1712209403328125
63.44,1712209403343750
63.06,1712209403359375
64.36,1712209403375000
66.43,1712209403390625
68.35,1712209403406250
69.6,1712209403421875
70.2,1712209403437500
70.62,1712209403453125
71.38,1712209403468750
72.65,1712209403484375
73.98,1712209403500000
74.38,1712209403515625
72.62,1712209403531250
67.73,1712209403546875
59.46,1712209403562500
48.34,1712209403578125
35.67,1712209403593750
23.02,1712209403609375
11.77,1712209403625000
2.65,1712209403640625
-4.39,1712209403656250
-10.12,1712209403671875
-15.63,1712209403687500
-21.84,1712209403703125
-29.15,1712209403718750
-37.27,1712209403734375
-45.41,1712209403750000
-52.74,1712209403765625
-58.76,1712209403781250
-63.56,1712209403796875
-67.79,1712209403812500
-72.47,1712209403828125
-78.77,1712209403843750
-87.75,1712209403859375
-99.91,1712209403875000
-114.78,1712209403890625
-130.33,1712209403906250
-143.04,1712209403921875
-148.57,1712209403937500
-143.0,1712209403953125
-124.49,1712209403968750
-94.13,1712209403984375
-55.9,1712209404000000
-15.33,1712209404015625
22.18,1712209404031250
52.92,1712209404046875
75.31,1712209404062500
89.51,1712209404078125
96.6,1712209404093750
97.78,1712209404109375
94.2,1712209404125000
87.06,1712209404140625
77.88,1712209404156250
68.41,1712209404171875
60.25,1712209404187500
54.52,1712209404203125
51.52,1712209404218750
50.8,1712209404234375
51.44,1712209404250000
52.51,1712209404265625
53.46,1712209404281250
54.22,1712209404296875
55.1,1712209404312500
56.46,1712209404328125
58.34,1712209404343750
60.24,1712209404359375
61.19,1712209404375000
59.99,1712209404390625
55.81,1712209404406250
48.55,1712209404421875
38.95,1712209404437500
28.35,1712209404453125
18.14,1712209404468750
9.23,1712209404484375
1.73,1712209404500000
-4.96,1712209404515625
-11.8,1712209404531250
-19.54,1712209404546875
-28.35,1712209404562500
-37.68,1712209404578125
-46.54,1712209404593750
-53.92,1712209404609375
-59.3,1712209404625000
-62.91,1712209404640625
-65.71,1712209404656250
-69.1,1712209404671875
-74.64,1712209404687500
-83.51,1712209404703125
-96.06,1712209404718750
-111.36,1712209404734375
-126.89,1712209404750000
-138.88,1712209404765625
-143.13,1712209404781250
-136.37,1712209404796875
-117.53,1712209404812500
-88.25,1712209404828125
-52.55,1712209404843750
-15.61,1712209404859375
17.85,1712209404875000
44.6,1712209404890625
63.4,1712209404906250
74.53,1712209404921875
79.14,1712209404937500
78.48,1712209404953125
73.73,1712209404968750
66.02,1712209404984375
56.55,1712209405000000
46.63,1712209405015625
37.61,1712209405031250
30.65,1712209405046875
26.49,1712209405062500
25.37,1712209405078125
26.94,1712209405093750
30.38,1712209405109375
34.62,1712209405125000
38.6,1712209405140625
41.57,1712209405156250
43.16,1712209405171875
43.4,1712209405187500
42.47,1712209405203125
40.46,1712209405218750
37.13,1712209405234375
32.02,1712209405250000
24.62,1712209405265625
14.74,1712209405281250
2.78,1712209405296875
-10.29,1712209405312500
-23.24,1712209405328125
-34.91,1712209405343750
-44.62,1712209405359375
-52.37,1712209405375000
-58.67,1712209405390625
-64.33,1712209405406250
-70.3,1712209405421875
-77.48,1712209405437500
-86.66,1712209405453125
-98.2,1712209405468750
-111.53,1712209405484375
-124.7,1712209405500000
-134.44,1712209405515625
-136.79,1712209405531250
-128.53,1712209405546875
-108.48,1712209405562500
-78.21,1712209405578125
-41.84,1712209405593750
-4.61,1712209405609375
28.64,1712209405625000
54.78,1712209405640625
72.75,1712209405656250
83.16,1712209405671875
87.38,1712209405687500
86.87,1712209405703125
82.85,1712209405718750
76.33,1712209405734375
68.34,1712209405750000
59.97,1712209405765625
52.35,1712209405781250
46.43,1712209405796875
42.79,1712209405812500
41.52,1712209405828125
42.25,1712209405843750
44.24,1712209405859375
46.57,1712209405875000
48.45,1712209405890625
49.38,1712209405906250
49.23,1712209405921875
48.15,1712209405937500
46.36,1712209405953125
43.93,1712209405968750
40.6,1712209405984375
35.86,1712209406000000
29.07,1712209406015625
19.84,1712209406031250
8.25,1712209406046875
-5.01,1712209406062500
-18.75,1712209406078125
-31.62,1712209406093750
-42.56,1712209406109375
-51.19,1712209406125000
-57.83,1712209406140625
-63.38,1712209406156250
-68.96,1712209406171875
-75.61,1712209406187500
-84.08,1712209406203125
-94.83,1712209406218750
-107.67,1712209406234375
-121.45,1712209406250000
-133.77,1712209406265625
-141.07,1712209406281250
-139.47,1712209406296875
-126.15,1712209406312500
-100.66,1712209406328125
-65.49,1712209406343750
-25.54,1712209406359375
13.52,1712209406375000
46.85,1712209406390625
71.74,1712209406406250
87.79,1712209406421875
96.17,1712209406437500
98.69,1712209406453125
96.95,1712209406468750
92.14,1712209406484375
85.17,1712209406500000
76.9,1712209406515625
68.38,1712209406531250
60.7,1712209406546875
54.76,1712209406562500
51.03,1712209406578125
49.49,1712209406593750
49.61,1712209406609375
50.65,1712209406625000
51.89,1712209406640625
52.8,1712209406656250
53.17,1712209406671875
52.93,1712209406687500
52.05,1712209406703125
50.36,1712209406718750
47.45,1712209406734375
42.86,1712209406750000
36.2,1712209406765625
27.34,1712209406781250
16.56,1712209406796875
4.51,1712209406812500
-7.92,1712209406828125
-19.78,1712209406843750
-30.37,1712209406859375
-39.32,1712209406875000
-46.74,1712209406890625
-53.09,1712209406906250
-59.01,1712209406921875
-65.34,1712209406937500
-73.0,1712209406953125
-82.92,1712209406968750
-95.57,1712209406984375
-110.3,1712209407000000
-124.9,1712209407015625
-135.62,1712209407031250
-138.14,1712209407046875
-129.18,1712209407062500
-107.92,1712209407078125
-76.68,1712209407093750
-40.33,1712209407109375
-4.59,1712209407125000
25.72,1712209407140625
48.06,1712209407156250
62.18,1712209407171875
69.37,1712209407187500
71.37,1712209407203125
69.51,1712209407218750
64.65,1712209407234375
57.44,1712209407250000
48.84,1712209407265625
40.18,1712209407281250
33.02,1712209407296875
28.6,1712209407312500
27.42,1712209407328125
29.03,1712209407343750
32.19,1712209407359375
35.49,1712209407375000
37.82,1712209407390625
38.87,1712209407406250
39.01,1712209407421875
38.92,1712209407437500
39.01,1712209407453125
38.88,1712209407468750
37.42,1712209407484375
33.1,1712209407500000
24.8,1712209407515625
12.37,1712209407531250
-3.05,1712209407546875
-19.45,1712209407562500
-34.63,1712209407578125
-46.97,1712209407593750
-56.01,1712209407609375
-62.43,1712209407625000
-67.77,1712209407640625
-73.83,1712209407656250
-82.17,1712209407671875
-93.69,1712209407687500
-108.2,1712209407703125
-124.12,1712209407718750
-138.44,1712209407734375
-147.13,1712209407750000
-146.18,1712209407765625
-133.03,1712209407781250
-107.6,1712209407796875
-72.68,1712209407812500
-33.15,1712209407828125
5.52,1712209407843750
38.78,1712209407859375
64.11,1712209407875000
80.99,1712209407890625
90.45,1712209407906250
94.07,1712209407921875
93.38,1712209407937500
89.62,1712209407953125
83.8,1712209407968750
76.98,1712209407984375
70.17,1712209408000000
64.38,1712209408015625
60.34,1712209408031250
58.39,1712209408046875
58.4,1712209408062500
59.79,1712209408078125
61.78,1712209408093750
63.51,1712209408109375
64.35,1712209408125000
64.02,1712209408140625
62.62,1712209408156250
60.42,1712209408171875
57.64,1712209408187500
54.18,1712209408203125
49.57,1712209408218750
43.12,1712209408234375
34.27,1712209408250000
22.94,1712209408265625
9.64,1712209408281250
-4.54,1712209408296875
-18.3,1712209408312500
-30.57,1712209408328125
-40.72,1712209408343750
-48.67,1712209408359375
-54.81,1712209408375000
-59.91,1712209408390625
-65.06,1712209408406250
-71.56,1712209408421875
-80.63,1712209408437500
-92.87,1712209408453125
-107.56,1712209408468750
-122.22,1712209408484375
-132.86,1712209408500000
-134.93,1712209408515625
-124.92,1712209408531250
-101.78,1712209408546875
-67.67,1712209408562500
-27.43,1712209408578125
12.87,1712209408593750
47.82,1712209408609375
74.0,1712209408625000
90.54,1712209408640625
98.57,1712209408656250
100.24,1712209408671875
97.71,1712209408687500
92.69,1712209408703125
86.43,1712209408718750
79.91,1712209408734375
73.98,1712209408750000
69.25,1712209408765625
65.91,1712209408781250
63.59,1712209408796875
61.62,1712209408812500
59.41,1712209408828125
56.83,1712209408843750
54.29,1712209408859375
52.52,1712209408875000
52.11,1712209408890625
53.12,1712209408906250
54.92,1712209408921875
56.41,1712209408937500
56.33,1712209408953125
53.72,1712209408968750
48.09,1712209408984375
39.53,1712209409000000
28.49,1712209409015625
15.63,1712209409031250
1.73,1712209409046875
-12.42,1712209409062500
-26.0,1712209409078125
-38.22,1712209409093750
-48.39,1712209409109375
-56.14,1712209409125000
-61.6,1712209409140625
-65.38,1712209409156250
-68.54,1712209409171875
-72.31,1712209409187500
-77.88,1712209409203125
-86.14,1712209409218750
-97.31,1712209409234375
-110.65,1712209409250000
-124.14,1712209409265625
-134.51,1712209409281250
-137.91,1712209409296875
-131.05,1712209409312500
-112.39,1712209409328125
-83.03,1712209409343750
-46.65,1712209409359375
-8.42,1712209409375000
26.53,1712209409390625
54.47,1712209409406250
73.72,1712209409421875
84.47,1712209409437500
88.04,1712209409453125
86.17,1712209409468750
80.46,1712209409484375
72.37,1712209409500000
63.23,1712209409515625
54.36,1712209409531250
46.89,1712209409546875
41.58,1712209409562500
38.66,1712209409578125
37.83,1712209409593750
38.48,1712209409609375
39.93,1712209409625000
41.7,1712209409640625
43.56,1712209409656250
45.36,1712209409671875
46.86,1712209409687500
47.5,1712209409703125
46.42,1712209409718750
42.78,1712209409734375
36.24,1712209409750000
27.19,1712209409765625
16.91,1712209409781250
7.04,1712209409796875
-1.04,1712209409812500
-6.82,1712209409828125
-10.81,1712209409843750
-14.36,1712209409859375
-19.12,1712209409875000
-26.55,1712209409890625
-37.57,1712209409906250
-52.34,1712209409921875
-70.01,1712209409937500
-88.57,1712209409953125
-104.89,1712209409968750
-115.25,1712209409984375
-116.3,1712209410000000
-106.18,1712209410015625
-85.25,1712209410031250
-56.14,1712209410046875
-23.01,1712209410062500
9.65,1712209410078125
38.14,1712209410093750
60.1,1712209410109375
74.59,1712209410125000
81.71,1712209410140625
82.21,1712209410156250
77.18,1712209410171875
68.0,1712209410187500
56.32,1712209410203125
43.91,1712209410218750
32.46,1712209410234375
23.26,1712209410250000
16.99,1712209410265625
13.66,1712209410281250
12.75,1712209410296875
13.5,1712209410312500
15.24,1712209410328125
17.5,1712209410343750
19.96,1712209410359375
22.38,1712209410375000
24.28,1712209410390625
25.04,1712209410406250
23.9,1712209410421875
20.28,1712209410437500
13.98,1712209410453125
5.32,1712209410468750
-4.95,1712209410484375
-15.86,1712209410500000
-26.46,1712209410515625
-36.15,1712209410531250
-44.84,1712209410546875
-52.95,1712209410562500
-61.35,1712209410578125
-70.99,1712209410593750
-82.47,1712209410609375
-95.5,1712209410625000
-108.57,1712209410640625
-118.9,1712209410656250
-123.14,1712209410671875
-118.31,1712209410687500
-102.96,1712209410703125
-77.94,1712209410718750
-46.27,1712209410734375
-12.3,1712209410750000
19.58,1712209410765625
46.12,1712209410781250
65.75,1712209410796875
78.35,1712209410812500
84.69,1712209410828125
85.78,1712209410843750
82.52,1712209410859375
75.85,1712209410875000
66.93,1712209410890625
57.25,1712209410906250
48.31,1712209410921875
41.36,1712209410937500
36.9,1712209410953125
34.7,1712209410968750
33.95,1712209410984375
33.74,1712209411000000
33.53,1712209411015625
33.28,1712209411031250
33.32,1712209411046875
33.95,1712209411062500
35.07,1712209411078125
35.91,1712209411093750
35.31,1712209411109375
32.08,1712209411125000
25.52,1712209411140625
15.76,1712209411156250
3.75,1712209411171875
-9.1,1712209411187500
-21.39,1712209411203125
-32.09,1712209411218750
-40.87,1712209411234375
-48.07,1712209411250000
-54.58,1712209411265625
-61.61,1712209411281250
-70.35,1712209411296875
-81.43,1712209411312500
-94.36,1712209411328125
-107.16,1712209411343750
-116.59,1712209411359375
-118.91,1712209411375000
-111.17,1712209411390625
-92.44,1712209411406250
-64.36,1712209411421875
-30.74,1712209411437500
3.61,1712209411453125
34.33,1712209411468750
58.67,1712209411484375
75.71,1712209411500000
86.0,1712209411515625
90.71,1712209411531250
90.96,1712209411546875
87.59,1712209411562500
81.24,1712209411578125
72.69,1712209411593750
63.09,1712209411609375
53.86,1712209411625000
46.36,1712209411640625
41.47,1712209411656250
39.28,1712209411671875
39.13,1712209411687500
40.0,1712209411703125
40.98,1712209411718750
41.73,1712209411734375
42.47,1712209411750000
43.67,1712209411765625
45.55,1712209411781250
47.68,1712209411796875
48.9,1712209411812500
47.71,1712209411828125
42.85,1712209411843750
33.87,1712209411859375
21.46,1712209411875000
7.2,1712209411890625
-6.9,1712209411906250
-19.15,1712209411921875
-28.72,1712209411937500
-35.91,1712209411953125
-41.97,1712209411968750
-48.66,1712209411984375
-57.7,1712209412000000
-70.27,1712209412015625
-86.58,1712209412031250
-105.56,1712209412046875
-124.78,1712209412062500
-140.72,1712209412078125
-149.52,1712209412093750
-148.05,1712209412109375
-134.95,1712209412125000
-111.25,1712209412140625
-80.18,1712209412156250
-46.28,1712209412171875
-14.05,1712209412187500
13.09,1712209412203125
33.41,1712209412218750
46.64,1712209412234375
53.48,1712209412250000
54.99,1712209412265625
52.33,1712209412281250
46.73,1712209412296875
39.6,1712209412312500
32.46,1712209412328125
26.69,1712209412343750
23.2,1712209412359375
22.18,1712209412375000
23.07,1712209412390625
24.94,1712209412406250
26.9,1712209412421875
28.57,1712209412437500
30.1,1712209412453125
31.94,1712209412468750
34.35,1712209412484375
36.98,1712209412500000
38.8,1712209412515625
38.38,1712209412531250
34.51,1712209412546875
26.77,1712209412562500
15.75,1712209412578125
2.86,1712209412593750
-10.17,1712209412609375
-21.85,1712209412625000
-31.41,1712209412640625
-38.91,1712209412656250
-45.2,1712209412671875
-51.57,1712209412687500
-59.37,1712209412703125
-69.48,1712209412718750
-81.7,1712209412734375
-94.43,1712209412750000
-104.76,1712209412765625
-109.13,1712209412781250
-104.55,1712209412796875
-89.69,1712209412812500
-65.59,1712209412828125
-35.39,1712209412843750
-3.35,1712209412859375
26.42,1712209412875000
50.97,1712209412890625
68.85,1712209412906250
79.83,1712209412921875
84.41,1712209412937500
83.37,1712209412953125
77.63,1712209412968750
68.32,1712209412984375
56.92,1712209413000000
45.16,1712209413015625
34.75,1712209413031250
27.03,1712209413046875
22.61,1712209413062500
21.24,1712209413078125
22.01,1712209413093750
23.75,1712209413109375
25.47,1712209413125000
26.76,1712209413140625
27.71,1712209413156250
28.58,1712209413171875
29.35,1712209413187500
29.41,1712209413203125
27.63,1712209413218750
22.92,1712209413234375
14.74,1712209413250000
3.52,1712209413265625
-9.37,1712209413281250
-22.21,1712209413296875
-33.54,1712209413312500
-42.75,1712209413328125
-50.28,1712209413343750
-57.42,1712209413359375
-65.8,1712209413375000
-76.72,1712209413390625
-90.49,1712209413406250
-105.88,1712209413421875
-120.05,1712209413437500
-129.11,1712209413453125
-129.17,1712209413468750
-117.74,1712209413484375
-94.8,1712209413500000
-63.0,1712209413515625
-26.87,1712209413531250
8.54,1712209413546875
39.12,1712209413562500
62.58,1712209413578125
78.44,1712209413593750
87.45,1712209413609375
90.76,1712209413625000
89.42,1712209413640625
84.29,1712209413656250
76.27,1712209413671875
66.55,1712209413687500
56.64,1712209413703125
48.01,1712209413718750
41.82,1712209413734375
38.51,1712209413750000
37.8,1712209413765625
38.84,1712209413781250
40.55,1712209413796875
42.02,1712209413812500
42.8,1712209413828125
42.86,1712209413843750
42.47,1712209413859375
41.78,1712209413875000
40.54,1712209413890625
38.03,1712209413906250
33.27,1712209413921875
25.44,1712209413937500
14.41,1712209413953125
0.94,1712209413968750
-13.51,1712209413984375
-27.25,1712209414000000
-39.02,1712209414015625
-48.38,1712209414031250
-55.8,1712209414046875
-62.37,1712209414062500
-69.39,1712209414078125
-78.02,1712209414093750
-88.92,1712209414109375
-101.98,1712209414125000
-115.97,1712209414140625
-128.35,1712209414156250
-135.63,1712209414171875
-134.17,1712209414187500
-121.5,1712209414203125
-97.43,1712209414218750
-64.44,1712209414234375
-27.05,1712209414250000
9.55,1712209414265625
41.07,1712209414281250
65.04,1712209414296875
80.92,1712209414312500
89.55,1712209414328125
92.33,1712209414343750
90.68,1712209414359375
85.82,1712209414375000
78.87,1712209414390625
70.96,1712209414406250
63.19,1712209414421875
56.59,1712209414437500
51.89,1712209414453125
49.47,1712209414468750
49.3,1712209414484375
50.96,1712209414500000
53.75,1712209414515625
56.78,1712209414531250
59.27,1712209414546875
60.63,1712209414562500
60.62,1712209414578125
59.23,1712209414593750
56.53,1712209414609375
52.56,1712209414625000
47.28,1712209414640625
40.65,1712209414656250
32.64,1712209414671875
23.31,1712209414687500
12.79,1712209414703125
1.28,1712209414718750
-10.84,1712209414734375
-23.06,1712209414750000
-34.72,1712209414765625
-45.13,1712209414781250
-53.78,1712209414796875
-60.57,1712209414812500
-65.82,1712209414828125
-70.42,1712209414843750
-75.58,1712209414859375
-82.68,1712209414875000
-92.66,1712209414890625
-105.38,1712209414906250
-119.14,1712209414921875
-130.6,1712209414937500
-135.53,1712209414953125
-130.15,1712209414968750
-112.68,1712209414984375
-84.13,1712209415000000
-48.25,1712209415015625
-10.26,1712209415031250
24.74,1712209415046875
53.15,1712209415062500
73.37,1712209415078125
85.53,1712209415093750
90.69,1712209415109375
90.17,1712209415125000
85.16,1712209415140625
76.83,1712209415156250
66.48,1712209415171875
55.66,1712209415187500
45.97,1712209415203125
38.76,1712209415218750
34.75,1712209415234375
33.87,1712209415250000
35.38,1712209415265625
38.18,1712209415281250
41.21,1712209415296875
43.74,1712209415312500
45.47,1712209415328125
46.39,1712209415343750
46.59,1712209415359375
46.02,1712209415375000
44.39,1712209415390625
41.2,1712209415406250
35.92,1712209415421875
28.14,1712209415437500
17.87,1712209415453125
5.65,1712209415468750
-7.49,1712209415484375
-20.3,1712209415500000
-31.66,1712209415515625
-40.97,1712209415531250
-48.25,1712209415546875
-54.07,1712209415562500
-59.41,1712209415578125
-65.33,1712209415593750
-72.83,1712209415609375
-82.48,1712209415625000
-94.0,1712209415640625
-105.82,1712209415656250
-115.12,1712209415671875
-118.3,1712209415687500
-112.23,1712209415703125
-95.4,1712209415718750
-68.81,1712209415734375
-35.78,1712209415750000
-1.03,1712209415765625
30.89,1712209415781250
56.72,1712209415796875
75.05,1712209415812500
85.97,1712209415828125
90.4,1712209415843750
89.32,1712209415859375
83.55,1712209415875000
73.9,1712209415890625
61.47,1712209415906250
47.94,1712209415921875
35.34,1712209415937500
25.63,1712209415953125
20.1,1712209415968750
18.99,1712209415984375
21.5,1712209416000000
26.12,1712209416015625
31.22,1712209416031250
35.56,1712209416046875
38.52,1712209416062500
39.98,1712209416078125
40.11,1712209416093750
39.06,1712209416109375
36.76,1712209416125000
32.88,1712209416140625
26.95,1712209416156250
18.53,1712209416171875
7.53,1712209416187500
-5.56,1712209416203125
-19.68,1712209416218750
-33.41,1712209416234375
-45.42,1712209416250000
-54.92,1712209416265625
-62.0,1712209416281250
-67.46,1712209416296875
-72.63,1712209416312500
-78.91,1712209416328125
-87.46,1712209416343750
-98.84,1712209416359375
-112.64,1712209416375000
-127.14,1712209416390625
-139.23,1712209416406250
-144.95,1712209416421875
-140.58,1712209416437500
-124.06,1712209416453125
-95.92,1712209416468750
-59.45,1712209416484375
-19.72,1712209416500000
17.97,1712209416515625
49.49,1712209416531250
72.73,1712209416546875
87.43,1712209416562500
94.58,1712209416578125
95.66,1712209416593750
92.09,1712209416609375
85.23,1712209416625000
76.34,1712209416640625
66.7,1712209416656250
57.55,1712209416671875
49.94,1712209416687500
44.62,1712209416703125
41.97,1712209416718750
41.93,1712209416734375
43.98,1712209416750000
47.28,1712209416765625
50.82,1712209416781250
53.66,1712209416796875
55.19,1712209416812500
55.18,1712209416828125
53.69,1712209416843750
50.89,1712209416859375
46.81,1712209416875000
41.32,1712209416890625
34.19,1712209416906250
25.21,1712209416921875
14.43,1712209416937500
2.23,1712209416953125
-10.7,1712209416968750
-23.49,1712209416984375
-35.32,1712209417000000
-45.61,1712209417015625
-54.13,1712209417031250
-61.06,1712209417046875
-66.86,1712209417062500
-72.26,1712209417078125
-78.16,1712209417093750
-85.57,1712209417109375
-95.4,1712209417125000
-107.94,1712209417140625
-122.23,1712209417156250
-135.61,1712209417171875
-144.05,1712209417187500
-143.14,1712209417203125
-129.76,1712209417218750
-103.5,1712209417234375
-67.11,1712209417250000
-25.8,1712209417265625
14.43,1712209417281250
48.65,1712209417296875
74.15,1712209417312500
90.46,1712209417328125
98.73,1712209417343750
100.65,1712209417359375
97.84,1712209417375000
91.6,1712209417390625
83.13,1712209417406250
73.69,1712209417421875
64.65,1712209417437500
57.24,1712209417453125
52.3,1712209417468750
50.1,1712209417484375
50.34,1712209417500000
52.38,1712209417515625
55.42,1712209417531250
58.77,1712209417546875
61.91,1712209417562500
64.36,1712209417578125
65.71,1712209417593750
65.49,1712209417609375
63.32,1712209417625000
58.93,1712209417640625
52.39,1712209417656250
44.01,1712209417671875
34.26,1712209417687500
23.62,1712209417703125
12.43,1712209417718750
0.88,1712209417734375
-10.89,1712209417750000
-22.62,1712209417765625
-33.93,1712209417781250
-44.29,1712209417796875
-53.27,1712209417812500
-60.66,1712209417828125
-66.63,1712209417843750
-71.79,1712209417859375
-77.13,1712209417875000
-83.9,1712209417890625
-93.21,1712209417906250
-105.4,1712209417921875
-119.45,1712209417937500
-132.62,1712209417953125
-140.86,1712209417968750
-139.9,1712209417984375
-126.81,1712209418000000
-101.29,1712209418015625
-66.08,1712209418031250
-26.21,1712209418046875
12.6,1712209418062500
45.68,1712209418078125
70.47,1712209418093750
86.56,1712209418109375
94.95,1712209418125000
97.0,1712209418140625
93.82,1712209418156250
86.2,1712209418171875
75.14,1712209418187500
62.19,1712209418203125
49.49,1712209418218750
39.28,1712209418234375
33.17,1712209418250000
31.49,1712209418265625
33.34,1712209418281250
37.0,1712209418296875
40.72,1712209418312500
43.46,1712209418328125
45.04,1712209418343750
45.96,1712209418359375
46.8,1712209418375000
47.65,1712209418390625
47.94,1712209418406250
46.52,1712209418421875
42.12,1712209418437500
33.9,1712209418453125
21.89,1712209418468750
7.06,1712209418484375
-8.84,1712209418500000
-23.88,1712209418515625
-36.56,1712209418531250
-46.23,1712209418546875
-53.33,1712209418562500
-59.13,1712209418578125
-65.38,1712209418593750
-73.7,1712209418609375
-85.09,1712209418625000
-99.37,1712209418640625
-114.88,1712209418656250
-128.45,1712209418671875
-136.02,1712209418687500
-133.73,1712209418703125
-119.35,1712209418718750
-93.22,1712209418734375
-58.41,1712209418750000
-19.9,1712209418765625
17.0,1712209418781250
48.15,1712209418796875
71.38,1712209418812500
86.44,1712209418828125
94.16,1712209418843750
95.65,1712209418859375
91.79,1712209418875000
83.33,1712209418890625
71.35,1712209418906250
57.57,1712209418921875
44.27,1712209418937500
33.75,1712209418953125
27.65,1712209418968750
26.41,1712209418984375
29.17,1712209419000000
34.14,1712209419015625
39.36,1712209419031250
43.34,1712209419046875
45.42,1712209419062500
45.8,1712209419078125
45.08,1712209419093750
43.82,1712209419109375
42.1,1712209419125000
39.38,1712209419140625
34.75,1712209419156250
27.31,1712209419171875
16.67,1712209419187500
3.3,1712209419203125
-11.54,1712209419218750
-26.2,1712209419234375
-39.15,1712209419250000
-49.51,1712209419265625
-57.36,1712209419281250
-63.57,1712209419296875
-69.57,1712209419312500
-76.91,1712209419328125
-86.86,1712209419343750
-100.06,1712209419359375
-115.97,1712209419375000
-132.58,1712209419390625
-146.39,1712209419406250
-153.05,1712209419421875
-148.66,1712209419437500
-131.15,1712209419453125
-101.33,1712209419468750
-62.82,1712209419484375
-21.02,1712209419500000
18.51,1712209419515625
51.6,1712209419531250
76.13,1712209419546875
91.89,1712209419562500
99.88,1712209419578125
101.47,1712209419593750
97.97,1712209419609375
90.62,1712209419625000
80.76,1712209419640625
69.94,1712209419656250
59.87,1712209419671875
52.02,1712209419687500
47.33,1712209419703125
45.92,1712209419718750
47.04,1712209419734375
49.45,1712209419750000
51.81,1712209419765625
53.21,1712209419781250
53.34,1712209419796875
52.51,1712209419812500
51.19,1712209419828125
49.66,1712209419843750
47.61,1712209419859375
44.24,1712209419875000
38.52,1712209419890625
29.71,1712209419906250
17.79,1712209419921875
3.6,1712209419937500
-11.35,1712209419953125
-25.42,1712209419968750
-37.42,1712209419984375
-47.0,1712209420000000
-54.69,1712209420015625
-61.68,1712209420031250
-69.28,1712209420046875
-78.67,1712209420062500
-90.54,1712209420078125
-104.84,1712209420093750
-120.47,1712209420109375
-135.03,1712209420125000
-144.98,1712209420140625
-146.37,1712209420156250
-136.09,1712209420171875
-113.17,1712209420187500
-79.52,1712209420203125
-39.61,1712209420218750
0.86,1712209420234375
36.72,1712209420250000
64.69,1712209420265625
83.84,1712209420281250
94.96,1712209420296875
99.63,1712209420312500
99.33,1712209420328125
95.1,1712209420343750
87.8,1712209420359375
78.5,1712209420375000
68.64,1712209420390625
59.9,1712209420406250
53.7,1712209420421875
50.82,1712209420437500
51.09,1712209420453125
53.57,1712209420468750
56.88,1712209420484375
59.74,1712209420500000
61.31,1712209420515625
61.38,1712209420531250
60.28,1712209420546875
58.52,1712209420562500
56.41,1712209420578125
53.75,1712209420593750
49.86,1712209420609375
43.8,1712209420625000
34.88,1712209420640625
23.05,1712209420656250
9.12,1712209420671875
-5.48,1712209420687500
-19.17,1712209420703125
-30.76,1712209420718750
-39.85,1712209420734375
-46.89,1712209420750000
-52.98,1712209420765625
-59.49,1712209420781250
-67.76,1712209420796875
-78.81,1712209420812500
-92.86,1712209420828125
-108.89,1712209420843750
-124.44,1712209420859375
-135.76,1712209420875000
-138.78,1712209420890625
-130.4,1712209420906250
-109.8,1712209420921875
-79.0,1712209420937500
-42.3,1712209420953125
-4.98,1712209420968750
28.4,1712209420984375
55.01,1712209421000000
73.94,1712209421015625
85.61,1712209421031250
90.89,1712209421046875
90.56,1712209421062500
85.33,1712209421078125
76.18,1712209421093750
64.67,1712209421109375
52.92,1712209421125000
43.11,1712209421140625
36.79,1712209421156250
34.44,1712209421171875
35.47,1712209421187500
38.47,1712209421203125
41.95,1712209421218750
44.83,1712209421234375
46.71,1712209421250000
47.77,1712209421265625
48.42,1712209421281250
48.81,1712209421296875
48.54,1712209421312500
46.7,1712209421328125
42.14,1712209421343750
34.12,1712209421359375
22.64,1712209421375000
8.72,1712209421390625
-5.97,1712209421406250
-19.57,1712209421421875
-30.75,1712209421437500
-39.13,1712209421453125
-45.29,1712209421468750
-50.6,1712209421484375
-56.61,1712209421500000
-64.68,1712209421515625
-75.5,1712209421531250
-88.69,1712209421546875
-102.51,1712209421562500
-114.03,1712209421578125
-119.59,1712209421593750
-115.88,1712209421609375
-101.23,1712209421625000
-76.34,1712209421640625
-44.42,1712209421656250
-10.14,1712209421671875
21.76,1712209421687500
47.9,1712209421703125
66.84,1712209421718750
78.79,1712209421734375
84.76,1712209421750000
85.74,1712209421765625
82.39,1712209421781250
75.23,1712209421796875
65.13,1712209421812500
53.63,1712209421828125
42.74,1712209421843750
34.45,1712209421859375
30.04,1712209421875000
29.75,1712209421890625
32.62,1712209421906250
37.05,1712209421921875
41.32,1712209421937500
44.22,1712209421953125
45.34,1712209421968750
45.01,1712209421984375
43.85,1712209422000000
42.28,1712209422015625
40.1,1712209422031250
36.47,1712209422046875
30.31,1712209422062500
20.89,1712209422078125
8.37,1712209422093750
-6.07,1712209422109375
-20.55,1712209422125000
-33.25,1712209422140625
-43.0,1712209422156250
-49.72,1712209422171875
-54.42,1712209422187500
-58.66,1712209422203125
-64.18,1712209422218750
-72.33,1712209422234375
-83.71,1712209422250000
-97.86,1712209422265625
-112.96,1712209422281250
-125.97,1712209422296875
-133.09,1712209422312500
-130.82,1712209422328125
-117.11,1712209422343750
-92.32,1712209422359375
-59.33,1712209422375000
-22.75,1712209422390625
12.38,1712209422406250
42.0,1712209422421875
63.87,1712209422437500
77.67,1712209422453125
84.38,1712209422468750
85.63,1712209422484375
83.02,1712209422500000
77.84,1712209422515625
71.17,1712209422531250
63.95,1712209422546875
57.11,1712209422562500
51.49,1712209422578125
47.75,1712209422593750
46.19,1712209422609375
46.6,1712209422625000
48.38,1712209422640625
50.68,1712209422656250
52.73,1712209422671875
53.96,1712209422687500
54.13,1712209422703125
53.29,1712209422718750
51.53,1712209422734375
48.8,1712209422750000
44.9,1712209422765625
39.39,1712209422781250
31.81,1712209422796875
21.97,1712209422812500
10.07,1712209422828125
-3.17,1712209422843750
-16.64,1712209422859375
-29.16,1712209422875000
-39.78,1712209422890625
-48.08,1712209422906250
-54.23,1712209422921875
-58.96,1712209422937500
-63.27,1712209422953125
-68.39,1712209422968750
-75.46,1712209422984375
-85.23,1712209423000000
-97.57,1712209423015625
-111.07,1712209423031250
-122.79,1712209423046875
-128.82,1712209423062500
-125.47,1712209423078125
-110.6,1712209423093750
-84.72,1712209423109375
-51.04,1712209423125000
-14.56,1712209423140625
19.48,1712209423156250
47.18,1712209423171875
66.72,1712209423187500
78.34,1712209423203125
83.53,1712209423218750
84.11,1712209423234375
81.58,1712209423250000
77.03,1712209423265625
71.31,1712209423281250
65.3,1712209423296875
59.91,1712209423312500
55.93,1712209423328125
53.76,1712209423343750
53.25,1712209423359375
53.87,1712209423375000
54.88,1712209423390625
55.75,1712209423406250
56.25,1712209423421875
56.4,1712209423437500
56.25,1712209423453125
55.62,1712209423468750
54.11,1712209423484375
51.21,1712209423500000
46.57,1712209423515625
40.1,1712209423531250
32.06,1712209423546875
22.82,1712209423562500
12.78,1712209423578125
2.23,1712209423593750
-8.55,1712209423609375
-19.16,1712209423625000
-29.1,1712209423640625
-37.82,1712209423656250
-44.91,1712209423671875
-50.33,1712209423687500
-54.46,1712209423703125
-58.13,1712209423718750
-62.38,1712209423734375
-68.34,1712209423750000
-76.87,1712209423765625
-88.28,1712209423781250
-101.83,1712209423796875
-115.51,1712209423812500
-126.1,1712209423828125
-129.86,1712209423843750
-123.64,1712209423859375
-106.1,1712209423875000
-78.46,1712209423890625
-44.31,1712209423906250
-8.7,1712209423921875
23.46,1712209423937500
48.65,1712209423953125
65.47,1712209423968750
74.41,1712209423984375
77.11,1712209424000000
75.45,1712209424015625
70.85,1712209424031250
64.29,1712209424046875
56.46,1712209424062500
48.12,1712209424078125
40.27,1712209424093750
34.05,1712209424109375
30.4,1712209424125000
29.71,1712209424140625
31.63,1712209424156250
35.19,1712209424171875
39.13,1712209424187500
42.31,1712209424203125
44.05,1712209424218750
44.22,1712209424234375
43.06,1712209424250000
40.89,1712209424265625
37.88,1712209424281250
33.86,1712209424296875
28.44,1712209424312500
21.23,1712209424328125
12.1,1712209424343750
1.41,1712209424359375
-10.08,1712209424375000
-21.36,1712209424390625
-31.48,1712209424406250
-39.8,1712209424421875
-46.15,1712209424437500
-50.81,1712209424453125
-54.41,1712209424468750
-57.84,1712209424484375
-62.09,1712209424500000
-68.2,1712209424515625
-76.77,1712209424531250
-87.59,1712209424546875
-99.15,1712209424562500
-108.57,1712209424578125
-112.26,1712209424593750
-107.02,1712209424609375
-91.32,1712209424625000
-66.12,1712209424640625
-34.74,1712209424656250
-1.82,1712209424671875
28.04,1712209424687500
51.66,1712209424703125
67.77,1712209424718750
76.73,1712209424734375
79.78,1712209424750000
78.25,1712209424765625
73.15,1712209424781250
65.31,1712209424796875
55.71,1712209424812500
45.63,1712209424828125
36.66,1712209424843750
30.2,1712209424859375
27.1,1712209424875000
27.37,1712209424890625
30.25,1712209424906250
34.55,1712209424921875
39.06,1712209424937500
42.93,1712209424953125
45.68,1712209424968750
47.09,1712209424984375
47.05,1712209425000000
45.34,1712209425015625
41.75,1712209425031250
36.15,1712209425046875
28.69,1712209425062500
19.75,1712209425078125
9.85,1712209425093750
-0.56,1712209425109375
-11.12,1712209425125000
-21.61,1712209425140625
-31.83,1712209425156250
-41.46,1712209425171875
-50.17,1712209425187500
-57.6,1712209425203125
-63.63,1712209425218750
-68.46,1712209425234375
-72.67,1712209425250000
-77.17,1712209425265625
-83.12,1712209425281250
-91.61,1712209425296875
-103.09,1712209425312500
-116.81,1712209425328125
-130.37,1712209425343750
-139.9,1712209425359375
-141.1,1712209425375000
-130.73,1712209425390625
-108.02,1712209425406250
-75.28,1712209425421875
-37.24,1712209425437500
0.44,1712209425453125
32.94,1712209425468750
57.46,1712209425484375
73.37,1712209425500000
81.65,1712209425515625
84.02,1712209425531250
82.2,1712209425546875
77.68,1712209425562500
71.73,1712209425578125
65.47,1712209425593750
59.78,1712209425609375
55.19,1712209425625000
51.9,1712209425640625
49.83,1712209425656250
48.84,1712209425671875
48.82,1712209425687500
49.77,1712209425703125
51.59,1712209425718750
54.01,1712209425734375
56.46,1712209425750000
58.17,1712209425765625
58.31,1712209425781250
56.25,1712209425796875
51.77,1712209425812500
45.13,1712209425828125
36.98,1712209425843750
28.08,1712209425859375
19.05,1712209425875000
10.16,1712209425890625
1.3,1712209425906250
-7.81,1712209425921875
-17.35,1712209425937500
-27.2,1712209425953125
-36.88,1712209425968750
-45.74,1712209425984375
-53.18,1712209426000000
-58.95,1712209426015625
-63.3,1712209426031250
-66.99,1712209426046875
-71.27,1712209426062500
-77.54,1712209426078125
-86.87,1712209426093750
-99.34,1712209426109375
-113.48,1712209426125000
-126.2,1712209426140625
-133.37,1712209426156250
-131.07,1712209426171875
-117.02,1712209426187500
-91.54,1712209426203125
-57.68,1712209426218750
-20.25,1712209426234375
15.61,1712209426250000
45.87,1712209426265625
68.34,1712209426281250
82.68,1712209426296875
89.8,1712209426312500
91.1,1712209426328125
88.04,1712209426343750
81.96,1712209426359375
74.14,1712209426375000
65.85,1712209426390625
58.22,1712209426406250
52.1,1712209426421875
47.95,1712209426437500
45.8,1712209426453125
45.37,1712209426468750
46.34,1712209426484375
48.34,1712209426500000
51.05,1712209426515625
54.03,1712209426531250
56.71,1712209426546875
58.35,1712209426562500
58.21,1712209426578125
55.75,1712209426593750
50.79,1712209426609375
43.63,1712209426625000
34.86,1712209426640625
25.23,1712209426656250
15.42,1712209426671875
5.8,1712209426687500
-3.54,1712209426703125
-12.7,1712209426718750
-21.84,1712209426734375
-30.97,1712209426750000
-39.91,1712209426765625
-48.28,1712209426781250
-55.62,1712209426796875
-61.64,1712209426812500
-66.39,1712209426828125
-70.34,1712209426843750
-74.49,1712209426859375
-80.19,1712209426875000
-88.67,1712209426890625
-100.39,1712209426906250
-114.32,1712209426921875
-127.61,1712209426937500
-136.07,1712209426953125
-135.36,1712209426968750
-122.62,1712209426984375
-97.74,1712209427000000
-63.66,1712209427015625
-25.53,1712209427031250
11.09,1712209427046875
41.78,1712209427062500
64.32,1712209427078125
78.54,1712209427093750
85.55,1712209427109375
86.73,1712209427125000
83.18,1712209427140625
75.77,1712209427156250
65.46,1712209427171875
53.69,1712209427187500
42.24,1712209427203125
32.99,1712209427218750
27.27,1712209427234375
25.59,1712209427250000
27.44,1712209427265625
31.58,1712209427281250
36.5,1712209427296875
40.87,1712209427312500
43.9,1712209427328125
45.43,1712209427343750
45.73,1712209427359375
45.15,1712209427375000
43.8,1712209427390625
41.32,1712209427406250
37.03,1712209427421875
30.23,1712209427437500
20.64,1712209427453125
8.67,1712209427468750
-4.6,1712209427484375
-17.69,1712209427500000
-29.34,1712209427515625
-38.88,1712209427531250
-46.39,1712209427546875
-52.56,1712209427562500
-58.38,1712209427578125
-64.86,1712209427593750
-72.89,1712209427609375
-83.13,1712209427625000
-95.66,1712209427640625
-109.54,1712209427656250
-122.44,1712209427671875
-130.83,1712209427687500
-130.8,1712209427703125
-119.54,1712209427718750
-96.55,1712209427734375
-64.18,1712209427750000
-26.96,1712209427765625
9.84,1712209427781250
41.81,1712209427796875
66.42,1712209427812500
83.05,1712209427828125
92.42,1712209427843750
95.68,1712209427859375
93.94,1712209427875000
88.19,1712209427890625
79.49,1712209427906250
69.23,1712209427921875
58.95,1712209427937500
50.17,1712209427953125
44.0,1712209427968750
40.96,1712209427984375
40.88,1712209428000000
43.13,1712209428015625
46.74,1712209428031250
50.65,1712209428046875
53.9,1712209428062500
55.81,1712209428078125
56.08,1712209428093750
54.71,1712209428109375
51.92,1712209428125000
47.91,1712209428140625
42.67,1712209428156250
35.95,1712209428171875
27.39,1712209428187500
16.79,1712209428203125
4.33,1712209428218750
-9.29,1712209428234375
-23.01,1712209428250000
-35.74,1712209428265625
-46.67,1712209428281250
-55.48,1712209428296875
-62.44,1712209428312500
-68.21,1712209428328125
-73.69,1712209428343750
-79.92,1712209428359375
-87.9,1712209428375000
-98.36,1712209428390625
-111.32,1712209428406250
-125.46,1712209428421875
-137.99,1712209428437500
-144.9,1712209428453125
-142.19,1712209428468750
-127.29,1712209428484375
-100.32,1712209428500000
-64.34,1712209428515625
-24.56,1712209428531250
13.34,1712209428546875
44.91,1712209428562500
67.8,1712209428578125
81.92,1712209428593750
88.58,1712209428609375
89.64,1712209428625000
86.79,1712209428640625
81.4,1712209428656250
74.59,1712209428671875
67.37,1712209428687500
60.69,1712209428703125
55.31,1712209428718750
51.74,1712209428734375
50.16,1712209428750000
50.48,1712209428765625
52.32,1712209428781250
55.14,1712209428796875
58.26,1712209428812500
61.01,1712209428828125
62.83,1712209428843750
63.33,1712209428859375
62.35,1712209428875000
59.88,1712209428890625
55.99,1712209428906250
50.73,1712209428921875
44.14,1712209428937500
36.28,1712209428953125
27.15,1712209428968750
16.84,1712209428984375
5.51,1712209429000000
-6.49,1712209429015625
-18.62,1712209429031250
-30.19,1712209429046875
-40.54,1712209429062500
-49.21,1712209429078125
-56.17,1712209429093750
-61.94,1712209429109375
-67.56,1712209429125000
-74.39,1712209429140625
-83.65,1712209429156250
-95.85,1712209429171875
-110.1,1712209429187500
-123.78,1712209429203125
-132.95,1712209429218750
-133.31,1712209429234375
-121.84,1712209429250000
-98.05,1712209429265625
-64.52,1712209429281250
-26.14,1712209429296875
11.33,1712209429312500
43.13,1712209429328125
66.57,1712209429343750
81.23,1712209429359375
88.36,1712209429375000
89.78,1712209429390625
87.11,1712209429406250
81.47,1712209429421875
73.67,1712209429437500
64.6,1712209429453125
55.42,1712209429468750
47.52,1712209429484375
42.1,1712209429500000
39.85,1712209429515625
40.6,1712209429531250
43.47,1712209429546875
47.15,1712209429562500
50.4,1712209429578125
52.35,1712209429593750
52.75,1712209429609375
51.75,1712209429625000
49.74,1712209429640625
47.07,1712209429656250
43.75,1712209429671875
39.53,1712209429687500
33.91,1712209429703125
26.36,1712209429718750
16.63,1712209429734375
4.97,1712209429750000
-7.78,1712209429765625
-20.34,1712209429781250
-31.44,1712209429796875
-40.23,1712209429812500
-46.55,1712209429828125
-51.05,1712209429843750
-54.82,1712209429859375
-59.14,1712209429875000
-65.14,1712209429890625
-73.59,1712209429906250
-84.69,1712209429921875
-97.6,1712209429937500
-110.26,1712209429953125
-119.41,1712209429968750
-121.3,1712209429984375
-112.89,1712209430000000
-93.19,1712209430015625
-63.93,1712209430031250
-29.26,1712209430046875
5.58,1712209430062500
35.86,1712209430078125
58.6,1712209430093750
73.0,1712209430109375
79.87,1712209430125000
80.74,1712209430140625
77.08,1712209430156250
70.07,1712209430171875
60.69,1712209430187500
50.08,1712209430203125
39.65,1712209430218750
30.97,1712209430234375
25.38,1712209430250000
23.56,1712209430265625
25.35,1712209430281250
29.66,1712209430296875
34.97,1712209430312500
39.77,1712209430328125
43.04,1712209430343750
44.49,1712209430359375
44.41,1712209430375000
43.28,1712209430390625
41.35,1712209430406250
38.45,1712209430421875
34.0,1712209430437500
27.36,1712209430453125
18.19,1712209430468750
6.68,1712209430484375
-6.28,1712209430500000
-19.4,1712209430515625
-31.33,1712209430531250
-41.1,1712209430546875
-48.44,1712209430562500
-53.86,1712209430578125
-58.38,1712209430593750
-63.29,1712209430609375
-69.72,1712209430625000
-78.48,1712209430640625
-89.75,1712209430656250
-102.8,1712209430671875
-115.72,1712209430687500
-125.44,1712209430703125
-128.29,1712209430718750
-121.07,1712209430734375
-102.39,1712209430750000
-73.46,1712209430765625
-38.04,1712209430781250
-1.31,1712209430796875
31.72,1712209430812500
57.62,1712209430828125
75.13,1712209430843750
84.78,1712209430859375
88.06,1712209430875000
86.57,1712209430890625
81.63,1712209430906250
74.33,1712209430921875
65.74,1712209430937500
57.06,1712209430953125
49.48,1712209430968750
43.96,1712209430984375
41.03,1712209431000000
40.68,1712209431015625
42.5,1712209431031250
45.81,1712209431046875
49.82,1712209431062500
53.68,1712209431078125
56.61,1712209431093750
57.92,1712209431109375
57.16,1712209431125000
54.18,1712209431140625
49.22,1712209431156250
42.73,1712209431171875
35.27,1712209431187500
27.26,1712209431203125
18.85,1712209431218750
9.93,1712209431234375
0.33,1712209431250000
-9.98,1712209431265625
-20.77,1712209431281250
-31.45,1712209431296875
-41.31,1712209431312500
-49.72,1712209431328125
-56.42,1712209431343750
-61.6,1712209431359375
-65.92,1712209431375000
-70.34,1712209431390625
-76.08,1712209431406250
-84.28,1712209431421875
-95.65,1712209431437500
-109.86,1712209431453125
-125.07,1712209431468750
-137.85,1712209431484375
-143.84,1712209431500000
-139.06,1712209431515625
-121.41,1712209431531250
-91.78,1712209431546875
-53.96,1712209431562500
-13.66,1712209431578125
23.36,1712209431593750
52.87,1712209431609375
73.03,1712209431625000
84.28,1712209431640625
88.39,1712209431656250
87.54,1712209431671875
83.58,1712209431687500
77.9,1712209431703125
71.51,1712209431718750
65.2,1712209431734375
59.63,1712209431750000
55.33,1712209431765625
52.51,1712209431781250
51.1,1712209431796875
50.85,1712209431812500
51.4,1712209431828125
52.44,1712209431843750
53.73,1712209431859375
55.0,1712209431875000
55.85,1712209431890625
55.81,1712209431906250
54.35,1712209431921875
51.15,1712209431937500
46.14,1712209431953125
39.58,1712209431968750
31.95,1712209431984375
23.66,1712209432000000
15.02,1712209432015625
6.14,1712209432031250
-2.95,1712209432046875
-12.19,1712209432062500
-21.39,1712209432078125
-30.24,1712209432093750
-38.34,1712209432109375
-45.46,1712209432125000
-51.51,1712209432140625
-56.68,1712209432156250
-61.49,1712209432171875
-66.76,1712209432187500
-73.56,1712209432203125
-82.86,1712209432218750
-94.91,1712209432234375
-108.58,1712209432250000
-121.12,1712209432265625
-128.58,1712209432281250
-126.99,1712209432296875
-113.88,1712209432312500
-89.4,1712209432328125
-56.54,1712209432343750
-20.22,1712209432359375
14.3,1712209432375000
42.94,1712209432390625
63.65,1712209432406250
76.4,1712209432421875
82.44,1712209432437500
83.37,1712209432453125
80.63,1712209432468750
75.25,1712209432484375
68.16,1712209432500000
60.34,1712209432515625
52.86,1712209432531250
46.81,1712209432546875
42.98,1712209432562500
41.66,1712209432578125
42.54,1712209432593750
44.84,1712209432609375
47.57,1712209432625000
49.85,1712209432640625
51.13,1712209432656250
51.2,1712209432671875
50.19,1712209432687500
48.22,1712209432703125
45.33,1712209432718750
41.4,1712209432734375
36.22,1712209432750000
29.56,1712209432765625
21.37,1712209432781250
11.8,1712209432796875
1.23,1712209432812500
-9.74,1712209432828125
-20.44,1712209432843750
-30.23,1712209432859375
-38.71,1712209432875000
-45.67,1712209432890625
-51.26,1712209432906250
-55.95,1712209432921875
-60.43,1712209432937500
-65.7,1712209432953125
-72.82,1712209432968750
-82.56,1712209432984375
-94.8,1712209433000000
-108.03,1712209433015625
-119.23,1712209433031250
-124.53,1712209433046875
-120.41,1712209433062500
-105.16,1712209433078125
-79.66,1712209433093750
-47.29,1712209433109375
-12.83,1712209433125000
19.08,1712209433140625
45.14,1712209433156250
63.88,1712209433171875
75.31,1712209433187500
80.19,1712209433203125
79.4,1712209433218750
73.81,1712209433234375
64.43,1712209433250000
52.67,1712209433265625
40.38,1712209433281250
29.55,1712209433296875
21.88,1712209433312500
18.31,1712209433328125
18.75,1712209433343750
22.16,1712209433359375
26.96,1712209433375000
31.58,1712209433390625
34.98,1712209433406250
36.91,1712209433421875
37.67,1712209433437500
37.73,1712209433453125
37.19,1712209433468750
35.49,1712209433484375
31.66,1712209433500000
24.79,1712209433515625
14.61,1712209433531250
1.82,1712209433546875
-12.07,1712209433562500
-25.3,1712209433578125
-36.47,1712209433593750
-45.04,1712209433609375
-51.48,1712209433625000
-56.94,1712209433640625
-63.01,1712209433656250
-71.17,1712209433671875
-82.36,1712209433687500
-96.44,1712209433703125
-111.8,1712209433718750
-125.32,1712209433734375
-132.93,1712209433750000
-130.83,1712209433765625
-116.77,1712209433781250
-91.14,1712209433796875
-57.11,1712209433812500
-19.69,1712209433828125
15.72,1712209433843750
44.99,1712209433859375
66.08,1712209433875000
79.08,1712209433890625
85.37,1712209433906250
86.74,1712209433921875
84.55,1712209433937500
79.63,1712209433953125
72.55,1712209433968750
64.03,1712209433984375
55.16,1712209434000000
47.33,1712209434015625
41.86,1712209434031250
39.52,1712209434046875
40.26,1712209434062500
43.12,1712209434078125
46.69,1712209434093750
49.62,1712209434109375
51.05,1712209434125000
50.85,1712209434140625
49.44,1712209434156250
47.37,1712209434171875
44.88,1712209434187500
41.63,1712209434203125
36.81,1712209434218750
29.53,1712209434234375
19.36,1712209434250000
6.61,1712209434265625
-7.64,1712209434281250
-21.85,1712209434296875
-34.59,1712209434312500
-44.97,1712209434328125
-52.95,1712209434343750
-59.25,1712209434359375
-65.02,1712209434375000
-71.56,1712209434390625
-80.01,1712209434406250
-91.1,1712209434421875
-104.76,1712209434437500
-119.74,1712209434453125
-133.45,1712209434468750
-142.18,1712209434484375
-142.07,1712209434500000
-130.43,1712209434515625
-106.91,1712209434531250
-73.95,1712209434546875
-36.17,1712209434562500
1.08,1712209434578125
33.27,1712209434593750
57.8,1712209434609375
74.14,1712209434625000
83.2,1712209434640625
86.57,1712209434656250
85.79,1712209434671875
82.13,1712209434687500
76.64,1712209434703125
70.31,1712209434718750
64.1,1712209434734375
58.89,1712209434750000
55.3,1712209434765625
53.63,1712209434781250
53.83,1712209434796875
55.51,1712209434812500
58.1,1712209434828125
60.92,1712209434843750
63.34,1712209434859375
64.88,1712209434875000
65.19,1712209434890625
64.04,1712209434906250
61.28,1712209434921875
56.88,1712209434937500
50.91,1712209434953125
43.55,1712209434968750
35.08,1712209434984375
25.74,1712209435000000
15.71,1712209435015625
5.16,1712209435031250
-5.69,1712209435046875
-16.52,1712209435062500
-26.87,1712209435078125
-36.26,1712209435093750
-44.37,1712209435109375
-51.16,1712209435125000
-56.95,1712209435140625
-62.39,1712209435156250
-68.5,1712209435171875
-76.45,1712209435187500
-87.17,1712209435203125
-100.77,1712209435218750
-115.81,1712209435234375
-129.19,1712209435250000
-136.65,1712209435265625
-134.12,1712209435281250
-119.24,1712209435296875
-92.53,1712209435312500
-57.42,1712209435328125
-19.15,1712209435343750
16.91,1712209435359375
46.81,1712209435375000
68.65,1712209435390625
82.4,1712209435406250
89.12,1712209435421875
90.19,1712209435437500
86.88,1712209435453125
80.46,1712209435468750
72.37,1712209435484375
64.24,1712209435500000
57.6,1712209435515625
53.47,1712209435531250
52.09,1712209435546875
52.9,1712209435562500
54.96,1712209435578125
57.29,1712209435593750
59.39,1712209435609375
61.18,1712209435625000
62.86,1712209435640625
64.51,1712209435656250
65.86,1712209435671875
66.23,1712209435687500
64.76,1712209435703125
60.75,1712209435718750
53.98,1712209435734375
44.89,1712209435750000
34.4,1712209435765625
23.63,1712209435781250
13.49,1712209435796875
4.35,1712209435812500
-4.04,1712209435828125
-12.32,1712209435843750
-21.11,1712209435859375
-30.62,1712209435875000
-40.41,1712209435890625
-49.55,1712209435906250
-57.05,1712209435921875
-62.33,1712209435937500
-65.52,1712209435953125
-67.61,1712209435968750
-70.15,1712209435984375
-74.91,1712209436000000
-83.27,1712209436015625
-95.48,1712209436031250
-110.08,1712209436046875
-123.81,1712209436062500
-132.21,1712209436078125
-130.88,1712209436093750
-117.13,1712209436109375
-91.2,1712209436125000
-56.34,1712209436140625
-17.89,1712209436156250
18.47,1712209436171875
48.4,1712209436187500
69.78,1712209436203125
82.55,1712209436218750
87.94,1712209436234375
87.5,1712209436250000
82.54,1712209436265625
74.11,1712209436281250
63.27,1712209436296875
51.4,1712209436312500
40.19,1712209436328125
31.35,1712209436343750
26.19,1712209436359375
25.19,1712209436375000
27.84,1712209436390625
32.89,1712209436406250
38.71,1712209436421875
43.84,1712209436437500
47.37,1712209436453125
49.0,1712209436468750
48.94,1712209436484375
47.54,1712209436500000
45.03,1712209436515625
41.32,1712209436531250
36.09,1712209436546875
28.97,1712209436562500
19.73,1712209436578125
8.57,1712209436593750
-3.86,1712209436609375
-16.57,1712209436625000
-28.51,1712209436640625
-38.83,1712209436656250
-47.24,1712209436671875
-54.01,1712209436687500
-59.83,1712209436703125
-65.57,1712209436718750
-72.1,1712209436734375
-80.19,1712209436750000
-90.37,1712209436765625
-102.56,1712209436781250
-115.63,1712209436796875
-127.12,1712209436812500
-133.38,1712209436828125
-130.64,1712209436843750
-116.39,1712209436859375
-90.6,1712209436875000
-56.18,1712209436890625
-18.13,1712209436906250
18.01,1712209436921875
47.86,1712209436937500
69.18,1712209436953125
81.95,1712209436968750
87.56,1712209436984375
87.86,1712209437000000
84.49,1712209437015625
78.66,1712209437031250
71.39,1712209437046875
63.67,1712209437062500
56.5,1712209437078125
50.8,1712209437093750
47.15,1712209437109375
45.78,1712209437125000
46.44,1712209437140625
48.62,1712209437156250
51.6,1712209437171875
54.61,1712209437187500
56.96,1712209437203125
58.1,1712209437218750
57.75,1712209437234375
55.85,1712209437250000
52.51,1712209437265625
47.9,1712209437281250
42.15,1712209437296875
35.29,1712209437312500
27.25,1712209437328125
17.99,1712209437343750
7.49,1712209437359375
-4.0,1712209437375000
-16.03,1712209437390625
-27.94,1712209437406250
-39.01,1712209437421875
-48.62,1712209437437500
-56.45,1712209437453125
-62.55,1712209437468750
-67.46,1712209437484375
-72.17,1712209437500000
-77.94,1712209437515625
-86.11,1712209437531250
-97.32,1712209437546875
-111.0,1712209437562500
-124.83,1712209437578125
-134.95,1712209437593750
-136.95,1712209437609375
-127.44,1712209437625000
-105.47,1712209437640625
-73.14,1712209437656250
-35.09,1712209437671875
3.03,1712209437687500
36.33,1712209437703125
61.89,1712209437718750
79.0,1712209437734375
88.52,1712209437750000
92.05,1712209437765625
91.06,1712209437781250
86.78,1712209437796875
80.23,1712209437812500
72.51,1712209437828125
64.81,1712209437843750
58.25,1712209437859375
53.62,1712209437875000
51.16,1712209437890625
50.64,1712209437906250
51.46,1712209437921875
53.04,1712209437937500
54.92,1712209437953125
56.82,1712209437968750
58.51,1712209437984375
59.6,1712209438000000
59.59,1712209438015625
57.88,1712209438031250
54.07,1712209438046875
48.21,1712209438062500
40.76,1712209438078125
32.39,1712209438093750
23.67,1712209438109375
14.79,1712209438125000
5.58,1712209438140625
-4.24,1712209438156250
-14.77,1712209438171875
-25.73,1712209438187500
-36.52,1712209438203125
-46.36,1712209438218750
-54.59,1712209438234375
-60.9,1712209438250000
-65.43,1712209438265625
-68.88,1712209438281250
-72.32,1712209438296875
-77.22,1712209438312500
-84.87,1712209438328125
-95.87,1712209438343750
-109.42,1712209438359375
-122.92,1712209438375000
-132.34,1712209438390625
-133.29,1712209438406250
-122.63,1712209438421875
-99.75,1712209438437500
-67.14,1712209438453125
-29.72,1712209438468750
6.76,1712209438484375
37.42,1712209438500000
59.51,1712209438515625
72.65,1712209438531250
78.24,1712209438546875
78.3,1712209438562500
74.63,1712209438578125
68.37,1712209438593750
60.24,1712209438609375
50.93,1712209438625000
41.55,1712209438640625
33.52,1712209438656250
28.25,1712209438671875
26.6,1712209438687500
28.47,1712209438703125
32.79,1712209438718750
37.92,1712209438734375
42.26,1712209438750000
44.78,1712209438765625
45.33,1712209438781250
44.46,1712209438796875
42.92,1712209438812500
41.17,1712209438828125
38.98,1712209438843750
35.6,1712209438859375
30.03,1712209438875000
21.65,1712209438890625
10.53,1712209438906250
-2.4,1712209438921875
-15.7,1712209438937500
-27.89,1712209438953125
-37.92,1712209438968750
-45.43,1712209438984375
-50.8,1712209439000000
-54.9,1712209439015625
-58.88,1712209439031250
-63.93,1712209439046875
-71.08,1712209439062500
-80.93,1712209439078125
-93.21,1712209439093750
-106.43,1712209439109375
-117.77,1712209439125000
-123.54,1712209439140625
-120.27,1712209439156250
-105.95,1712209439171875
-80.99,1712209439187500
-48.35,1712209439203125
-12.74,1712209439218750
20.86,1712209439234375
48.59,1712209439250000
68.5,1712209439265625
80.51,1712209439281250
85.71,1712209439296875
85.57,1712209439312500
81.36,1712209439328125
74.16,1712209439343750
65.06,1712209439359375
55.31,1712209439375000
46.3,1712209439390625
39.31,1712209439406250
35.19,1712209439421875
34.14,1712209439437500
35.74,1712209439453125
39.11,1712209439468750
43.18,1712209439484375
46.93,1712209439500000
49.54,1712209439515625
50.55,1712209439531250
49.76,1712209439546875
47.31,1712209439562500
43.47,1712209439578125
38.52,1712209439593750
32.57,1712209439609375
25.52,1712209439625000
17.14,1712209439640625
7.29,1712209439656250
-3.87,1712209439671875
-15.8,1712209439687500
-27.63,1712209439703125
-38.54,1712209439718750
-47.94,1712209439734375
-55.69,1712209439750000
-62.04,1712209439765625
-67.58,1712209439781250
-73.02,1712209439796875
-79.3,1712209439812500
-87.4,1712209439828125
-98.14,1712209439843750
-111.55,1712209439859375
-126.24,1712209439875000
-139.14,1712209439890625
-145.99,1712209439906250
-142.67,1712209439921875
-126.81,1712209439937500
-98.87,1712209439953125
-62.33,1712209439968750
-22.53,1712209439984375
14.96,1712209440000000
45.94,1712209440015625
68.38,1712209440031250
82.26,1712209440046875
88.87,1712209440062500
89.92,1712209440078125
87.05,1712209440093750
81.66,1712209440109375
74.94,1712209440125000
67.99,1712209440140625
61.7,1712209440156250
56.76,1712209440171875
53.51,1712209440187500
52.04,1712209440203125
52.12,1712209440218750
53.37,1712209440234375
55.29,1712209440250000
57.39,1712209440265625
59.26,1712209440281250
60.56,1712209440296875
61.03,1712209440312500
60.4,1712209440328125
58.31,1712209440343750
54.42,1712209440359375
48.55,1712209440375000
40.84,1712209440390625
31.75,1712209440406250
21.94,1712209440421875
11.97,1712209440437500
2.12,1712209440453125
-7.69,1712209440468750
-17.66,1712209440484375
-27.86,1712209440500000
-38.02,1712209440515625
-47.55,1712209440531250
-55.74,1712209440546875
-62.18,1712209440562500
-66.94,1712209440578125
-70.76,1712209440593750
-74.95,1712209440609375
-81.07,1712209440625000
-90.52,1712209440640625
-103.7,1712209440656250
-119.3,1712209440671875
-134.1,1712209440687500
-143.51,1712209440703125
-142.94,1712209440718750
-129.56,1712209440734375
-103.49,1712209440750000
-68.01,1712209440765625
-28.48,1712209440781250
9.37,1712209440796875
41.11,1712209440812500
64.49,1712209440828125
79.37,1712209440843750
86.94,1712209440859375
88.92,1712209440875000
86.93,1712209440890625
82.35,1712209440906250
76.41,1712209440921875
70.25,1712209440937500
64.81,1712209440953125
60.74,1712209440968750
58.26,1712209440984375
57.2,1712209441000000
57.15,1712209441015625
57.69,1712209441031250
58.59,1712209441046875
59.81,1712209441062500
61.39,1712209441078125
63.23,1712209441093750
64.84,1712209441109375
65.43,1712209441125000
64.15,1712209441140625
60.39,1712209441156250
54.12,1712209441171875
45.91,1712209441187500
36.7,1712209441203125
27.37,1712209441218750
18.38,1712209441234375
9.74,1712209441250000
1.03,1712209441265625
-8.19,1712209441281250
-18.03,1712209441296875
-28.17,1712209441312500
-37.94,1712209441328125
-46.61,1712209441343750
-53.7,1712209441359375
-59.27,1712209441375000
-63.88,1712209441390625
-68.5,1712209441406250
-74.31,1712209441421875
-82.42,1712209441437500
-93.5,1712209441453125
-107.22,1712209441468750
-121.84,1712209441484375
-134.09,1712209441500000
-139.81,1712209441515625
-135.2,1712209441531250
-118.33,1712209441546875
-90.09,1712209441562500
-54.15,1712209441578125
-15.89,1712209441593750
19.36,1712209441609375
47.72,1712209441625000
67.56,1712209441640625
79.14,1712209441656250
83.8,1712209441671875
83.12,1712209441687500
78.41,1712209441703125
70.76,1712209441718750
61.25,1712209441734375
51.17,1712209441750000
41.91,1712209441765625
34.74,1712209441781250
30.57,1712209441796875
29.71,1712209441812500
31.81,1712209441828125
36.0,1712209441843750
41.1,1712209441859375
45.89,1712209441875000
49.5,1712209441890625
51.48,1712209441906250
51.83,1712209441921875
50.81,1712209441937500
48.61,1712209441953125
45.13,1712209441968750
40.02,1712209441984375
32.86,1712209442000000
23.51,1712209442015625
12.29,1712209442031250
0.02,1712209442046875
-12.24,1712209442062500
-23.55,1712209442078125
-33.3,1712209442093750
-41.45,1712209442109375
-48.28,1712209442125000
-54.3,1712209442140625
-60.16,1712209442156250
-66.55,1712209442171875
-74.28,1712209442187500
-83.98,1712209442203125
-95.78,1712209442218750
-108.63,1712209442234375
-120.13,1712209442250000
-126.77,1712209442265625
-125.0,1712209442281250
-112.5,1712209442296875
-89.22,1712209442312500
-57.64,1712209442328125
-22.03,1712209442343750
12.83,1712209442359375
43.04,1712209442375000
66.23,1712209442390625
81.71,1712209442406250
89.94,1712209442421875
92.0,1712209442437500
89.14,1712209442453125
82.69,1712209442468750
74.05,1712209442484375
64.66,1712209442500000
55.84,1712209442515625
48.6,1712209442531250
43.52,1712209442546875
40.8,1712209442562500
40.28,1712209442578125
41.68,1712209442593750
44.54,1712209442609375
48.35,1712209442625000
52.48,1712209442640625
56.17,1712209442656250
58.6,1712209442671875
59.02,1712209442687500
56.91,1712209442703125
52.13,1712209442718750
44.98,1712209442734375
36.08,1712209442750000
26.2,1712209442765625
16.02,1712209442781250
5.92,1712209442796875
-4.05,1712209442812500
-14.05,1712209442828125
-24.2,1712209442843750
-34.5,1712209442859375
-44.61,1712209442875000
-54.03,1712209442890625
-62.25,1712209442906250
-69.01,1712209442921875
-74.44,1712209442937500
-79.15,1712209442953125
-84.29,1712209442968750
-91.25,1712209442984375
-101.3,1712209443000000
-114.63,1712209443015625
-129.75,1712209443031250
-143.25,1712209443046875
-150.48,1712209443062500
-147.06,1712209443078125
-130.57,1712209443093750
-101.71,1712209443109375
-64.19,1712209443125000
-23.64,1712209443140625
14.35,1712209443156250
45.67,1712209443171875
68.46,1712209443187500
82.78,1712209443203125
89.85,1712209443218750
91.23,1712209443234375
88.33,1712209443250000
82.47,1712209443265625
74.95,1712209443281250
67.17,1712209443296875
60.43,1712209443312500
55.66,1712209443328125
53.24,1712209443343750
52.95,1712209443359375
54.15,1712209443375000
56.03,1712209443390625
58.05,1712209443406250
59.92,1712209443421875
61.65,1712209443437500
63.27,1712209443453125
64.6,1712209443468750
65.12,1712209443484375
64.01,1712209443500000
60.58,1712209443515625
54.48,1712209443531250
46.01,1712209443546875
36.0,1712209443562500
25.55,1712209443578125
15.57,1712209443593750
6.44,1712209443609375
-2.05,1712209443625000
-10.53,1712209443640625
-19.53,1712209443656250
-29.13,1712209443671875
-38.89,1712209443687500
-47.99,1712209443703125
-55.64,1712209443718750
-61.47,1712209443734375
-65.79,1712209443750000
-69.52,1712209443765625
-74.02,1712209443781250
-80.8,1712209443796875
-90.98,1712209443812500
-104.73,1712209443828125
-120.66,1712209443843750
-135.63,1712209443859375
-145.24,1712209443875000
-145.08,1712209443890625
-132.25,1712209443906250
-106.67,1712209443921875
-71.34,1712209443937500
-31.45,1712209443953125
7.2,1712209443968750
39.96,1712209443984375
64.25,1712209444000000
79.69,1712209444015625
87.43,1712209444031250
89.3,1712209444046875
87.04,1712209444062500
82.17,1712209444078125
75.89,1712209444093750
69.25,1712209444109375
63.16,1712209444125000
58.34,1712209444140625
55.26,1712209444156250
54.07,1712209444171875
54.6,1712209444187500
56.44,1712209444203125
59.01,1712209444218750
61.7,1712209444234375
63.92,1712209444250000
65.25,1712209444265625
65.41,1712209444281250
64.21,1712209444296875
61.52,1712209444312500
57.28,1712209444328125
51.52,1712209444343750
44.38,1712209444359375
36.14,1712209444375000
27.09,1712209444390625
17.4,1712209444406250
7.14,1712209444421875
-3.69,1712209444437500
-14.97,1712209444453125
-26.31,1712209444468750
-37.13,1712209444484375
-46.69,1712209444500000
-54.44,1712209444515625
-60.19,1712209444531250
-64.29,1712209444546875
-67.62,1712209444562500
-71.51,1712209444578125
-77.49,1712209444593750
-86.76,1712209444609375
-99.52,1712209444625000
-114.3,1712209444640625
-127.79,1712209444656250
-135.61,1712209444671875
-133.57,1712209444687500
-119.34,1712209444703125
-93.47,1712209444718750
-59.44,1712209444734375
-22.46,1712209444750000
12.17,1712209444765625
40.59,1712209444781250
60.99,1712209444796875
73.44,1712209444812500
79.09,1712209444828125
79.4,1712209444843750
75.69,1712209444859375
69.06,1712209444875000
60.6,1712209444890625
51.43,1712209444906250
42.78,1712209444921875
35.82,1712209444937500
31.39,1712209444953125
29.89,1712209444968750
31.08,1712209444984375
34.2,1712209445000000
38.18,1712209445015625
41.95,1712209445031250
44.7,1712209445046875
46.09,1712209445062500
46.15,1712209445078125
45.08,1712209445093750
43.03,1712209445109375
39.9,1712209445125000
35.33,1712209445140625
28.91,1712209445156250
20.41,1712209445171875
9.94,1712209445187500
-1.87,1712209445203125
-14.03,1712209445218750
-25.44,1712209445234375
-35.19,1712209445250000
-42.95,1712209445265625
-49.02,1712209445281250
-54.23,1712209445296875
-59.7,1712209445312500
-66.56,1712209445328125
-75.64,1712209445343750
-87.15,1712209445359375
-100.41,1712209445375000
-113.52,1712209445390625
-123.5,1712209445406250
-126.85,1712209445421875
-120.6,1712209445437500
-103.51,1712209445453125
-76.66,1712209445468750
-43.42,1712209445484375
-8.41,1712209445500000
23.85,1712209445515625
50.15,1712209445531250
68.99,1712209445546875
80.46,1712209445562500
85.54,1712209445578125
85.51,1712209445593750
81.63,1712209445609375
75.11,1712209445625000
67.22,1712209445640625
59.23,1712209445656250
52.27,1712209445671875
47.11,1712209445687500
44.09,1712209445703125
43.11,1712209445718750
43.8,1712209445734375
45.65,1712209445750000
48.17,1712209445765625
50.84,1712209445781250
53.19,1712209445796875
54.75,1712209445812500
55.08,1712209445828125
53.83,1712209445843750
50.76,1712209445859375
45.83,1712209445875000
39.18,1712209445890625
31.15,1712209445906250
22.12,1712209445921875
12.44,1712209445937500
2.34,1712209445953125
-8.07,1712209445968750
-18.66,1712209445984375
-29.22,1712209446000000
-39.37,1712209446015625
-48.6,1712209446031250
-56.48,1712209446046875
-62.82,1712209446062500
-67.89,1712209446078125
-72.44,1712209446093750
-77.69,1712209446109375
-85.06,1712209446125000
-95.63,1712209446140625
-109.45,1712209446156250
-124.96,1712209446171875
-138.79,1712209446187500
-146.48,1712209446203125
-143.79,1712209446218750
-128.37,1712209446234375
-100.81,1712209446250000
-64.69,1712209446265625
-25.48,1712209446281250
11.29,1712209446296875
41.56,1712209446312500
63.51,1712209446328125
77.4,1712209446343750
84.63,1712209446359375
86.9,1712209446375000
85.65,1712209446390625
82.0,1712209446406250
76.97,1712209446421875
71.61,1712209446437500
66.9,1712209446453125
63.5,1712209446468750
61.63,1712209446484375
60.98,1712209446500000
61.06,1712209446515625
61.39,1712209446531250
61.77,1712209446546875
62.29,1712209446562500
63.1,1712209446578125
64.17,1712209446593750
65.15,1712209446609375
65.35,1712209446625000
63.97,1712209446640625
60.42,1712209446656250
54.48,1712209446671875
46.43,1712209446687500
36.93,1712209446703125
26.8,1712209446718750
16.68,1712209446734375
6.88,1712209446750000
-2.58,1712209446765625
-11.95,1712209446781250
-21.33,1712209446796875
-30.65,1712209446812500
-39.58,1712209446828125
-47.7,1712209446843750
-54.77,1712209446859375
-60.92,1712209446875000
-66.69,1712209446890625
-72.99,1712209446906250
-80.92,1712209446921875
-91.41,1712209446937500
-104.62,1712209446953125
-119.43,1712209446968750
-133.16,1712209446984375
-141.93,1712209447000000
-141.75,1712209447015625
-129.96,1712209447031250
-106.45,1712209447046875
-74.04,1712209447062500
-37.58,1712209447078125
-2.39,1712209447093750
27.37,1712209447109375
49.69,1712209447125000
64.52,1712209447140625
73.02,1712209447156250
76.55,1712209447171875
76.13,1712209447187500
72.42,1712209447203125
66.16,1712209447218750
58.42,1712209447234375
50.63,1712209447250000
44.31,1712209447265625
40.52,1712209447281250
39.65,1712209447296875
41.2,1712209447312500
44.12,1712209447328125
47.16,1712209447343750
49.37,1712209447359375
50.3,1712209447375000
50.05,1712209447390625
49.1,1712209447406250
47.88,1712209447421875
46.49,1712209447437500
44.44,1712209447453125
40.85,1712209447468750
34.78,1712209447484375
25.81,1712209447500000
14.26,1712209447515625
1.3,1712209447531250
-11.54,1712209447546875
-22.93,1712209447562500
-32.21,1712209447578125
-39.58,1712209447593750
-45.83,1712209447609375
-52.02,1712209447625000
-59.13,1712209447640625
-67.89,1712209447656250
-78.7,1712209447671875
-91.45,1712209447687500
-105.07,1712209447703125
-117.35,1712209447718750
-125.03,1712209447734375
-124.58,1712209447750000
-113.57,1712209447765625
-91.71,1712209447781250
-61.4,1712209447796875
-26.99,1712209447812500
6.53,1712209447828125
35.15,1712209447843750
56.7,1712209447859375
70.98,1712209447875000
79.02,1712209447890625
82.19,1712209447906250
81.57,1712209447921875
77.92,1712209447937500
71.92,1712209447953125
64.49,1712209447968750
56.81,1712209447984375
50.14,1712209448000000
45.51,1712209448015625
43.41,1712209448031250
43.75,1712209448046875
45.98,1712209448062500
49.23,1712209448078125
52.63,1712209448093750
55.44,1712209448109375
57.11,1712209448125000
57.38,1712209448140625
56.15,1712209448156250
53.45,1712209448171875
49.32,1712209448187500
43.87,1712209448203125
37.09,1712209448218750
28.99,1712209448234375
19.63,1712209448250000
9.16,1712209448265625
-2.02,1712209448281250
-13.34,1712209448296875
-24.16,1712209448312500
-33.88,1712209448328125
-42.14,1712209448343750
-48.96,1712209448359375
-54.72,1712209448375000
-60.03,1712209448390625
-65.68,1712209448406250
-72.54,1712209448421875
-81.45,1712209448437500
-92.83,1712209448453125
-106.28,1712209448468750
-119.98,1712209448484375
-130.75,1712209448500000
-134.63,1712209448515625
-128.21,1712209448531250
-110.04,1712209448546875
-81.52,1712209448562500
-46.63,1712209448578125
-10.64,1712209448593750
21.56,1712209448609375
46.85,1712209448625000
64.29,1712209448640625
74.63,1712209448656250
79.43,1712209448671875
80.21,1712209448687500
78.11,1712209448703125
74.02,1712209448718750
68.73,1712209448734375
63.11,1712209448750000
58.0,1712209448765625
54.03,1712209448781250
51.5,1712209448796875
50.36,1712209448812500
50.35,1712209448828125
51.14,1712209448843750
52.45,1712209448859375
54.06,1712209448875000
55.66,1712209448890625
56.9,1712209448906250
57.23,1712209448921875
56.08,1712209448937500
53.06,1712209448953125
48.05,1712209448968750
41.36,1712209448984375
33.54,1712209449000000
25.15,1712209449015625
16.56,1712209449031250
7.82,1712209449046875
-1.26,1712209449062500
-10.86,1712209449078125
-20.91,1712209449093750
-31.11,1712209449109375
-40.89,1712209449125000
-49.76,1712209449140625
-57.41,1712209449156250
-63.96,1712209449171875
-69.92,1712209449187500
-76.21,1712209449203125
-83.97,1712209449218750
-94.15,1712209449234375
-106.88,1712209449250000
-120.9,1712209449265625
-133.31,1712209449281250
-140.1,1712209449296875
-137.41,1712209449312500
-122.98,1712209449328125
-97.25,1712209449343750
-63.43,1712209449359375
-26.44,1712209449375000
8.57,1712209449390625
37.78,1712209449406250
59.31,1712209449421875
73.16,1712209449437500
80.4,1712209449453125
82.54,1712209449468750
80.93,1712209449484375
76.79,1712209449500000
71.19,1712209449515625
65.15,1712209449531250
59.67,1712209449546875
55.52,1712209449562500
53.21,1712209449578125
52.82,1712209449593750
54.08,1712209449609375
56.39,1712209449625000
59.04,1712209449640625
61.34,1712209449656250
62.77,1712209449671875
63.11,1712209449687500
62.28,1712209449703125
60.31,1712209449718750
57.27,1712209449734375
53.16,1712209449750000
48.01,1712209449765625
41.85,1712209449781250
34.64,1712209449796875
26.31,1712209449812500
16.75,1712209449828125
6.01,1712209449843750
-5.61,1712209449859375
-17.49,1712209449875000
-28.79,1712209449890625
-38.7,1712209449906250
-46.77,1712209449921875
-53.03,1712209449937500
-58.07,1712209449953125
-62.79,1712209449968750
-68.29,1712209449984375
-75.65,1712209450000000
-85.6,1712209450015625
-98.2,1712209450031250
-112.28,1712209450046875
-125.2,1712209450062500
-133.22,1712209450078125
-132.51,1712209450093750
-120.54,1712209450109375
-97.21,1712209450125000
-65.14,1712209450140625
-28.98,1712209450156250
6.12,1712209450171875
35.98,1712209450187500
58.32,1712209450203125
72.77,1712209450218750
80.25,1712209450234375
82.15,1712209450250000
79.77,1712209450265625
74.21,1712209450281250
66.52,1712209450296875
57.85,1712209450312500
49.48,1712209450328125
42.61,1712209450343750
38.06,1712209450359375
36.08,1712209450375000
36.26,1712209450390625
37.74,1712209450406250
39.58,1712209450421875
41.03,1712209450437500
41.82,1712209450453125
42.07,1712209450468750
42.07,1712209450484375
42.0,1712209450500000
41.59,1712209450515625
40.18,1712209450531250
36.91,1712209450546875
31.09,1712209450562500
22.46,1712209450578125
11.4,1712209450593750
-1.1,1712209450609375
-13.76,1712209450625000
-25.38,1712209450640625
-35.18,1712209450656250
-42.99,1712209450671875
-49.19,1712209450687500
-54.56,1712209450703125
-60.05,1712209450718750
-66.67,1712209450734375
-75.18,1712209450750000
-85.85,1712209450765625
-97.91,1712209450781250
-109.25,1712209450796875
-116.71,1712209450812500
-116.76,1712209450828125
-106.83,1712209450843750
-86.44,1712209450859375
-57.63,1712209450875000
-24.46,1712209450890625
8.3,1712209450906250
36.64,1712209450921875
58.28,1712209450937500
72.76,1712209450953125
80.85,1712209450968750
83.65,1712209450984375
82.06,1712209451000000
76.68,1712209451015625
68.17,1712209451031250
57.57,1712209451046875
46.47,1712209451062500
36.73,1712209451078125
29.96,1712209451093750
27.05,1712209451109375
27.85,1712209451125000
31.29,1712209451140625
35.79,1712209451156250
39.84,1712209451171875
42.37,1712209451187500
43.02,1712209451203125
42.02,1712209451218750
39.89,1712209451234375
37.06,1712209451250000
33.59,1712209451265625
29.14,1712209451281250
23.14,1712209451296875
15.11,1712209451312500
4.98,1712209451328125
-6.76,1712209451343750
-19.17,1712209451359375
-31.18,1712209451375000
-41.9,1712209451390625
-50.86,1712209451406250
-58.13,1712209451421875
-64.18,1712209451437500
-69.78,1712209451453125
-75.94,1712209451468750
-83.77,1712209451484375
-94.15,1712209451500000
-107.2,1712209451515625
-121.72,1712209451531250
-134.97,1712209451546875
-143.03,1712209451562500
-141.96,1712209451578125
-129.15,1712209451593750
-104.5,1712209451609375
-70.58,1712209451625000
-32.03,1712209451640625
5.88,1712209451656250
38.72,1712209451671875
63.83,1712209451687500
80.5,1712209451703125
89.52,1712209451718750
92.36,1712209451734375
90.6,1712209451750000
85.54,1712209451765625
78.29,1712209451781250
69.86,1712209451796875
61.28,1712209451812500
53.59,1712209451828125
47.71,1712209451843750
44.21,1712209451859375
43.21,1712209451875000
44.29,1712209451890625
46.65,1712209451906250
49.35,1712209451921875
51.58,1712209451937500
52.8,1712209451953125
52.81,1712209451968750
51.65,1712209451984375
49.38,1712209452000000
46.02,1712209452015625
41.45,1712209452031250
35.44,1712209452046875
27.77,1712209452062500
18.37,1712209452078125
7.48,1712209452093750
-4.37,1712209452109375
-16.44,1712209452125000
-28.02,1712209452140625
-38.59,1712209452156250
-47.91,1712209452171875
-56.04,1712209452187500
-63.29,1712209452203125
-70.19,1712209452218750
-77.53,1712209452234375
-86.36,1712209452250000
-97.59,1712209452265625
-111.35,1712209452281250
-126.31,1712209452296875
-139.4,1712209452312500
-146.32,1712209452328125
-143.02,1712209452343750
-127.26,1712209452359375
-99.66,1712209452375000
-63.82,1712209452390625
-24.99,1712209452406250
11.55,1712209452421875
41.99,1712209452437500
64.64,1712209452453125
79.63,1712209452468750
88.08,1712209452484375
91.29,1712209452500000
90.37,1712209452515625
86.22,1712209452531250
79.81,1712209452546875
72.23,1712209452562500
64.71,1712209452578125
58.3,1712209452593750
53.73,1712209452609375
51.27,1712209452625000
50.69,1712209452640625
51.47,1712209452656250
52.99,1712209452671875
54.62,1712209452687500
55.87,1712209452703125
56.42,1712209452718750
56.12,1712209452734375
54.93,1712209452750000
52.92,1712209452765625
50.07,1712209452781250
46.2,1712209452796875
40.94,1712209452812500
33.83,1712209452828125
24.53,1712209452843750
13.13,1712209452859375
0.27,1712209452875000
-12.9,1712209452890625
-25.15,1712209452906250
-35.6,1712209452921875
-43.97,1712209452937500
-50.72,1712209452953125
-56.64,1712209452968750
-62.68,1712209452984375
-69.64,1712209453000000
-78.25,1712209453015625
-89.05,1712209453031250
-102.09,1712209453046875
-116.38,1712209453062500
-129.51,1712209453078125
-137.72,1712209453093750
-136.95,1712209453109375
-124.33,1712209453125000
-99.58,1712209453140625
-65.48,1712209453156250
-27.1,1712209453171875
9.91,1712209453187500
41.03,1712209453203125
63.97,1712209453218750
78.61,1712209453234375
86.23,1712209453250000
88.42,1712209453265625
86.51,1712209453281250
81.41,1712209453296875
74.01,1712209453312500
65.32,1712209453328125
56.65,1712209453343750
49.26,1712209453359375
44.11,1712209453375000
41.57,1712209453390625
41.39,1712209453406250
42.81,1712209453421875
44.94,1712209453437500
47.01,1712209453453125
48.56,1712209453468750
49.44,1712209453484375
49.71,1712209453500000
49.39,1712209453515625
48.3,1712209453531250
46.03,1712209453546875
41.98,1712209453562500
35.66,1712209453578125
26.82,1712209453593750
15.71,1712209453609375
3.07,1712209453625000
-9.99,1712209453640625
-22.33,1712209453656250
-33.09,1712209453671875
-41.88,1712209453687500
-48.91,1712209453703125
-54.87,1712209453718750
-60.81,1712209453734375
-67.87,1712209453750000
-77.02,1712209453765625
-88.66,1712209453781250
-102.2,1712209453796875
-115.71,1712209453812500
-126.09,1712209453828125
-129.7,1712209453843750
-123.46,1712209453859375
-106.11,1712209453875000
-78.79,1712209453890625
-44.98,1712209453906250
-9.44,1712209453921875
23.21,1712209453937500
49.65,1712209453953125
68.39,1712209453968750
79.4,1712209453984375
83.53,1712209454000000
81.8,1712209454015625
75.23,1712209454031250
65.02,1712209454046875
52.76,1712209454062500
40.52,1712209454078125
30.35,1712209454093750
23.76,1712209454109375
21.14,1712209454125000
21.72,1712209454140625
24.01,1712209454156250
26.51,1712209454171875
28.42,1712209454187500
29.8,1712209454203125
31.31,1712209454218750
33.47,1712209454234375
36.21,1712209454250000
38.48,1712209454265625
38.73,1712209454281250
35.44,1712209454296875
27.88,1712209454312500
16.43,1712209454328125
2.48,1712209454343750
-12.03,1712209454359375
-25.35,1712209454375000
-36.39,1712209454390625
-45.01,1712209454406250
-51.99,1712209454421875
-58.68,1712209454437500
-66.66,1712209454453125
-77.26,1712209454468750
-90.99,1712209454484375
-106.94,1712209454500000
-122.61,1712209454515625
-134.12,1712209454531250
-137.26,1712209454546875
-128.85,1712209454562500
-108.01,1712209454578125
-76.71,1712209454593750
-39.28,1712209454609375
-1.09,1712209454625000
33.08,1712209454640625
60.14,1712209454656250
79.03,1712209454671875
90.25,1712209454687500
95.05,1712209454703125
94.68,1712209454718750
90.12,1712209454734375
82.24,1712209454750000
72.09,1712209454765625
61.16,1712209454781250
51.16,1712209454796875
43.69,1712209454812500
39.69,1712209454828125
39.11,1712209454843750
41.0,1712209454859375
43.85,1712209454875000
46.24,1712209454890625
47.32,1712209454906250
46.99,1712209454921875
45.73,1712209454937500
44.15,1712209454953125
42.48,1712209454968750
40.39,1712209454984375
37.11,1712209455000000
31.68,1712209455015625
23.5,1712209455031250
12.53,1712209455046875
-0.53,1712209455062500
-14.49,1712209455078125
-28.0,1712209455093750
-40.0,1712209455109375
-49.99,1712209455125000
-58.12,1712209455140625
-65.16,1712209455156250
-72.19,1712209455171875
-80.44,1712209455187500
-90.92,1712209455203125
-104.03,1712209455218750
-119.0,1712209455234375
-133.65,1712209455250000
-144.41,1712209455265625
-147.19,1712209455281250
-138.7,1712209455296875
-117.81,1712209455312500
-86.28,1712209455328125
-48.36,1712209455343750
-9.54,1712209455359375
25.2,1712209455375000
52.61,1712209455390625
71.66,1712209455406250
82.98,1712209455421875
88.07,1712209455437500
88.39,1712209455453125
85.15,1712209455468750
79.3,1712209455484375
71.86,1712209455500000
64.06,1712209455515625
57.15,1712209455531250
52.18,1712209455546875
49.72,1712209455562500
49.7,1712209455578125
51.51,1712209455593750
54.17,1712209455609375
56.65,1712209455625000
58.18,1712209455640625
58.37,1712209455656250
57.27,1712209455671875
55.2,1712209455687500
52.54,1712209455703125
49.47,1712209455718750
45.82,1712209455734375
41.1,1712209455750000
34.73,1712209455765625
26.31,1712209455781250
15.87,1712209455796875
4.01,1712209455812500
-8.34,1712209455828125
-20.18,1712209455843750
-30.81,1712209455859375
-39.95,1712209455875000
-47.8,1712209455890625
-54.82,1712209455906250
-61.73,1712209455921875
-69.4,1712209455937500
-78.79,1712209455953125
-90.6,1712209455968750
-104.63,1712209455984375
-119.23,1712209456000000
-131.13,1712209456015625
-136.2,1712209456031250
-130.8,1712209456046875
-113.34,1712209456062500
-85.13,1712209456078125
-50.04,1712209456093750
-13.23,1712209456109375
20.51,1712209456125000
48.05,1712209456140625
68.26,1712209456156250
81.48,1712209456171875
88.73,1712209456187500
91.08,1712209456203125
89.36,1712209456218750
84.43,1712209456234375
77.3,1712209456250000
69.23,1712209456265625
61.54,1712209456281250
55.38,1712209456296875
51.45,1712209456312500
49.91,1712209456328125
50.43,1712209456343750
52.32,1712209456359375
54.71,1712209456375000
56.8,1712209456390625
57.98,1712209456406250
57.92,1712209456421875
56.49,1712209456437500
53.76,1712209456453125
49.88,1712209456468750
44.98,1712209456484375
39.11,1712209456500000
32.22,1712209456515625
24.14,1712209456531250
14.78,1712209456546875
4.18,1712209456562500
-7.29,1712209456578125
-18.97,1712209456593750
-30.06,1712209456609375
-39.88,1712209456625000
-48.14,1712209456640625
-54.97,1712209456656250
-60.94,1712209456671875
-66.87,1712209456687500
-73.74,1712209456703125
-82.49,1712209456718750
-93.59,1712209456734375
-106.57,1712209456750000
-119.57,1712209456765625
-129.39,1712209456781250
-132.17,1712209456796875
-124.72,1712209456812500
-105.79,1712209456828125
-76.88,1712209456843750
-41.88,1712209456859375
-5.91,1712209456875000
26.31,1712209456890625
51.65,1712209456906250
69.05,1712209456921875
79.03,1712209456937500
82.79,1712209456953125
81.55,1712209456968750
76.26,1712209456984375
67.8,1712209457000000
57.29,1712209457015625
46.27,1712209457031250
36.53,1712209457046875
29.62,1712209457062500
26.38,1712209457078125
26.65,1712209457093750
29.37,1712209457109375
33.05,1712209457125000
36.36,1712209457140625
38.59,1712209457156250
39.73,1712209457171875
40.16,1712209457187500
40.17,1712209457203125
39.59,1712209457218750
37.7,1712209457234375
33.56,1712209457250000
26.49,1712209457265625
16.47,1712209457281250
4.31,1712209457296875
-8.62,1712209457312500
-20.77,1712209457328125
-31.03,1712209457343750
-38.97,1712209457359375
-45.08,1712209457375000
-50.51,1712209457390625
-56.77,1712209457406250
-65.3,1712209457421875
-76.84,1712209457437500
-90.97,1712209457453125
-105.76,1712209457468750
-117.97,1712209457484375
-123.75,1712209457500000
-119.87,1712209457515625
-104.81,1712209457531250
-79.56,1712209457546875
-47.35,1712209457562500
-12.79,1712209457578125
19.61,1712209457593750
46.55,1712209457609375
66.53,1712209457625000
79.61,1712209457640625
86.73,1712209457656250
88.98,1712209457671875
87.16,1712209457687500
81.81,1712209457703125
73.57,1712209457718750
63.42,1712209457734375
52.81,1712209457750000
43.39,1712209457765625
36.65,1712209457781250
33.4,1712209457796875
33.62,1712209457812500
36.43,1712209457828125
40.46,1712209457843750
44.27,1712209457859375
46.81,1712209457875000
47.59,1712209457890625
46.69,1712209457906250
44.45,1712209457921875
41.19,1712209457937500
36.93,1712209457953125
31.34,1712209457968750
23.98,1712209457984375
14.61,1712209458000000
3.43,1712209458015625
-8.8,1712209458031250
-21.0,1712209458046875
-32.17,1712209458062500
-41.72,1712209458078125
-49.66,1712209458093750
-56.47,1712209458109375
-62.9,1712209458125000
-69.72,1712209458140625
-77.74,1712209458156250
-87.7,1712209458171875
-100.05,1712209458187500
-114.4,1712209458203125
-129.06,1712209458218750
-140.85,1712209458234375
-145.74,1712209458250000
-140.13,1712209458265625
-122.27,1712209458281250
-93.2,1712209458296875
-56.67,1712209458312500
-17.97,1712209458328125
17.7,1712209458343750
46.64,1712209458359375
67.31,1712209458375000
80.05,1712209458390625
86.29,1712209458406250
87.72,1712209458421875
85.7,1712209458437500
81.22,1712209458453125
75.04,1712209458468750
68.02,1712209458484375
61.15,1712209458500000
55.46,1712209458515625
51.77,1712209458531250
50.36,1712209458546875
50.93,1712209458562500
52.67,1712209458578125
54.65,1712209458593750
56.11,1712209458609375
56.67,1712209458625000
56.3,1712209458640625
55.16,1712209458656250
53.32,1712209458671875
50.69,1712209458687500
46.97,1712209458703125
41.77,1712209458718750
34.76,1712209458734375
25.84,1712209458750000
15.22,1712209458765625
3.51,1712209458781250
-8.44,1712209458796875
-19.74,1712209458812500
-29.75,1712209458828125
-38.24,1712209458843750
-45.46,1712209458859375
-51.97,1712209458875000
-58.47,1712209458890625
-65.67,1712209458906250
-74.29,1712209458921875
-84.9,1712209458937500
-97.63,1712209458953125
-111.61,1712209458968750
-124.62,1712209458984375
-133.24,1712209459000000
-133.69,1712209459015625
-123.26,1712209459031250
-101.44,1712209459046875
-70.52,1712209459062500
-34.82,1712209459078125
0.59,1712209459093750
31.54,1712209459109375
55.63,1712209459125000
72.34,1712209459140625
82.42,1712209459156250
87.01,1712209459171875
87.19,1712209459187500
83.78,1712209459203125
77.64,1712209459218750
69.83,1712209459234375
61.63,1712209459250000
54.35,1712209459265625
48.97,1712209459281250
46.03,1712209459296875
45.4,1712209459312500
46.49,1712209459328125
48.33,1712209459343750
49.98,1712209459359375
50.76,1712209459375000
50.45,1712209459390625
49.28,1712209459406250
47.66,1712209459421875
45.85,1712209459437500
43.61,1712209459453125
40.27,1712209459468750
34.93,1712209459484375
26.97,1712209459500000
16.41,1712209459515625
3.98,1712209459531250
-9.02,1712209459546875
-21.29,1712209459562500
-31.88,1712209459578125
-40.51,1712209459593750
-47.46,1712209459609375
-53.44,1712209459625000
-59.37,1712209459640625
-66.2,1712209459656250
-74.86,1712209459671875
-85.82,1712209459687500
-98.8,1712209459703125
-112.26,1712209459718750
-123.47,1712209459734375
-128.93,1712209459750000
-125.45,1712209459765625
-111.37,1712209459781250
-87.26,1712209459796875
-55.99,1712209459812500
-21.85,1712209459828125
10.7,1712209459843750
38.21,1712209459859375
58.82,1712209459875000
72.27,1712209459890625
79.22,1712209459906250
80.67,1712209459921875
77.59,1712209459937500
70.86,1712209459953125
61.52,1712209459968750
50.97,1712209459984375
40.91,1712209460000000
32.98,1712209460015625
28.3,1712209460031250
27.07,1712209460046875
28.56,1712209460062500
31.48,1712209460078125
34.46,1712209460093750
36.68,1712209460109375
37.95,1712209460125000
38.6,1712209460140625
38.98,1712209460156250
39.01,1712209460171875
38.02,1712209460187500
34.94,1712209460203125
28.83,1712209460218750
19.37,1712209460234375
7.18,1712209460250000
-6.36,1712209460265625
-19.53,1712209460281250
-30.98,1712209460296875
-40.11,1712209460312500
-47.29,1712209460328125
-53.57,1712209460343750
-60.3,1712209460359375
-68.76,1712209460375000
-79.73,1712209460390625
-93.18,1712209460406250
-107.85,1712209460421875
-121.11,1712209460437500
-129.27,1712209460453125
-128.58,1712209460468750
-116.5,1712209460484375
-92.91,1712209460500000
-60.46,1712209460515625
-23.81,1712209460531250
11.78,1712209460546875
42.1,1712209460562500
64.95,1712209460578125
80.14,1712209460593750
88.77,1712209460609375
92.27,1712209460625000
91.78,1712209460640625
87.95,1712209460656250
81.35,1712209460671875
72.8,1712209460687500
63.49,1712209460703125
54.91,1712209460718750
48.39,1712209460734375
44.75,1712209460750000
43.96,1712209460765625
45.26,1712209460781250
47.47,1712209460796875
49.47,1712209460812500
50.58,1712209460828125
50.64,1712209460843750
49.86,1712209460859375
48.46,1712209460875000
46.45,1712209460890625
43.52,1712209460906250
39.22,1712209460921875
33.16,1712209460937500
25.18,1712209460953125
15.38,1712209460968750
4.1,1712209460984375
-8.06,1712209461000000
-20.38,1712209461015625
-32.12,1712209461031250
-42.68,1712209461046875
-51.74,1712209461062500
-59.4,1712209461078125
-66.13,1712209461093750
-72.77,1712209461109375
-80.4,1712209461125000
-90.03,1712209461140625
-102.23,1712209461156250
-116.46,1712209461171875
-130.62,1712209461187500
-141.19,1712209461203125
-144.03,1712209461218750
-135.78,1712209461234375
-115.25,1712209461250000
-84.19,1712209461265625
-46.81,1712209461281250
-8.55,1712209461296875
25.7,1712209461312500
52.77,1712209461328125
71.6,1712209461343750
82.76,1712209461359375
87.71,1712209461375000
88.0,1712209461390625
85.02,1712209461406250
79.93,1712209461421875
73.78,1712209461437500
67.52,1712209461453125
61.93,1712209461468750
57.58,1712209461484375
54.76,1712209461500000
53.48,1712209461515625
53.55,1712209461531250
54.53,1712209461546875
55.89,1712209461562500
57.05,1712209461578125
57.56,1712209461593750
57.1,1712209461609375
55.65,1712209461625000
53.29,1712209461640625
50.07,1712209461656250
45.97,1712209461671875
40.78,1712209461687500
34.25,1712209461703125
26.2,1712209461718750
16.65,1712209461734375
5.94,1712209461750000
-5.34,1712209461765625
-16.5,1712209461781250
-26.95,1712209461796875
-36.26,1712209461812500
-44.29,1712209461828125
-51.17,1712209461843750
-57.31,1712209461859375
-63.32,1712209461875000
-70.13,1712209461890625
-78.71,1712209461906250
-89.72,1712209461921875
-102.86,1712209461937500
-116.36,1712209461953125
-127.05,1712209461968750
-131.0,1712209461984375
-124.88,1712209462000000
-107.29,1712209462015625
-79.48,1712209462031250
-45.16,1712209462046875
-9.27,1712209462062500
23.51,1712209462078125
50.03,1712209462093750
69.04,1712209462109375
80.96,1712209462125000
86.94,1712209462140625
88.27,1712209462156250
85.94,1712209462171875
80.73,1712209462187500
73.51,1712209462203125
65.33,1712209462218750
57.45,1712209462234375
51.04,1712209462250000
46.86,1712209462265625
45.11,1712209462281250
45.37,1712209462296875
46.85,1712209462312500
48.7,1712209462328125
50.25,1712209462343750
51.14,1712209462359375
51.29,1712209462375000
50.72,1712209462390625
49.45,1712209462406250
47.36,1712209462421875
44.2,1712209462437500
39.61,1712209462453125
33.3,1712209462468750
25.09,1712209462484375
15.08,1712209462500000
3.71,1712209462515625
-8.29,1712209462531250
-20.04,1712209462546875
-30.76,1712209462562500
-40.0,1712209462578125
-47.68,1712209462593750
-54.15,1712209462609375
-59.97,1712209462625000
-65.85,1712209462640625
-72.64,1712209462656250
-81.16,1712209462671875
-91.92,1712209462687500
-104.56,1712209462703125
-117.36,1712209462718750
-127.19,1712209462734375
-130.22,1712209462750000
-123.2,1712209462765625
-104.86,1712209462781250
-76.71,1712209462796875
-42.72,1712209462812500
-7.98,1712209462828125
22.9,1712209462843750
47.05,1712209462859375
63.66,1712209462875000
73.42,1712209462890625
77.61,1712209462906250
77.28,1712209462921875
73.14,1712209462937500
65.8,1712209462953125
56.13,1712209462968750
45.56,1712209462984375
35.79,1712209463000000
28.45,1712209463015625
24.54,1712209463031250
24.13,1712209463046875
26.43,1712209463062500
30.1,1712209463078125
33.82,1712209463093750
36.65,1712209463109375
38.29,1712209463125000
38.93,1712209463140625
38.92,1712209463156250
38.39,1712209463171875
37.06,1712209463187500
34.23,1712209463203125
29.12,1712209463218750
21.24,1712209463234375
10.73,1712209463250000
-1.54,1712209463265625
-14.24,1712209463281250
-26.0,1712209463296875
-35.93,1712209463312500
-43.85,1712209463328125
-50.35,1712209463343750
-56.44,1712209463359375
-63.29,1712209463375000
-71.84,1712209463390625
-82.61,1712209463406250
-95.4,1712209463421875
-108.97,1712209463437500
-120.95,1712209463453125
-128.1,1712209463468750
-127.1,1712209463484375
-115.66,1712209463500000
-93.59,1712209463515625
-63.13,1712209463531250
-28.41,1712209463546875
5.83,1712209463562500
35.64,1712209463578125
58.73,1712209463593750
74.58,1712209463609375
83.88,1712209463625000
87.7,1712209463640625
87.04,1712209463656250
82.68,1712209463671875
75.48,1712209463687500
66.57,1712209463703125
57.34,1712209463718750
49.16,1712209463734375
43.06,1712209463750000
39.47,1712209463765625
38.2,1712209463781250
38.72,1712209463796875
40.35,1712209463812500
42.44,1712209463828125
44.47,1712209463843750
46.03,1712209463859375
46.77,1712209463875000
46.42,1712209463890625
44.82,1712209463906250
41.89,1712209463921875
37.6,1712209463937500
31.93,1712209463953125
24.77,1712209463968750
16.07,1712209463984375
5.9,1712209464000000
-5.39,1712209464015625
-17.21,1712209464031250
-28.75,1712209464046875
-39.32,1712209464062500
-48.48,1712209464078125
-56.18,1712209464093750
-62.8,1712209464109375
-69.02,1712209464125000
-75.73,1712209464140625
-83.89,1712209464156250
-94.25,1712209464171875
-106.98,1712209464187500
-121.07,1712209464203125
-134.07,1712209464218750
-142.31,1712209464234375
-141.86,1712209464250000
-129.86,1712209464265625
-105.82,1712209464281250
-72.12,1712209464296875
-33.38,1712209464312500
4.91,1712209464328125
38.06,1712209464343750
63.29,1712209464359375
79.94,1712209464375000
88.94,1712209464390625
91.93,1712209464406250
90.55,1712209464421875
86.11,1712209464437500
79.72,1712209464453125
72.37,1712209464468750
65.03,1712209464484375
58.57,1712209464500000
53.63,1712209464515625
50.53,1712209464531250
49.24,1712209464546875
49.43,1712209464562500
50.63,1712209464578125
52.35,1712209464593750
54.13,1712209464609375
55.63,1712209464625000
56.54,1712209464640625
56.59,1712209464656250
55.47,1712209464671875
52.94,1712209464687500
48.84,1712209464703125
43.11,1712209464718750
35.91,1712209464734375
27.49,1712209464750000
18.16,1712209464765625
8.19,1712209464781250
-2.26,1712209464796875
-13.07,1712209464812500
-24.08,1712209464828125
-35.02,1712209464843750
-45.44,1712209464859375
-54.79,1712209464875000
-62.66,1712209464890625
-69.02,1712209464906250
-74.32,1712209464921875
-79.6,1712209464937500
-86.2,1712209464953125
-95.35,1712209464968750
-107.41,1712209464984375
-121.31,1712209465000000
-134.29,1712209465015625
-142.35,1712209465031250
-141.39,1712209465046875
-128.71,1712209465062500
-104.15,1712209465078125
-70.34,1712209465093750
-32.02,1712209465109375
5.52,1712209465125000
37.92,1712209465140625
62.67,1712209465156250
79.19,1712209465171875
88.23,1712209465187500
91.05,1712209465203125
88.91,1712209465218750
82.9,1712209465234375
74.11,1712209465250000
63.8,1712209465265625
53.4,1712209465281250
44.27,1712209465296875
37.5,1712209465312500
33.62,1712209465328125
32.58,1712209465343750
33.77,1712209465359375
36.3,1712209465375000
39.25,1712209465390625
41.9,1712209465406250
43.8,1712209465421875
44.79,1712209465437500
44.84,1712209465453125
43.91,1712209465468750
41.83,1712209465484375
38.27,1712209465500000
32.87,1712209465515625
25.34,1712209465531250
15.7,1712209465546875
4.38,1712209465562500
-7.78,1712209465578125
-19.73,1712209465593750
-30.52,1712209465609375
-39.58,1712209465625000
-46.92,1712209465640625
-53.06,1712209465656250
-58.84,1712209465671875
-65.2,1712209465687500
-73.04,1712209465703125
-82.92,1712209465718750
-94.77,1712209465734375
-107.48,1712209465750000
-118.65,1712209465765625
-124.95,1712209465781250
-122.96,1712209465796875
-110.44,1712209465812500
-87.35,1712209465828125
-56.11,1712209465843750
-20.99,1712209465859375
13.26,1712209465875000
42.79,1712209465890625
65.44,1712209465906250
80.72,1712209465921875
89.28,1712209465937500
92.06,1712209465953125
89.85,1712209465968750
83.29,1712209465984375
73.15,1712209466000000
60.64,1712209466015625
47.5,1712209466031250
35.74,1712209466046875
27.13,1712209466062500
22.77,1712209466078125
22.57,1712209466093750
25.48,1712209466109375
29.78,1712209466125000
33.8,1712209466140625
36.44,1712209466156250
37.49,1712209466171875
37.38,1712209466187500
36.68,1712209466203125
35.62,1712209466218750
33.77,1712209466234375
30.21,1712209466250000
24.0,1712209466265625
14.74,1712209466281250
2.86,1712209466296875
-10.48,1712209466312500
-23.79,1712209466328125
-35.83,1712209466343750
-45.99,1712209466359375
-54.44,1712209466375000
-61.87,1712209466390625
-69.23,1712209466406250
-77.5,1712209466421875
-87.58,1712209466437500
-100.01,1712209466453125
-114.66,1712209466468750
-130.21,1712209466484375
-143.88,1712209466500000
-151.76,1712209466515625
-149.85,1712209466531250
-135.51,1712209466546875
-108.71,1712209466562500
-72.38,1712209466578125
-31.66,1712209466593750
7.75,1712209466609375
41.26,1712209466625000
66.44,1712209466640625
83.05,1712209466656250
92.32,1712209466671875
95.86,1712209466687500
94.97,1712209466703125
90.52,1712209466718750
83.24,1712209466734375
74.07,1712209466750000
64.3,1712209466765625
55.39,1712209466781250
48.55,1712209466796875
44.39,1712209466812500
42.81,1712209466828125
43.18,1712209466843750
44.63,1712209466859375
46.4,1712209466875000
47.97,1712209466890625
49.09,1712209466906250
49.67,1712209466921875
49.64,1712209466937500
48.83,1712209466953125
46.88,1712209466968750
43.34,1712209466984375
37.73,1712209467000000
29.72,1712209467015625
19.31,1712209467031250
6.9,1712209467046875
-6.58,1712209467062500
-20.01,1712209467078125
-32.25,1712209467093750
-42.58,1712209467109375
-50.88,1712209467125000
-57.74,1712209467140625
-64.25,1712209467156250
-71.76,1712209467171875
-81.49,1712209467187500
-94.09,1712209467203125
-109.13,1712209467218750
-124.72,1712209467234375
-137.57,1712209467250000
-143.63,1712209467265625
-139.26,1712209467281250
-122.6,1712209467296875
-94.48,1712209467312500
-58.4,1712209467328125
-19.44,1712209467343750
17.25,1712209467359375
47.84,1712209467375000
70.52,1712209467390625
85.31,1712209467406250
93.32,1712209467421875
95.91,1712209467437500
94.23,1712209467453125
89.15,1712209467468750
81.52,1712209467484375
72.41,1712209467500000
63.19,1712209467515625
55.27,1712209467531250
49.76,1712209467546875
47.14,1712209467562500
47.09,1712209467578125
48.63,1712209467593750
50.55,1712209467609375
51.82,1712209467625000
51.96,1712209467640625
51.1,1712209467656250
49.71,1712209467671875
48.27,1712209467687500
46.83,1712209467703125
44.95,1712209467718750
41.79,1712209467734375
36.51,1712209467750000
28.59,1712209467765625
18.13,1712209467781250
5.91,1712209467796875
-6.89,1712209467812500
-19.05,1712209467828125
-29.74,1712209467843750
-38.78,1712209467859375
-46.56,1712209467875000
-53.82,1712209467890625
-61.39,1712209467906250
-70.09,1712209467921875
-80.57,1712209467937500
-93.16,1712209467953125
-107.38,1712209467968750
-121.53,1712209467984375
-132.57,1712209468000000
-136.67,1712209468015625
-130.46,1712209468031250
-112.36,1712209468046875
-83.53,1712209468062500
-47.68,1712209468078125
-10.0,1712209468093750
24.46,1712209468109375
52.15,1712209468125000
71.59,1712209468140625
83.08,1712209468156250
87.89,1712209468171875
87.46,1712209468187500
82.97,1712209468203125
75.36,1712209468218750
65.62,1712209468234375
54.99,1712209468250000
44.98,1712209468265625
37.1,1712209468281250
32.46,1712209468296875
31.37,1712209468312500
33.26,1712209468328125
36.88,1712209468343750
40.76,1712209468359375
43.77,1712209468375000
45.38,1712209468390625
45.68,1712209468406250
45.07,1712209468421875
43.88,1712209468437500
42.04,1712209468453125
39.01,1712209468468750
34.07,1712209468484375
26.61,1712209468500000
16.52,1712209468515625
4.37,1712209468531250
-8.66,1712209468546875
-21.21,1712209468562500
-32.09,1712209468578125
-40.74,1712209468593750
-47.36,1712209468609375
-52.77,1712209468625000
-58.11,1712209468640625
-64.55,1712209468656250
-73.04,1712209468671875
-84.03,1712209468687500
-97.18,1712209468703125
-110.96,1712209468718750
-122.62,1712209468734375
-128.54,1712209468750000
-125.31,1712209468765625
-110.92,1712209468781250
-85.74,1712209468796875
-52.66,1712209468812500
-16.3,1712209468828125
18.42,1712209468843750
47.68,1712209468859375
69.42,1712209468875000
83.35,1712209468890625
90.33,1712209468906250
91.69,1712209468921875
88.73,1712209468937500
82.68,1712209468953125
74.72,1712209468968750
66.09,1712209468984375
58.03,1712209469000000
51.59,1712209469015625
47.46,1712209469031250
45.9,1712209469046875
46.65,1712209469062500
49.08,1712209469078125
52.33,1712209469093750
55.57,1712209469109375
58.11,1712209469125000
59.53,1712209469140625
59.59,1712209469156250
58.17,1712209469171875
55.2,1712209469187500
50.67,1712209469203125
44.66,1712209469218750
37.32,1712209469234375
28.79,1712209469250000
19.16,1712209469265625
8.52,1712209469281250
-3.03,1712209469296875
-15.14,1712209469312500
-27.22,1712209469328125
-38.52,1712209469343750
-48.3,1712209469359375
-56.15,1712209469375000
-62.13,1712209469390625
-66.76,1712209469406250
-71.04,1712209469421875
-76.31,1712209469437500
-83.93,1712209469453125
-94.82,1712209469468750
-108.76,1712209469484375
-123.9,1712209469500000
-136.7,1712209469515625
-142.79,1712209469531250
-138.35,1712209469546875
-121.58,1712209469562500
-93.52,1712209469578125
-57.86,1712209469593750
-19.75,1712209469609375
15.73,1712209469625000
44.88,1712209469640625
65.95,1712209469656250
78.98,1712209469671875
85.13,1712209469687500
86.08,1712209469703125
83.52,1712209469718750
78.9,1712209469734375
73.45,1712209469750000
68.08,1712209469765625
63.42,1712209469781250
59.79,1712209469796875
57.27,1712209469812500
55.75,1712209469828125
55.02,1712209469843750
54.82,1712209469859375
55.02,1712209469875000
55.52,1712209469890625
56.27,1712209469906250
57.07,1712209469921875
57.53,1712209469937500
56.99,1712209469953125
54.75,1712209469968750
50.31,1712209469984375
43.64,1712209470000000
35.31,1712209470015625
26.26,1712209470031250
17.55,1712209470046875
9.85,1712209470062500
3.25,1712209470078125
-2.76,1712209470093750
-8.94,1712209470109375
-15.93,1712209470125000
-23.82,1712209470140625
-32.12,1712209470156250
-39.97,1712209470171875
-46.6,1712209470187500
-51.74,1712209470203125
-55.85,1712209470218750
-60.01,1712209470234375
-65.69,1712209470250000
-74.27,1712209470265625
-86.46,1712209470281250
-101.77,1712209470296875
-118.05,1712209470312500
-131.71,1712209470328125
-138.38,1712209470343750
-134.3,1712209470359375
-117.71,1712209470375000
-89.7,1712209470390625
-54.08,1712209470406250
-16.13,1712209470421875
18.96,1712209470437500
47.5,1712209470453125
67.89,1712209470468750
80.33,1712209470484375
86.09,1712209470500000
86.78,1712209470515625
83.96,1712209470531250
79.0,1712209470546875
73.18,1712209470562500
67.58,1712209470578125
62.97,1712209470593750
59.76,1712209470609375
57.95,1712209470625000
57.26,1712209470640625
57.27,1712209470656250
57.64,1712209470671875
58.19,1712209470687500
58.91,1712209470703125
59.81,1712209470718750
60.84,1712209470734375
61.64,1712209470750000
61.56,1712209470765625
59.87,1712209470781250
55.99,1712209470796875
49.79,1712209470812500
41.71,1712209470828125
32.61,1712209470843750
23.44,1712209470859375
14.82,1712209470875000
6.89,1712209470890625
-0.7,1712209470906250
-8.46,1712209470921875
-16.78,1712209470937500
-25.62,1712209470953125
-34.57,1712209470968750
-42.95,1712209470984375
-50.18,1712209471000000
-55.96,1712209471015625
-60.44,1712209471031250
-64.27,1712209471046875
-68.55,1712209471062500
-74.57,1712209471078125
-83.4,1712209471093750
-95.23,1712209471109375
-108.81,1712209471125000
-121.31,1712209471140625
-128.75,1712209471156250
-127.24,1712209471171875
-114.42,1712209471187500
-90.48,1712209471203125
-58.38,1712209471218750
-22.85,1712209471234375
