value,timestamp
-0.0,1710985763000000
-0.0,1710985763015625
-0.0,1710985763031250
-0.0,1710985763046875
-0.0,1710985763062500
-0.0,1710985763078125
-0.0,1710985763093750
-0.0,1710985763109375
-0.0,1710985763125000
-0.0,1710985763140625
0.0,1710985763156250
0.01,1710985763171875
0.01,1710985763187500
-0.0,1710985763203125
-0.03,1710985763218750
-0.05,1710985763234375
-0.05,1710985763250000
0.0,1710985763265625
0.13,1710985763281250
0.36,1710985763296875
0.66,1710985763312500
1.01,1710985763328125
1.37,1710985763343750
1.72,1710985763359375
2.06,1710985763375000
2.4,1710985763390625
2.79,1710985763406250
3.24,1710985763421875
3.8,1710985763437500
4.42,1710985763453125
5.06,1710985763468750
5.66,1710985763484375
6.2,1710985763500000
6.68,1710985763515625
7.15,1710985763531250
7.68,1710985763546875
8.31,1710985763562500
9.14,1710985763578125
10.09,1710985763593750
11.04,1710985763609375
11.88,1710985763625000
12.56,1710985763640625
13.14,1710985763656250
13.76,1710985763671875
14.65,1710985763687500
15.96,1710985763703125
17.91,1710985763718750
20.32,1710985763734375
22.9,1710985763750000
25.38,1710985763765625
27.58,1710985763781250
29.57,1710985763796875
31.68,1710985763812500
34.32,1710985763828125
37.81,1710985763843750
42.54,1710985763859375
48.15,1710985763875000
54.1,1710985763890625
59.83,1710985763906250
64.97,1710985763921875
69.58,1710985763937500
74.14,1710985763953125
79.34,1710985763968750
85.71,1710985763984375
93.76,1710985764000000
103.0,1710985764015625
112.62,1710985764031250
121.73,1710985764046875
129.77,1710985764062500
136.75,1710985764078125
143.3,1710985764093750
150.75,1710985764109375
157.77,1710985764125000
166.64,1710985764140625
177.95,1710985764156250
191.79,1710985764171875
206.97,1710985764187500
220.57,1710985764203125
228.25,1710985764218750
225.36,1710985764234375
208.53,1710985764250000
176.87,1710985764265625
132.76,1710985764281250
80.05,1710985764296875
23.07,1710985764312500
-34.94,1710985764328125
-92.44,1710985764343750
-149.16,1710985764359375
-205.23,1710985764375000
-260.37,1710985764390625
-313.74,1710985764406250
-363.87,1710985764421875
-409.83,1710985764437500
-450.91,1710985764453125
-486.5,1710985764468750
-515.74,1710985764484375
-537.23,1710985764500000
-549.22,1710985764515625
-549.96,1710985764531250
-538.37,1710985764546875
-514.21,1710985764562500
-478.67,1710985764578125
-433.88,1710985764593750
-382.45,1710985764609375
-327.02,1710985764625000
-269.84,1710985764640625
-212.63,1710985764656250
-156.66,1710985764671875
-102.95,1710985764687500
-52.37,1710985764703125
-5.9,1710985764718750
35.58,1710985764734375
71.43,1710985764750000
101.35,1710985764765625
125.5,1710985764781250
144.38,1710985764796875
158.69,1710985764812500
169.15,1710985764828125
176.37,1710985764843750
180.75,1710985764859375
182.57,1710985764875000
182.07,1710985764890625
179.51,1710985764906250
175.23,1710985764921875
169.65,1710985764937500
163.18,1710985764953125
156.15,1710985764968750
148.81,1710985764984375
141.3,1710985765000000
133.69,1710985765015625
126.02,1710985765031250
118.33,1710985765046875
110.69,1710985765062500
103.16,1710985765078125
95.8,1710985765093750
88.68,1710985765109375
81.83,1710985765125000
75.25,1710985765140625
68.95,1710985765156250
62.95,1710985765171875
57.25,1710985765187500
51.86,1710985765203125
46.78,1710985765218750
42.03,1710985765234375
37.59,1710985765250000
33.45,1710985765265625
29.61,1710985765281250
26.07,1710985765296875
22.81,1710985765312500
19.83,1710985765328125
17.11,1710985765343750
14.67,1710985765359375
12.48,1710985765375000
10.54,1710985765390625
8.83,1710985765406250
7.35,1710985765421875
6.07,1710985765437500
4.97,1710985765453125
4.05,1710985765468750
3.27,1710985765484375
2.62,1710985765500000
2.09,1710985765515625
1.65,1710985765531250
1.3,1710985765546875
1.01,1710985765562500
0.79,1710985765578125
0.61,1710985765593750
0.48,1710985765609375
0.37,1710985765625000
0.29,1710985765640625
0.24,1710985765656250
0.21,1710985765671875
0.19,1710985765687500
0.18,1710985765703125
0.18,1710985765718750
0.2,1710985765734375
0.22,1710985765750000
0.25,1710985765765625
0.28,1710985765781250
0.32,1710985765796875
0.37,1710985765812500
0.41,1710985765828125
0.46,1710985765843750
0.5,1710985765859375
0.56,1710985765875000
0.61,1710985765890625
0.66,1710985765906250
0.72,1710985765921875
0.78,1710985765937500
0.85,1710985765953125
0.92,1710985765968750
1.0,1710985765984375
1.08,1710985766000000
1.18,1710985766015625
1.29,1710985766031250
1.4,1710985766046875
1.54,1710985766062500
1.69,1710985766078125
1.86,1710985766093750
2.04,1710985766109375
2.25,1710985766125000
2.48,1710985766140625
2.74,1710985766156250
3.02,1710985766171875
3.33,1710985766187500
3.67,1710985766203125
4.05,1710985766218750
4.47,1710985766234375
4.91,1710985766250000
5.4,1710985766265625
5.92,1710985766281250
6.49,1710985766296875
7.09,1710985766312500
7.74,1710985766328125
8.44,1710985766343750
9.17,1710985766359375
9.96,1710985766375000
10.79,1710985766390625
11.67,1710985766406250
12.59,1710985766421875
13.57,1710985766437500
14.59,1710985766453125
15.68,1710985766468750
16.83,1710985766484375
18.05,1710985766500000
19.33,1710985766515625
20.65,1710985766531250
21.96,1710985766546875
23.22,1710985766562500
24.33,1710985766578125
25.19,1710985766593750
25.66,1710985766609375
25.62,1710985766625000
24.96,1710985766640625
23.59,1710985766656250
21.47,1710985766671875
18.61,1710985766687500
15.09,1710985766703125
10.98,1710985766718750
6.5,1710985766734375
1.83,1710985766750000
-2.81,1710985766765625
-7.2,1710985766781250
-11.14,1710985766796875
-14.47,1710985766812500
-17.11,1710985766828125
-19.02,1710985766843750
-20.22,1710985766859375
-20.78,1710985766875000
-20.8,1710985766890625
-20.39,1710985766906250
-19.61,1710985766921875
-18.55,1710985766937500
-17.21,1710985766953125
-15.67,1710985766968750
-13.96,1710985766984375
-12.14,1710985767000000
-10.24,1710985767015625
-8.36,1710985767031250
-6.5,1710985767046875
-4.68,1710985767062500
-2.86,1710985767078125
-0.98,1710985767093750
0.95,1710985767109375
2.94,1710985767125000
4.91,1710985767140625
6.86,1710985767156250
8.64,1710985767171875
10.23,1710985767187500
11.71,1710985767203125
13.23,1710985767218750
14.95,1710985767234375
16.93,1710985767250000
19.13,1710985767265625
21.47,1710985767281250
23.85,1710985767296875
25.94,1710985767312500
27.68,1710985767328125
29.23,1710985767343750
30.89,1710985767359375
32.98,1710985767375000
35.61,1710985767390625
38.7,1710985767406250
41.96,1710985767421875
45.11,1710985767437500
47.48,1710985767453125
48.96,1710985767468750
49.81,1710985767484375
50.56,1710985767500000
51.75,1710985767515625
53.59,1710985767531250
55.84,1710985767546875
57.94,1710985767562500
59.27,1710985767578125
58.78,1710985767593750
56.13,1710985767609375
51.6,1710985767625000
45.73,1710985767640625
38.94,1710985767656250
31.05,1710985767671875
20.92,1710985767687500
6.26,1710985767703125
-11.07,1710985767718750
-31.49,1710985767734375
-55.48,1710985767750000
-83.32,1710985767765625
-114.44,1710985767781250
-146.86,1710985767796875
-177.12,1710985767812500
-200.83,1710985767828125
-213.89,1710985767843750
-213.96,1710985767859375
-202.1,1710985767875000
-181.66,1710985767890625
-157.26,1710985767906250
-133.09,1710985767921875
-111.65,1710985767937500
-93.44,1710985767953125
-77.57,1710985767968750
-62.81,1710985767984375
-48.36,1710985768000000
-34.7,1710985768015625
-22.45,1710985768031250
-11.99,1710985768046875
-3.21,1710985768062500
4.4,1710985768078125
11.37,1710985768093750
17.89,1710985768109375
23.78,1710985768125000
28.55,1710985768140625
31.49,1710985768156250
32.39,1710985768171875
31.6,1710985768187500
29.88,1710985768203125
27.99,1710985768218750
26.4,1710985768234375
25.1,1710985768250000
23.71,1710985768265625
21.81,1710985768281250
19.08,1710985768296875
15.63,1710985768312500
11.89,1710985768328125
8.35,1710985768343750
5.22,1710985768359375
2.26,1710985768375000
-1.16,1710985768390625
-5.77,1710985768406250
-12.0,1710985768421875
-19.69,1710985768437500
-27.87,1710985768453125
-34.92,1710985768468750
-39.12,1710985768484375
-39.2,1710985768500000
-34.7,1710985768515625
-26.09,1710985768531250
-14.55,1710985768546875
-1.56,1710985768562500
11.5,1710985768578125
23.56,1710985768593750
33.96,1710985768609375
42.37,1710985768625000
48.69,1710985768640625
52.97,1710985768656250
55.34,1710985768671875
55.97,1710985768687500
55.06,1710985768703125
52.87,1710985768718750
49.7,1710985768734375
45.91,1710985768750000
41.96,1710985768765625
38.28,1710985768781250
35.15,1710985768796875
32.64,1710985768812500
30.64,1710985768828125
28.96,1710985768843750
27.55,1710985768859375
26.52,1710985768875000
26.07,1710985768890625
26.31,1710985768906250
27.01,1710985768921875
27.66,1710985768937500
27.55,1710985768953125
26.13,1710985768968750
23.25,1710985768984375
19.21,1710985769000000
14.61,1710985769015625
10.01,1710985769031250
5.74,1710985769046875
1.7,1710985769062500
-2.39,1710985769078125
-6.86,1710985769093750
-11.87,1710985769109375
-17.29,1710985769125000
-22.88,1710985769140625
-28.27,1710985769156250
-33.22,1710985769171875
-37.57,1710985769187500
-41.24,1710985769203125
-44.25,1710985769218750
-46.69,1710985769234375
-48.85,1710985769250000
-51.27,1710985769265625
-54.51,1710985769281250
-59.03,1710985769296875
-64.68,1710985769312500
-70.54,1710985769328125
-75.02,1710985769343750
-76.32,1710985769359375
-73.08,1710985769375000
-64.89,1710985769390625
-52.45,1710985769406250
-37.22,1710985769421875
-20.89,1710985769437500
-4.84,1710985769453125
10.14,1710985769468750
23.6,1710985769484375
35.32,1710985769500000
44.96,1710985769515625
52.16,1710985769531250
56.64,1710985769546875
58.49,1710985769562500
58.17,1710985769578125
56.41,1710985769593750
53.96,1710985769609375
51.36,1710985769625000
48.88,1710985769640625
46.61,1710985769656250
44.54,1710985769671875
42.75,1710985769687500
41.4,1710985769703125
40.63,1710985769718750
40.44,1710985769734375
40.66,1710985769750000
40.92,1710985769765625
40.84,1710985769781250
40.13,1710985769796875
38.71,1710985769812500
36.7,1710985769828125
34.31,1710985769843750
31.76,1710985769859375
29.14,1710985769875000
26.46,1710985769890625
23.64,1710985769906250
20.65,1710985769921875
17.44,1710985769937500
14.01,1710985769953125
10.36,1710985769968750
6.49,1710985769984375
2.46,1710985770000000
-1.63,1710985770015625
-5.61,1710985770031250
-9.36,1710985770046875
-12.84,1710985770062500
-16.18,1710985770078125
-19.58,1710985770093750
-23.27,1710985770109375
-27.42,1710985770125000
-32.15,1710985770140625
-37.6,1710985770156250
-43.91,1710985770171875
-51.12,1710985770187500
-58.9,1710985770203125
-66.4,1710985770218750
-72.3,1710985770234375
-75.1,1710985770250000
-73.63,1710985770265625
-67.52,1710985770281250
-57.28,1710985770296875
-44.26,1710985770312500
-30.02,1710985770328125
-15.98,1710985770343750
-3.07,1710985770359375
8.33,1710985770375000
18.16,1710985770390625
26.48,1710985770406250
33.28,1710985770421875
38.46,1710985770437500
41.94,1710985770453125
43.72,1710985770468750
44.0,1710985770484375
43.13,1710985770500000
41.53,1710985770515625
39.55,1710985770531250
37.49,1710985770546875
35.55,1710985770562500
33.87,1710985770578125
32.55,1710985770593750
31.61,1710985770609375
30.97,1710985770625000
30.51,1710985770640625
30.1,1710985770656250
29.73,1710985770671875
29.53,1710985770687500
29.56,1710985770703125
29.76,1710985770718750
29.76,1710985770734375
28.95,1710985770750000
26.8,1710985770765625
23.06,1710985770781250
17.95,1710985770796875
12.03,1710985770812500
5.91,1710985770828125
-0.02,1710985770843750
-5.65,1710985770859375
-11.09,1710985770875000
-16.47,1710985770890625
-21.68,1710985770906250
-26.49,1710985770921875
-30.65,1710985770937500
-34.0,1710985770953125
-36.63,1710985770968750
-38.79,1710985770984375
-40.9,1710985771000000
-43.38,1710985771015625
-46.65,1710985771031250
-51.17,1710985771046875
-57.19,1710985771062500
-64.66,1710985771078125
-72.96,1710985771093750
-80.86,1710985771109375
-86.73,1710985771125000
-89.0,1710985771140625
-86.7,1710985771156250
-79.76,1710985771171875
-68.93,1710985771187500
-55.48,1710985771203125
-40.69,1710985771218750
-25.49,1710985771234375
-10.45,1710985771250000
4.02,1710985771265625
17.48,1710985771281250
29.3,1710985771296875
38.88,1710985771312500
45.78,1710985771328125
49.96,1710985771343750
51.77,1710985771359375
51.75,1710985771375000
50.44,1710985771390625
48.16,1710985771406250
45.13,1710985771421875
41.52,1710985771437500
37.67,1710985771453125
34.13,1710985771468750
31.48,1710985771484375
30.18,1710985771500000
30.31,1710985771515625
31.57,1710985771531250
33.36,1710985771546875
35.07,1710985771562500
36.24,1710985771578125
36.64,1710985771593750
36.29,1710985771609375
35.36,1710985771625000
34.03,1710985771640625
32.57,1710985771656250
31.16,1710985771671875
29.95,1710985771687500
28.91,1710985771703125
27.82,1710985771718750
26.35,1710985771734375
24.19,1710985771750000
21.27,1710985771765625
17.75,1710985771781250
13.98,1710985771796875
10.27,1710985771812500
6.57,1710985771828125
2.58,1710985771843750
-2.26,1710985771859375
-8.46,1710985771875000
-16.17,1710985771890625
-25.04,1710985771906250
-34.04,1710985771921875
-41.57,1710985771937500
-45.72,1710985771953125
-44.66,1710985771968750
-37.19,1710985771984375
-23.24,1710985772000000
-3.96,1710985772015625
18.49,1710985772031250
41.59,1710985772046875
63.25,1710985772062500
82.38,1710985772078125
99.07,1710985772093750
114.18,1710985772109375
128.67,1710985772125000
142.84,1710985772140625
155.76,1710985772156250
165.28,1710985772171875
168.45,1710985772187500
162.24,1710985772203125
144.51,1710985772218750
114.95,1710985772234375
75.48,1710985772250000
30.13,1710985772265625
-15.83,1710985772281250
-57.34,1710985772296875
-90.9,1710985772312500
-115.38,1710985772328125
-132.05,1710985772343750
-143.63,1710985772359375
-153.04,1710985772375000
-162.24,1710985772390625
-171.71,1710985772406250
-180.55,1710985772421875
-186.98,1710985772437500
-188.91,1710985772453125
-184.4,1710985772468750
-172.2,1710985772484375
-152.36,1710985772500000
-126.81,1710985772515625
-99.71,1710985772531250
-76.87,1710985772546875
-64.28,1710985772562500
-65.89,1710985772578125
-81.82,1710985772593750
-107.87,1710985772609375
-136.75,1710985772625000
-160.64,1710985772640625
-173.83,1710985772656250
-174.41,1710985772671875
-164.07,1710985772687500
-146.59,1710985772703125
-126.04,1710985772718750
-105.44,1710985772734375
-86.49,1710985772750000
-69.99,1710985772765625
-56.4,1710985772781250
-45.89,1710985772796875
-38.16,1710985772812500
-32.03,1710985772828125
-25.54,1710985772843750
-16.56,1710985772859375
-3.62,1710985772875000
13.36,1710985772890625
32.91,1710985772906250
52.46,1710985772921875
69.12,1710985772937500
80.47,1710985772953125
85.09,1710985772968750
82.87,1710985772984375
74.99,1710985773000000
63.83,1710985773015625
52.6,1710985773031250
44.67,1710985773046875
42.55,1710985773062500
47.07,1710985773078125
56.88,1710985773093750
68.8,1710985773109375
78.96,1710985773125000
84.19,1710985773140625
83.16,1710985773156250
76.73,1710985773171875
67.41,1710985773187500
58.25,1710985773203125
51.6,1710985773218750
48.31,1710985773234375
47.68,1710985773250000
48.01,1710985773265625
47.27,1710985773281250
43.99,1710985773296875
37.73,1710985773312500
29.1,1710985773328125
19.44,1710985773343750
10.21,1710985773359375
2.34,1710985773375000
-4.17,1710985773390625
-10.24,1710985773406250
-17.4,1710985773421875
-27.15,1710985773437500
-40.39,1710985773453125
-56.81,1710985773468750
-74.6,1710985773484375
-90.73,1710985773500000
-101.73,1710985773515625
-104.84,1710985773531250
-98.88,1710985773546875
-84.54,1710985773562500
-63.93,1710985773578125
-39.77,1710985773593750
-14.37,1710985773609375
10.7,1710985773625000
34.63,1710985773640625
56.85,1710985773656250
76.72,1710985773671875
93.39,1710985773687500
105.94,1710985773703125
113.78,1710985773718750
116.77,1710985773734375
115.28,1710985773750000
110.12,1710985773765625
102.31,1710985773781250
92.99,1710985773796875
83.23,1710985773812500
74.01,1710985773828125
66.04,1710985773843750
59.88,1710985773859375
55.86,1710985773875000
54.04,1710985773890625
54.09,1710985773906250
55.22,1710985773921875
56.33,1710985773937500
56.25,1710985773953125
54.01,1710985773968750
49.25,1710985773984375
42.27,1710985774000000
33.79,1710985774015625
24.63,1710985774031250
15.49,1710985774046875
6.72,1710985774062500
-1.54,1710985774078125
-9.32,1710985774093750
-16.65,1710985774109375
-23.61,1710985774125000
-30.31,1710985774140625
-36.94,1710985774156250
-43.76,1710985774171875
-51.02,1710985774187500
-58.95,1710985774203125
-67.69,1710985774218750
-77.22,1710985774234375
-87.31,1710985774250000
-97.35,1710985774265625
-106.3,1710985774281250
-112.74,1710985774296875
-115.14,1710985774312500
-112.21,1710985774328125
-103.3,1710985774343750
-88.63,1710985774359375
-69.36,1710985774375000
-47.31,1710985774390625
-24.65,1710985774406250
-3.46,1710985774421875
14.6,1710985774437500
28.69,1710985774453125
38.68,1710985774468750
45.06,1710985774484375
48.58,1710985774500000
49.92,1710985774515625
49.52,1710985774531250
47.6,1710985774546875
44.4,1710985774562500
40.46,1710985774578125
36.51,1710985774593750
33.47,1710985774609375
32.06,1710985774625000
32.54,1710985774640625
34.72,1710985774656250
38.01,1710985774671875
41.71,1710985774687500
45.25,1710985774703125
48.19,1710985774718750
50.34,1710985774734375
51.57,1710985774750000
51.86,1710985774765625
51.21,1710985774781250
49.66,1710985774796875
47.28,1710985774812500
44.12,1710985774828125
40.15,1710985774843750
35.27,1710985774859375
29.38,1710985774875000
22.51,1710985774890625
14.93,1710985774906250
7.09,1710985774921875
-0.44,1710985774937500
-7.2,1710985774953125
-13.04,1710985774968750
-18.18,1710985774984375
-23.16,1710985775000000
-28.67,1710985775015625
-35.24,1710985775031250
-42.97,1710985775046875
-51.38,1710985775062500
-59.31,1710985775078125
-65.2,1710985775093750
-67.44,1710985775109375
-64.85,1710985775125000
-57.0,1710985775140625
-44.35,1710985775156250
-28.13,1710985775171875
-9.95,1710985775187500
8.53,1710985775203125
25.9,1710985775218750
41.14,1710985775234375
53.54,1710985775250000
62.7,1710985775265625
68.51,1710985775281250
71.12,1710985775296875
71.02,1710985775312500
68.91,1710985775328125
65.66,1710985775343750
62.04,1710985775359375
58.59,1710985775375000
55.6,1710985775390625
53.13,1710985775406250
51.22,1710985775421875
49.92,1710985775437500
49.38,1710985775453125
49.78,1710985775468750
51.15,1710985775484375
53.34,1710985775500000
55.96,1710985775515625
58.45,1710985775531250
60.22,1710985775546875
60.78,1710985775562500
59.86,1710985775578125
57.44,1710985775593750
53.67,1710985775609375
48.77,1710985775625000
42.94,1710985775640625
36.33,1710985775656250
29.08,1710985775671875
21.38,1710985775687500
13.49,1710985775703125
5.71,1710985775718750
-1.76,1710985775734375
-8.84,1710985775750000
-15.72,1710985775765625
-22.7,1710985775781250
-30.2,1710985775796875
-38.48,1710985775812500
-47.6,1710985775828125
-57.23,1710985775843750
-66.58,1710985775859375
-74.47,1710985775875000
-79.61,1710985775890625
-80.84,1710985775906250
-77.45,1710985775921875
-69.46,1710985775937500
-57.59,1710985775953125
-43.13,1710985775968750
-27.63,1710985775984375
-12.58,1710985776000000
0.81,1710985776015625
11.79,1710985776031250
20.02,1710985776046875
25.5,1710985776062500
28.43,1710985776078125
29.14,1710985776093750
27.97,1710985776109375
25.31,1710985776125000
21.59,1710985776140625
17.34,1710985776156250
13.04,1710985776171875
9.14,1710985776187500
6.03,1710985776203125
3.97,1710985776218750
3.13,1710985776234375
3.59,1710985776250000
5.35,1710985776265625
8.19,1710985776281250
11.69,1710985776296875
15.21,1710985776312500
18.12,1710985776328125
19.8,1710985776343750
19.9,1710985776359375
18.4,1710985776375000
15.56,1710985776390625
11.88,1710985776406250
7.89,1710985776421875
4.01,1710985776437500
0.37,1710985776453125
-3.23,1710985776468750
-7.17,1710985776484375
-11.84,1710985776500000
-17.39,1710985776515625
-23.63,1710985776531250
-30.05,1710985776546875
-36.0,1710985776562500
-40.93,1710985776578125
-44.56,1710985776593750
-47.01,1710985776609375
-48.72,1710985776625000
-50.35,1710985776640625
-52.63,1710985776656250
-56.13,1710985776671875
-61.08,1710985776687500
-67.16,1710985776703125
-73.46,1710985776718750
-78.61,1710985776734375
-81.1,1710985776750000
-79.68,1710985776765625
-73.77,1710985776781250
-63.65,1710985776796875
-50.29,1710985776812500
-35.08,1710985776828125
-19.38,1710985776843750
-4.3,1710985776859375
9.4,1710985776875000
21.27,1710985776890625
30.98,1710985776906250
38.35,1710985776921875
43.29,1710985776937500
45.93,1710985776953125
46.61,1710985776968750
45.87,1710985776984375
44.36,1710985777000000
42.7,1710985777015625
41.36,1710985777031250
40.57,1710985777046875
40.33,1710985777062500
40.52,1710985777078125
40.94,1710985777093750
41.5,1710985777109375
42.16,1710985777125000
42.88,1710985777140625
43.56,1710985777156250
43.94,1710985777171875
43.69,1710985777187500
42.54,1710985777203125
40.35,1710985777218750
37.26,1710985777234375
33.54,1710985777250000
29.48,1710985777265625
25.25,1710985777281250
20.84,1710985777296875
16.16,1710985777312500
11.11,1710985777328125
5.73,1710985777343750
0.19,1710985777359375
-5.28,1710985777375000
-10.47,1710985777390625
-15.35,1710985777406250
-20.04,1710985777421875
-24.74,1710985777437500
-29.63,1710985777453125
-34.75,1710985777468750
-39.94,1710985777484375
-44.87,1710985777500000
-49.19,1710985777515625
-52.6,1710985777531250
-54.93,1710985777546875
-56.21,1710985777562500
-56.65,1710985777578125
-56.66,1710985777593750
-56.8,1710985777609375
-57.58,1710985777625000
-59.27,1710985777640625
-61.68,1710985777656250
-64.03,1710985777671875
-65.1,1710985777687500
-63.64,1710985777703125
-58.71,1710985777718750
-50.1,1710985777734375
-38.33,1710985777750000
-24.48,1710985777765625
-9.84,1710985777781250
4.39,1710985777796875
17.24,1710985777812500
28.08,1710985777828125
36.51,1710985777843750
42.43,1710985777859375
45.94,1710985777875000
47.31,1710985777890625
46.93,1710985777906250
45.14,1710985777921875
42.27,1710985777937500
38.65,1710985777953125
34.7,1710985777968750
30.8,1710985777984375
27.38,1710985778000000
24.63,1710985778015625
22.5,1710985778031250
20.81,1710985778046875
19.35,1710985778062500
18.05,1710985778078125
16.96,1710985778093750
16.13,1710985778109375
15.42,1710985778125000
14.48,1710985778140625
12.83,1710985778156250
10.15,1710985778171875
6.5,1710985778187500
2.24,1710985778203125
-2.1,1710985778218750
-6.08,1710985778234375
-9.53,1710985778250000
-12.63,1710985778265625
-15.68,1710985778281250
-18.9,1710985778296875
-22.25,1710985778312500
-25.44,1710985778328125
-28.06,1710985778343750
-29.73,1710985778359375
-30.32,1710985778375000
-29.9,1710985778390625
-28.63,1710985778406250
-26.71,1710985778421875
-24.39,1710985778437500
-22.0,1710985778453125
-19.95,1710985778468750
-18.78,1710985778484375
-18.85,1710985778500000
-20.16,1710985778515625
-22.25,1710985778531250
-24.32,1710985778546875
-25.53,1710985778562500
-25.39,1710985778578125
-23.84,1710985778593750
-21.26,1710985778609375
-18.11,1710985778625000
-14.63,1710985778640625
-10.69,1710985778656250
-5.95,1710985778671875
-0.13,1710985778687500
6.77,1710985778703125
14.41,1710985778718750
22.23,1710985778734375
29.84,1710985778750000
37.07,1710985778765625
43.94,1710985778781250
50.43,1710985778796875
56.26,1710985778812500
60.84,1710985778828125
63.5,1710985778843750
63.76,1710985778859375
61.61,1710985778875000
57.51,1710985778890625
52.23,1710985778906250
46.61,1710985778921875
41.39,1710985778937500
37.08,1710985778953125
34.0,1710985778968750
32.29,1710985778984375
31.74,1710985779000000
31.97,1710985779015625
32.35,1710985779031250
32.31,1710985779046875
31.52,1710985779062500
29.87,1710985779078125
27.49,1710985779093750
24.52,1710985779109375
20.97,1710985779125000
16.76,1710985779140625
11.82,1710985779156250
6.2,1710985779171875
0.15,1710985779187500
-5.97,1710985779203125
-11.95,1710985779218750
-17.91,1710985779234375
-24.24,1710985779250000
-31.37,1710985779265625
-39.47,1710985779281250
-48.32,1710985779296875
-57.37,1710985779312500
-65.88,1710985779328125
-73.3,1710985779343750
-79.48,1710985779359375
-84.72,1710985779375000
-89.57,1710985779390625
-94.58,1710985779406250
-100.23,1710985779421875
-106.8,1710985779437500
-114.51,1710985779453125
-123.17,1710985779468750
-132.25,1710985779484375
-140.94,1710985779500000
-148.39,1710985779515625
-153.79,1710985779531250
-156.4,1710985779546875
-155.75,1710985779562500
-151.78,1710985779578125
-145.12,1710985779593750
-136.54,1710985779609375
-127.04,1710985779625000
-117.95,1710985779640625
-110.72,1710985779656250
-106.3,1710985779671875
-104.61,1710985779687500
-104.65,1710985779703125
-104.81,1710985779718750
-103.94,1710985779734375
-101.02,1710985779750000
-95.74,1710985779765625
-88.91,1710985779781250
-82.12,1710985779796875
-76.87,1710985779812500
-73.49,1710985779828125
-71.09,1710985779843750
-67.86,1710985779859375
-62.28,1710985779875000
-52.67,1710985779890625
-37.53,1710985779906250
-16.13,1710985779921875
11.43,1710985779937500
44.44,1710985779953125
81.87,1710985779968750
121.83,1710985779984375
164.21,1710985780000000
203.21,1710985780015625
231.97,1710985780031250
248.38,1710985780046875
256.1,1710985780062500
260.22,1710985780078125
262.75,1710985780093750
261.71,1710985780109375
253.08,1710985780125000
234.44,1710985780140625
207.35,1710985780156250
178.07,1710985780171875
155.54,1710985780187500
146.26,1710985780203125
150.93,1710985780218750
163.24,1710985780234375
174.14,1710985780250000
175.22,1710985780265625
161.96,1710985780281250
134.77,1710985780296875
97.62,1710985780312500
55.85,1710985780328125
12.71,1710985780343750
-31.53,1710985780359375
-77.79,1710985780375000
-125.02,1710985780390625
-168.98,1710985780406250
-203.52,1710985780421875
-217.21,1710985780437500
-205.26,1710985780453125
-170.41,1710985780468750
-122.29,1710985780484375
-73.6,1710985780500000
-35.0,1710985780515625
-11.06,1710985780531250
0.19,1710985780546875
5.27,1710985780562500
11.55,1710985780578125
23.6,1710985780593750
42.97,1710985780609375
68.4,1710985780625000
97.03,1710985780640625
125.64,1710985780656250
151.43,1710985780671875
172.04,1710985780687500
185.6,1710985780703125
190.79,1710985780718750
186.45,1710985780734375
172.66,1710985780750000
150.95,1710985780765625
124.18,1710985780781250
96.08,1710985780796875
70.47,1710985780812500
50.31,1710985780828125
36.95,1710985780843750
29.99,1710985780859375
27.13,1710985780875000
25.54,1710985780890625
22.67,1710985780906250
16.97,1710985780921875
8.01,1710985780937500
-3.64,1710985780953125
-16.9,1710985780968750
-30.64,1710985780984375
-43.93,1710985781000000
-56.38,1710985781015625
-67.82,1710985781031250
-78.19,1710985781046875
-87.39,1710985781062500
-95.31,1710985781078125
-101.85,1710985781093750
-107.0,1710985781109375
-110.94,1710985781125000
-114.12,1710985781140625
-117.18,1710985781156250
-120.68,1710985781171875
-124.65,1710985781187500
-128.48,1710985781203125
-130.92,1710985781218750
-130.41,1710985781234375
-125.79,1710985781250000
-116.69,1710985781265625
-103.74,1710985781281250
-88.33,1710985781296875
-72.06,1710985781312500
-56.24,1710985781328125
-41.58,1710985781343750
-28.32,1710985781359375
-16.53,1710985781375000
-6.37,1710985781390625
1.83,1710985781406250
7.74,1710985781421875
11.25,1710985781437500
12.55,1710985781453125
12.08,1710985781468750
10.32,1710985781484375
7.74,1710985781500000
4.69,1710985781515625
1.6,1710985781531250
-1.06,1710985781546875
-2.8,1710985781562500
-3.25,1710985781578125
-2.41,1710985781593750
-0.56,1710985781609375
1.76,1710985781625000
3.97,1710985781640625
5.67,1710985781656250
6.7,1710985781671875
7.08,1710985781687500
6.96,1710985781703125
6.44,1710985781718750
5.59,1710985781734375
4.35,1710985781750000
2.64,1710985781765625
0.38,1710985781781250
-2.41,1710985781796875
-5.67,1710985781812500
-9.28,1710985781828125
-13.1,1710985781843750
-17.0,1710985781859375
-20.91,1710985781875000
-24.83,1710985781890625
-28.91,1710985781906250
-33.32,1710985781921875
-38.15,1710985781937500
-43.27,1710985781953125
-48.13,1710985781968750
-51.76,1710985781984375
-53.01,1710985782000000
-50.98,1710985782015625
-45.32,1710985782031250
-36.43,1710985782046875
-25.33,1710985782062500
-13.22,1710985782078125
-1.16,1710985782093750
10.12,1710985782109375
20.27,1710985782125000
29.06,1710985782140625
36.25,1710985782156250
41.59,1710985782171875
44.86,1710985782187500
46.0,1710985782203125
45.15,1710985782218750
42.65,1710985782234375
38.93,1710985782250000
34.53,1710985782265625
29.99,1710985782281250
25.88,1710985782296875
22.7,1710985782312500
20.71,1710985782328125
19.96,1710985782343750
20.2,1710985782359375
20.96,1710985782375000
21.78,1710985782390625
22.31,1710985782406250
22.46,1710985782421875
22.39,1710985782437500
22.31,1710985782453125
22.4,1710985782468750
22.55,1710985782484375
22.38,1710985782500000
21.38,1710985782515625
19.08,1710985782531250
15.28,1710985782546875
10.12,1710985782562500
3.93,1710985782578125
-2.83,1710985782593750
-9.75,1710985782609375
-16.6,1710985782625000
-23.26,1710985782640625
-29.82,1710985782656250
-36.53,1710985782671875
-43.74,1710985782687500
-51.71,1710985782703125
-60.26,1710985782718750
-68.6,1710985782734375
-75.27,1710985782750000
-78.54,1710985782765625
-76.97,1710985782781250
-69.97,1710985782796875
-58.03,1710985782812500
-42.48,1710985782828125
-25.08,1710985782843750
-7.48,1710985782859375
9.12,1710985782875000
24.02,1710985782890625
36.86,1710985782906250
47.49,1710985782921875
55.72,1710985782937500
61.36,1710985782953125
64.35,1710985782968750
64.85,1710985782984375
63.33,1710985783000000
60.47,1710985783015625
57.04,1710985783031250
53.6,1710985783046875
50.49,1710985783062500
47.71,1710985783078125
45.19,1710985783093750
42.8,1710985783109375
40.58,1710985783125000
38.6,1710985783140625
36.94,1710985783156250
35.56,1710985783171875
34.24,1710985783187500
32.77,1710985783203125
31.05,1710985783218750
29.12,1710985783234375
27.09,1710985783250000
24.99,1710985783265625
22.63,1710985783281250
19.68,1710985783296875
15.74,1710985783312500
10.65,1710985783328125
4.52,1710985783343750
-2.18,1710985783359375
-8.85,1710985783375000
-15.02,1710985783390625
-20.47,1710985783406250
-25.34,1710985783421875
-30.05,1710985783437500
-35.13,1710985783453125
-41.01,1710985783468750
-47.72,1710985783484375
-54.77,1710985783500000
-61.02,1710985783515625
-64.9,1710985783531250
-64.82,1710985783546875
-59.74,1710985783562500
-49.6,1710985783578125
-35.36,1710985783593750
-18.74,1710985783609375
-1.69,1710985783625000
14.15,1710985783640625
27.7,1710985783656250
38.5,1710985783671875
46.56,1710985783687500
52.06,1710985783703125
55.29,1710985783718750
56.52,1710985783734375
56.08,1710985783750000
54.31,1710985783765625
51.61,1710985783781250
48.41,1710985783796875
45.13,1710985783812500
42.18,1710985783828125
39.89,1710985783843750
38.44,1710985783859375
37.85,1710985783875000
37.93,1710985783890625
38.41,1710985783906250
38.98,1710985783921875
39.35,1710985783937500
39.38,1710985783953125
38.99,1710985783968750
38.2,1710985783984375
37.01,1710985784000000
35.37,1710985784015625
33.15,1710985784031250
30.15,1710985784046875
26.23,1710985784062500
21.38,1710985784078125
15.74,1710985784093750
9.57,1710985784109375
3.16,1710985784125000
-3.3,1710985784140625
-9.69,1710985784156250
-15.97,1710985784171875
-22.14,1710985784187500
-28.28,1710985784203125
-34.59,1710985784218750
-41.32,1710985784234375
-48.58,1710985784250000
-56.06,1710985784265625
-62.92,1710985784281250
-67.81,1710985784296875
-69.3,1710985784312500
-66.46,1710985784328125
-59.15,1710985784343750
-48.18,1710985784359375
-34.96,1710985784375000
-21.08,1710985784390625
-7.8,1710985784406250
4.06,1710985784421875
14.13,1710985784437500
22.26,1710985784453125
28.44,1710985784468750
32.67,1710985784484375
34.99,1710985784500000
35.45,1710985784515625
34.24,1710985784531250
31.57,1710985784546875
27.88,1710985784562500
23.71,1710985784578125
19.71,1710985784593750
16.37,1710985784609375
13.93,1710985784625000
12.28,1710985784640625
11.04,1710985784656250
9.89,1710985784671875
8.73,1710985784687500
7.68,1710985784703125
7.03,1710985784718750
6.88,1710985784734375
7.03,1710985784750000
7.06,1710985784765625
6.45,1710985784781250
4.88,1710985784796875
2.31,1710985784812500
-1.05,1710985784828125
-4.91,1710985784843750
-9.03,1710985784859375
-13.19,1710985784875000
-17.24,1710985784890625
-21.05,1710985784906250
-24.59,1710985784921875
-27.97,1710985784937500
-31.57,1710985784953125
-35.76,1710985784968750
-40.7,1710985784984375
-46.01,1710985785000000
-50.81,1710985785015625
-53.88,1710985785031250
-54.06,1710985785046875
-50.73,1710985785062500
-43.97,1710985785078125
-34.55,1710985785093750
-23.58,1710985785109375
-12.24,1710985785125000
-1.49,1710985785140625
8.11,1710985785156250
16.26,1710985785171875
22.89,1710985785187500
27.91,1710985785203125
31.2,1710985785218750
32.62,1710985785234375
32.1,1710985785250000
29.83,1710985785265625
26.28,1710985785281250
22.19,1710985785296875
18.4,1710985785312500
15.57,1710985785328125
14.07,1710985785343750
13.84,1710985785359375
14.49,1710985785375000
15.5,1710985785390625
16.4,1710985785406250
16.95,1710985785421875
17.17,1710985785437500
17.2,1710985785453125
17.16,1710985785468750
17.04,1710985785484375
16.63,1710985785500000
15.57,1710985785515625
13.53,1710985785531250
10.31,1710985785546875
6.01,1710985785562500
0.9,1710985785578125
-4.66,1710985785593750
-10.3,1710985785609375
-15.74,1710985785625000
-20.8,1710985785640625
-25.36,1710985785656250
-29.4,1710985785671875
-33.1,1710985785687500
-36.75,1710985785703125
-40.71,1710985785718750
-45.18,1710985785734375
-49.97,1710985785750000
-54.37,1710985785765625
-57.25,1710985785781250
-57.37,1710985785796875
-53.78,1710985785812500
-46.27,1710985785828125
-35.45,1710985785843750
-22.55,1710985785859375
-9.05,1710985785875000
3.73,1710985785890625
14.87,1710985785906250
23.93,1710985785921875
30.79,1710985785937500
35.5,1710985785953125
38.17,1710985785968750
38.94,1710985785984375
38.07,1710985786000000
35.91,1710985786015625
32.93,1710985786031250
29.68,1710985786046875
26.63,1710985786062500
24.13,1710985786078125
22.4,1710985786093750
21.45,1710985786109375
21.2,1710985786125000
21.36,1710985786140625
21.65,1710985786156250
21.88,1710985786171875
21.98,1710985786187500
22.08,1710985786203125
22.33,1710985786218750
22.82,1710985786234375
23.39,1710985786250000
23.67,1710985786265625
23.18,1710985786281250
21.48,1710985786296875
18.39,1710985786312500
14.0,1710985786328125
8.66,1710985786343750
2.83,1710985786359375
-3.03,1710985786375000
-8.64,1710985786390625
-13.88,1710985786406250
-18.83,1710985786421875
-23.71,1710985786437500
-28.8,1710985786453125
-34.36,1710985786468750
-40.55,1710985786484375
-47.29,1710985786500000
-54.24,1710985786515625
-60.71,1710985786531250
-65.75,1710985786546875
-68.32,1710985786562500
-67.56,1710985786578125
-63.08,1710985786593750
-55.13,1710985786609375
-44.55,1710985786625000
-32.56,1710985786640625
-20.39,1710985786656250
-9.0,1710985786671875
1.0,1710985786687500
9.34,1710985786703125
15.87,1710985786718750
20.6,1710985786734375
23.5,1710985786750000
24.75,1710985786765625
24.64,1710985786781250
23.55,1710985786796875
21.89,1710985786812500
20.03,1710985786828125
18.3,1710985786843750
16.95,1710985786859375
16.17,1710985786875000
15.94,1710985786890625
16.13,1710985786906250
16.5,1710985786921875
16.85,1710985786937500
17.12,1710985786953125
17.34,1710985786968750
17.59,1710985786984375
17.85,1710985787000000
17.98,1710985787015625
17.78,1710985787031250
17.03,1710985787046875
15.61,1710985787062500
13.41,1710985787078125
10.41,1710985787093750
6.63,1710985787109375
2.19,1710985787125000
-2.64,1710985787140625
-7.51,1710985787156250
-12.03,1710985787171875
-15.97,1710985787187500
-19.33,1710985787203125
-22.36,1710985787218750
-25.44,1710985787234375
-29.05,1710985787250000
-33.56,1710985787265625
-39.1,1710985787281250
-45.36,1710985787296875
-51.56,1710985787312500
-56.52,1710985787328125
-58.92,1710985787343750
-57.77,1710985787359375
-52.72,1710985787375000
-44.23,1710985787390625
-33.4,1710985787406250
-21.56,1710985787421875
-9.98,1710985787437500
0.47,1710985787453125
9.29,1710985787468750
16.27,1710985787484375
21.34,1710985787500000
24.52,1710985787515625
25.88,1710985787531250
25.63,1710985787546875
24.05,1710985787562500
21.54,1710985787578125
18.55,1710985787593750
15.55,1710985787609375
12.94,1710985787625000
10.94,1710985787640625
9.6,1710985787656250
8.75,1710985787671875
8.2,1710985787687500
7.77,1710985787703125
7.47,1710985787718750
7.38,1710985787734375
7.56,1710985787750000
7.89,1710985787765625
8.06,1710985787781250
7.62,1710985787796875
6.17,1710985787812500
3.49,1710985787828125
-0.37,1710985787843750
-5.16,1710985787859375
-10.51,1710985787875000
-16.0,1710985787890625
-21.32,1710985787906250
-26.23,1710985787921875
-30.65,1710985787937500
-34.62,1710985787953125
-38.33,1710985787968750
-42.04,1710985787984375
-46.07,1710985788000000
-50.67,1710985788015625
-55.84,1710985788031250
-61.2,1710985788046875
-65.91,1710985788062500
-68.76,1710985788078125
-68.52,1710985788093750
-64.3,1710985788109375
-55.9,1710985788125000
-43.93,1710985788140625
-29.59,1710985788156250
-14.37,1710985788171875
0.4,1710985788187500
13.68,1710985788203125
24.83,1710985788218750
33.47,1710985788234375
39.46,1710985788250000
42.78,1710985788265625
43.63,1710985788281250
42.42,1710985788296875
39.74,1710985788312500
36.25,1710985788328125
32.57,1710985788343750
29.16,1710985788359375
26.31,1710985788375000
24.18,1710985788390625
22.86,1710985788406250
22.35,1710985788421875
22.59,1710985788437500
23.41,1710985788453125
24.55,1710985788468750
25.73,1710985788484375
26.67,1710985788500000
27.15,1710985788515625
27.05,1710985788531250
26.23,1710985788546875
24.62,1710985788562500
22.16,1710985788578125
18.87,1710985788593750
14.85,1710985788609375
10.33,1710985788625000
5.49,1710985788640625
0.49,1710985788656250
-4.61,1710985788671875
-9.81,1710985788687500
-15.1,1710985788703125
-20.38,1710985788718750
-25.56,1710985788734375
-30.6,1710985788750000
-35.63,1710985788765625
-41.0,1710985788781250
-47.07,1710985788796875
-53.89,1710985788812500
-60.93,1710985788828125
-67.08,1710985788843750
-70.85,1710985788859375
-70.9,1710985788875000
-66.47,1710985788890625
-57.72,1710985788906250
-45.61,1710985788921875
-31.57,1710985788937500
-17.01,1710985788953125
-3.02,1710985788968750
9.84,1710985788984375
21.39,1710985789000000
31.58,1710985789015625
40.32,1710985789031250
47.41,1710985789046875
52.63,1710985789062500
55.89,1710985789078125
57.29,1710985789093750
57.2,1710985789109375
56.15,1710985789125000
54.78,1710985789140625
53.58,1710985789156250
52.83,1710985789171875
52.71,1710985789187500
53.24,1710985789203125
54.46,1710985789218750
56.38,1710985789234375
58.92,1710985789250000
61.95,1710985789265625
65.2,1710985789281250
68.35,1710985789296875
71.05,1710985789312500
73.03,1710985789328125
74.19,1710985789343750
74.53,1710985789359375
74.08,1710985789375000
72.84,1710985789390625
70.88,1710985789406250
68.23,1710985789421875
64.73,1710985789437500
60.05,1710985789453125
53.73,1710985789468750
45.37,1710985789484375
34.74,1710985789500000
21.68,1710985789515625
6.02,1710985789531250
-12.22,1710985789546875
-33.03,1710985789562500
-56.66,1710985789578125
-83.46,1710985789593750
-113.47,1710985789609375
-145.83,1710985789625000
-178.41,1710985789640625
-208.08,1710985789656250
-231.52,1710985789671875
-245.66,1710985789687500
-248.78,1710985789703125
-241.42,1710985789718750
-226.13,1710985789734375
-206.36,1710985789750000
-185.09,1710985789765625
-163.8,1710985789781250
-142.66,1710985789796875
-121.11,1710985789812500
-98.05,1710985789828125
-72.46,1710985789843750
-43.99,1710985789859375
-12.91,1710985789875000
20.25,1710985789890625
54.63,1710985789906250
89.07,1710985789921875
122.41,1710985789937500
149.75,1710985789953125
165.98,1710985789968750
169.93,1710985789984375
165.16,1710985790000000
157.18,1710985790015625
150.04,1710985790031250
144.8,1710985790046875
140.48,1710985790062500
135.39,1710985790078125
128.31,1710985790093750
119.54,1710985790109375
110.32,1710985790125000
101.25,1710985790140625
91.95,1710985790156250
81.8,1710985790171875
69.12,1710985790187500
53.12,1710985790203125
33.93,1710985790218750
12.47,1710985790234375
-9.17,1710985790250000
-28.36,1710985790265625
-42.93,1710985790281250
-51.53,1710985790296875
-54.09,1710985790312500
-51.73,1710985790328125
-46.23,1710985790343750
-39.54,1710985790359375
-33.33,1710985790375000
-28.23,1710985790390625
-22.31,1710985790406250
-14.74,1710985790421875
-5.27,1710985790437500
5.66,1710985790453125
16.95,1710985790468750
27.46,1710985790484375
36.28,1710985790500000
43.0,1710985790515625
47.87,1710985790531250
51.47,1710985790546875
53.96,1710985790562500
55.26,1710985790578125
55.0,1710985790593750
52.75,1710985790609375
48.43,1710985790625000
42.41,1710985790640625
35.41,1710985790656250
28.38,1710985790671875
22.3,1710985790687500
17.64,1710985790703125
14.54,1710985790718750
12.72,1710985790734375
11.69,1710985790750000
10.95,1710985790765625
10.25,1710985790781250
9.71,1710985790796875
9.71,1710985790812500
10.74,1710985790828125
12.94,1710985790843750
16.19,1710985790859375
20.07,1710985790875000
23.91,1710985790890625
27.15,1710985790906250
29.3,1710985790921875
30.02,1710985790937500
28.92,1710985790953125
25.66,1710985790968750
19.9,1710985790984375
11.6,1710985791000000
1.15,1710985791015625
-10.71,1710985791031250
-23.02,1710985791046875
-35.13,1710985791062500
-46.75,1710985791078125
-58.15,1710985791093750
-69.74,1710985791109375
-81.69,1710985791125000
-93.4,1710985791140625
-103.55,1710985791156250
-110.38,1710985791171875
-112.32,1710985791187500
-108.61,1710985791203125
-99.72,1710985791218750
-87.2,1710985791234375
-73.14,1710985791250000
-59.51,1710985791265625
-47.61,1710985791281250
-37.84,1710985791296875
-29.91,1710985791312500
-23.33,1710985791328125
-17.84,1710985791343750
-13.58,1710985791359375
-11.03,1710985791375000
-10.61,1710985791390625
-12.32,1710985791406250
-15.55,1710985791421875
-19.19,1710985791437500
-22.11,1710985791453125
-23.56,1710985791468750
-23.51,1710985791484375
-22.54,1710985791500000
-21.48,1710985791515625
-20.89,1710985791531250
-20.71,1710985791546875
-20.3,1710985791562500
-18.8,1710985791578125
-15.65,1710985791593750
-10.9,1710985791609375
-5.38,1710985791625000
-0.32,1710985791640625
3.14,1710985791656250
4.4,1710985791671875
3.54,1710985791687500
1.3,1710985791703125
-1.39,1710985791718750
-3.79,1710985791734375
-5.65,1710985791750000
-7.1,1710985791765625
-8.57,1710985791781250
-10.44,1710985791796875
-12.99,1710985791812500
-16.3,1710985791828125
-20.29,1710985791843750
-24.69,1710985791859375
-28.86,1710985791875000
-31.74,1710985791890625
-31.99,1710985791906250
-28.37,1710985791921875
-20.14,1710985791937500
-7.39,1710985791953125
9.01,1710985791968750
27.78,1710985791984375
47.7,1710985792000000
67.93,1710985792015625
87.94,1710985792031250
107.34,1710985792046875
125.63,1710985792062500
142.17,1710985792078125
156.13,1710985792093750
166.7,1710985792109375
173.12,1710985792125000
174.66,1710985792140625
170.62,1710985792156250
160.79,1710985792171875
145.96,1710985792187500
128.24,1710985792203125
110.95,1710985792218750
97.69,1710985792234375
90.95,1710985792250000
91.15,1710985792265625
96.28,1710985792281250
102.8,1710985792296875
106.87,1710985792312500
105.71,1710985792328125
98.11,1710985792343750
84.19,1710985792359375
64.9,1710985792375000
41.69,1710985792390625
16.5,1710985792406250
-8.1,1710985792421875
-29.06,1710985792437500
-43.67,1710985792453125
-50.65,1710985792468750
-50.96,1710985792484375
-47.8,1710985792500000
-45.46,1710985792515625
-47.81,1710985792531250
-57.08,1710985792546875
-73.32,1710985792562500
-94.86,1710985792578125
-119.27,1710985792593750
-144.21,1710985792609375
-168.1,1710985792625000
-189.97,1710985792640625
-209.02,1710985792656250
-223.97,1710985792671875
-232.86,1710985792687500
-233.36,1710985792703125
-223.81,1710985792718750
-204.11,1710985792734375
-176.38,1710985792750000
-144.62,1710985792765625
-113.66,1710985792781250
-87.68,1710985792796875
-69.16,1710985792812500
-58.59,1710985792828125
-54.97,1710985792843750
-56.77,1710985792859375
-62.58,1710985792875000
-71.37,1710985792890625
-82.23,1710985792906250
-94.08,1710985792921875
-105.69,1710985792937500
-116.11,1710985792953125
-125.05,1710985792968750
-133.04,1710985792984375
-141.25,1710985793000000
-151.0,1710985793015625
-163.32,1710985793031250
-178.67,1710985793046875
-196.73,1710985793062500
-216.66,1710985793078125
-237.12,1710985793093750
-256.46,1710985793109375
-272.95,1710985793125000
-285.13,1710985793140625
-291.93,1710985793156250
-292.88,1710985793171875
-287.93,1710985793187500
-277.26,1710985793203125
-261.18,1710985793218750
-240.01,1710985793234375
-214.18,1710985793250000
-184.21,1710985793265625
-150.58,1710985793281250
-113.51,1710985793296875
-72.84,1710985793312500
-28.22,1710985793328125
20.47,1710985793343750
72.71,1710985793359375
127.24,1710985793375000
182.27,1710985793390625
235.9,1710985793406250
286.46,1710985793421875
332.74,1710985793437500
373.8,1710985793453125
408.8,1710985793468750
436.94,1710985793484375
457.51,1710985793500000
470.2,1710985793515625
475.27,1710985793531250
473.54,1710985793546875
466.32,1710985793562500
455.06,1710985793578125
441.06,1710985793593750
425.33,1710985793609375
408.61,1710985793625000
391.61,1710985793640625
375.1,1710985793656250
359.93,1710985793671875
346.85,1710985793687500
336.15,1710985793703125
327.45,1710985793718750
319.68,1710985793734375
311.42,1710985793750000
301.52,1710985793765625
289.47,1710985793781250
275.44,1710985793796875
259.78,1710985793812500
242.42,1710985793828125
222.35,1710985793843750
198.02,1710985793859375
167.97,1710985793875000
131.77,1710985793890625
90.64,1710985793906250
47.12,1710985793921875
4.18,1710985793937500
-35.83,1710985793953125
-71.98,1710985793968750
-104.78,1710985793984375
-135.58,1710985794000000
-165.9,1710985794015625
-196.75,1710985794031250
-228.49,1710985794046875
-260.58,1710985794062500
-291.63,1710985794078125
-319.46,1710985794093750
-341.34,1710985794109375
-354.7,1710985794125000
-357.88,1710985794140625
-350.98,1710985794156250
-336.1,1710985794171875
-316.76,1710985794187500
-296.81,1710985794203125
-278.95,1710985794218750
-263.73,1710985794234375
-249.3,1710985794250000
-232.24,1710985794265625
-208.85,1710985794281250
-176.47,1710985794296875
-134.47,1710985794312500
-84.26,1710985794328125
-28.84,1710985794343750
27.98,1710985794359375
82.27,1710985794375000
130.41,1710985794390625
169.29,1710985794406250
196.41,1710985794421875
210.25,1710985794437500
210.66,1710985794453125
199.25,1710985794468750
179.15,1710985794484375
154.42,1710985794500000
128.9,1710985794515625
105.18,1710985794531250
83.72,1710985794546875
63.09,1710985794562500
40.96,1710985794578125
15.37,1710985794593750
-13.8,1710985794609375
-44.52,1710985794625000
-73.12,1710985794640625
-95.79,1710985794656250
-110.09,1710985794671875
-115.95,1710985794687500
-115.44,1710985794703125
-111.73,1710985794718750
-107.46,1710985794734375
-103.83,1710985794750000
-100.47,1710985794765625
-96.14,1710985794781250
-89.9,1710985794796875
-81.84,1710985794812500
-73.26,1710985794828125
-65.89,1710985794843750
-60.9,1710985794859375
-58.19,1710985794875000
-56.32,1710985794890625
-53.21,1710985794906250
-47.17,1710985794921875
-37.75,1710985794937500
-25.8,1710985794953125
-12.84,1710985794968750
-0.1,1710985794984375
12.18,1710985795000000
24.81,1710985795015625
39.11,1710985795031250
56.19,1710985795046875
76.55,1710985795062500
100.14,1710985795078125
126.68,1710985795093750
155.78,1710985795109375
186.63,1710985795125000
217.65,1710985795140625
246.42,1710985795156250
270.14,1710985795171875
286.54,1710985795187500
294.41,1710985795203125
293.83,1710985795218750
285.64,1710985795234375
270.93,1710985795250000
250.83,1710985795265625
226.65,1710985795281250
200.11,1710985795296875
173.15,1710985795312500
147.32,1710985795328125
123.13,1710985795343750
99.99,1710985795359375
76.86,1710985795375000
53.34,1710985795390625
30.11,1710985795406250
8.71,1710985795421875
-9.7,1710985795437500
-25.18,1710985795453125
-39.28,1710985795468750
-54.17,1710985795484375
-71.46,1710985795500000
-91.32,1710985795515625
-112.66,1710985795531250
-133.87,1710985795546875
-153.56,1710985795562500
-170.77,1710985795578125
-184.37,1710985795593750
-192.39,1710985795609375
-192.29,1710985795625000
-182.07,1710985795640625
-161.85,1710985795656250
-134.86,1710985795671875
-107.09,1710985795687500
-85.3,1710985795703125
-74.53,1710985795718750
-76.13,1710985795734375
-87.53,1710985795750000
-103.64,1710985795765625
-119.12,1710985795781250
-130.3,1710985795796875
-135.91,1710985795812500
-136.63,1710985795828125
-133.86,1710985795843750
-128.88,1710985795859375
-122.47,1710985795875000
-115.3,1710985795890625
-108.63,1710985795906250
-104.52,1710985795921875
-105.37,1710985795937500
-112.89,1710985795953125
-126.91,1710985795968750
-144.67,1710985795984375
-161.33,1710985796000000
-171.54,1710985796015625
-171.44,1710985796031250
-160.3,1710985796046875
-140.79,1710985796062500
-117.84,1710985796078125
-96.52,1710985796093750
-79.81,1710985796109375
-67.64,1710985796125000
-57.47,1710985796140625
-45.92,1710985796156250
-30.65,1710985796171875
-11.52,1710985796187500
9.56,1710985796203125
29.57,1710985796218750
45.77,1710985796234375
56.76,1710985796250000
62.7,1710985796265625
64.94,1710985796281250
65.3,1710985796296875
65.32,1710985796312500
65.96,1710985796328125
67.52,1710985796343750
69.76,1710985796359375
72.03,1710985796375000
73.6,1710985796390625
73.89,1710985796406250
72.84,1710985796421875
70.98,1710985796437500
69.17,1710985796453125
68.2,1710985796468750
68.54,1710985796484375
70.55,1710985796500000
75.01,1710985796515625
83.4,1710985796531250
97.61,1710985796546875
118.85,1710985796562500
146.36,1710985796578125
176.95,1710985796593750
205.59,1710985796609375
227.25,1710985796625000
238.59,1710985796640625
238.93,1710985796656250
229.87,1710985796671875
214.04,1710985796687500
193.94,1710985796703125
171.37,1710985796718750
147.6,1710985796734375
123.72,1710985796750000
100.78,1710985796765625
79.54,1710985796781250
60.32,1710985796796875
43.07,1710985796812500
27.91,1710985796828125
15.54,1710985796843750
7.29,1710985796859375
4.48,1710985796875000
7.52,1710985796890625
15.43,1710985796906250
25.97,1710985796921875
36.5,1710985796937500
45.08,1710985796953125
50.86,1710985796968750
53.94,1710985796984375
54.42,1710985797000000
51.82,1710985797015625
44.97,1710985797031250
32.67,1710985797046875
14.68,1710985797062500
-7.72,1710985797078125
-31.76,1710985797093750
-54.11,1710985797109375
-72.08,1710985797125000
-84.46,1710985797140625
-91.74,1710985797156250
-95.58,1710985797171875
-98.0,1710985797187500
-100.45,1710985797203125
-103.3,1710985797218750
-105.83,1710985797234375
-106.77,1710985797250000
-105.1,1710985797265625
-100.78,1710985797281250
-94.86,1710985797296875
-89.02,1710985797312500
-84.62,1710985797328125
-81.96,1710985797343750
-80.18,1710985797359375
-77.84,1710985797375000
-73.75,1710985797390625
-67.66,1710985797406250
-60.23,1710985797421875
-52.68,1710985797437500
-46.14,1710985797453125
-41.27,1710985797468750
-38.11,1710985797484375
-36.3,1710985797500000
-35.31,1710985797515625
-34.6,1710985797531250
-33.87,1710985797546875
-33.23,1710985797562500
-33.32,1710985797578125
-35.28,1710985797593750
-40.38,1710985797609375
-49.5,1710985797625000
-62.45,1710985797640625
-77.8,1710985797656250
-92.97,1710985797671875
-105.17,1710985797687500
-112.42,1710985797703125
-114.23,1710985797718750
-111.93,1710985797734375
-107.95,1710985797750000
-104.81,1710985797765625
-103.95,1710985797781250
-105.2,1710985797796875
-106.87,1710985797812500
-106.66,1710985797828125
-102.67,1710985797843750
-94.21,1710985797859375
-82.12,1710985797875000
-68.27,1710985797890625
-54.7,1710985797906250
-42.7,1710985797921875
-32.33,1710985797937500
-22.51,1710985797953125
-11.85,1710985797968750
0.49,1710985797984375
14.22,1710985798000000
28.04,1710985798015625
40.48,1710985798031250
50.69,1710985798046875
58.84,1710985798062500
65.75,1710985798078125
72.15,1710985798093750
78.02,1710985798109375
82.43,1710985798125000
84.23,1710985798140625
82.78,1710985798156250
78.68,1710985798171875
73.72,1710985798187500
70.32,1710985798203125
70.68,1710985798218750
76.08,1710985798234375
86.57,1710985798250000
101.15,1710985798265625
118.23,1710985798281250
136.24,1710985798296875
153.91,1710985798312500
170.4,1710985798328125
185.13,1710985798343750
197.7,1710985798359375
207.79,1710985798375000
215.15,1710985798390625
219.54,1710985798406250
220.82,1710985798421875
218.87,1710985798437500
213.84,1710985798453125
206.09,1710985798468750
196.27,1710985798484375
185.08,1710985798500000
173.01,1710985798515625
160.14,1710985798531250
146.17,1710985798546875
130.67,1710985798562500
113.54,1710985798578125
95.43,1710985798593750
77.82,1710985798609375
62.72,1710985798625000
52.15,1710985798640625
47.5,1710985798656250
49.0,1710985798671875
55.58,1710985798687500
64.99,1710985798703125
74.23,1710985798718750
80.18,1710985798734375
80.19,1710985798750000
72.6,1710985798765625
56.99,1710985798781250
34.4,1710985798796875
7.31,1710985798812500
-20.47,1710985798828125
-44.22,1710985798843750
-59.13,1710985798859375
-61.66,1710985798875000
-50.84,1710985798890625
-29.22,1710985798906250
-2.42,1710985798921875
22.47,1710985798937500
39.43,1710985798953125
45.37,1710985798968750
40.71,1710985798984375
28.1,1710985799000000
10.14,1710985799015625
-12.55,1710985799031250
-41.65,1710985799046875
-79.71,1710985799062500
-127.99,1710985799078125
-184.69,1710985799093750
-244.84,1710985799109375
-302.0,1710985799125000
-350.55,1710985799140625
-387.4,1710985799156250
-412.46,1710985799171875
-427.77,1710985799187500
-436.09,1710985799203125
-439.88,1710985799218750
-441.38,1710985799234375
-442.9,1710985799250000
-447.09,1710985799265625
-456.27,1710985799281250
-471.26,1710985799296875
-490.19,1710985799312500
-508.53,1710985799328125
-520.36,1710985799343750
-520.72,1710985799359375
-507.64,1710985799375000
-482.81,1710985799390625
-450.54,1710985799406250
-415.56,1710985799421875
-380.92,1710985799437500
-347.26,1710985799453125
-313.6,1710985799468750
-279.02,1710985799484375
-243.87,1710985799500000
-209.96,1710985799515625
-179.79,1710985799531250
-155.49,1710985799546875
-138.06,1710985799562500
-127.36,1710985799578125
-122.52,1710985799593750
-122.21,1710985799609375
-124.85,1710985799625000
-128.68,1710985799640625
-131.84,1710985799656250
-132.29,1710985799671875
-128.3,1710985799687500
-118.55,1710985799703125
-102.41,1710985799718750
-80.15,1710985799734375
-52.88,1710985799750000
-22.34,1710985799765625
9.53,1710985799781250
41.16,1710985799796875
71.8,1710985799812500
101.46,1710985799828125
130.51,1710985799843750
159.0,1710985799859375
186.23,1710985799875000
210.95,1710985799890625
231.76,1710985799906250
247.75,1710985799921875
258.69,1710985799937500
264.96,1710985799953125
267.11,1710985799968750
265.68,1710985799984375
261.22,1710985800000000
254.37,1710985800015625
246.04,1710985800031250
237.09,1710985800046875
228.21,1710985800062500
219.75,1710985800078125
211.81,1710985800093750
204.45,1710985800109375
197.93,1710985800125000
192.75,1710985800140625
189.38,1710985800156250
188.04,1710985800171875
188.44,1710985800187500
189.87,1710985800203125
191.46,1710985800218750
192.53,1710985800234375
192.85,1710985800250000
192.57,1710985800265625
192.11,1710985800281250
191.97,1710985800296875
192.58,1710985800312500
194.22,1710985800328125
197.01,1710985800343750
200.75,1710985800359375
205.06,1710985800375000
209.42,1710985800390625
213.46,1710985800406250
217.17,1710985800421875
220.98,1710985800437500
225.52,1710985800453125
231.43,1710985800468750
238.86,1710985800484375
247.26,1710985800500000
255.39,1710985800515625
261.74,1710985800531250
264.98,1710985800546875
264.58,1710985800562500
261.07,1710985800578125
255.88,1710985800593750
250.93,1710985800609375
247.81,1710985800625000
247.01,1710985800640625
247.52,1710985800656250
247.01,1710985800671875
242.44,1710985800687500
231.05,1710985800703125
211.12,1710985800718750
182.17,1710985800734375
144.92,1710985800750000
101.13,1710985800765625
53.5,1710985800781250
5.81,1710985800796875
-37.58,1710985800812500
-72.45,1710985800828125
-96.01,1710985800843750
-107.95,1710985800859375
-110.91,1710985800875000
-109.56,1710985800890625
-108.79,1710985800906250
-111.88,1710985800921875
-119.62,1710985800937500
-130.92,1710985800953125
-144.2,1710985800968750
-158.7,1710985800984375
-174.74,1710985801000000
-192.88,1710985801015625
-212.66,1710985801031250
-231.91,1710985801046875
-247.37,1710985801062500
-256.05,1710985801078125
-256.96,1710985801093750
-251.48,1710985801109375
-242.77,1710985801125000
-234.1,1710985801140625
-227.3,1710985801156250
-222.24,1710985801171875
-217.44,1710985801187500
-211.38,1710985801203125
-203.41,1710985801218750
-194.19,1710985801234375
-185.13,1710985801250000
-177.64,1710985801265625
-172.39,1710985801281250
-169.04,1710985801296875
-166.48,1710985801312500
-163.45,1710985801328125
-159.07,1710985801343750
-153.18,1710985801359375
-146.49,1710985801375000
-140.23,1710985801390625
-135.69,1710985801406250
-133.67,1710985801421875
-134.2,1710985801437500
-136.53,1710985801453125
-139.62,1710985801468750
-142.58,1710985801484375
-144.95,1710985801500000
-146.66,1710985801515625
-147.62,1710985801531250
-147.31,1710985801546875
-144.82,1710985801562500
-138.96,1710985801578125
-128.82,1710985801593750
-114.16,1710985801609375
-95.72,1710985801625000
-75.04,1710985801640625
-54.31,1710985801656250
-35.88,1710985801671875
-21.7,1710985801687500
-12.95,1710985801703125
-9.71,1710985801718750
-11.17,1710985801734375
-16.19,1710985801750000
-23.84,1710985801765625
-33.88,1710985801781250
-47.08,1710985801796875
-65.2,1710985801812500
-90.61,1710985801828125
-125.55,1710985801843750
-170.98,1710985801859375
-225.53,1710985801875000
-285.01,1710985801890625
-342.9,1710985801906250
-391.76,1710985801921875
-425.37,1710985801937500
-440.4,1710985801953125
-436.99,1710985801968750
-417.97,1710985801984375
-387.01,1710985802000000
-347.03,1710985802015625
-299.55,1710985802031250
-244.76,1710985802046875
-182.23,1710985802062500
-111.63,1710985802078125
-33.58,1710985802093750
49.67,1710985802109375
133.4,1710985802125000
210.41,1710985802140625
272.06,1710985802156250
310.73,1710985802171875
322.82,1710985802187500
310.78,1710985802203125
283.13,1710985802218750
252.09,1710985802234375
229.63,1710985802250000
223.86,1710985802265625
237.15,1710985802281250
266.42,1710985802296875
305.07,1710985802312500
345.17,1710985802328125
379.01,1710985802343750
400.01,1710985802359375
403.41,1710985802375000
387.09,1710985802390625
352.7,1710985802406250
306.19,1710985802421875
257.13,1710985802437500
216.5,1710985802453125
193.37,1710985802468750
191.73,1710985802484375
208.95,1710985802500000
236.9,1710985802515625
265.01,1710985802531250
284.17,1710985802546875
289.72,1710985802562500
282.36,1710985802578125
266.67,1710985802593750
248.42,1710985802609375
231.85,1710985802625000
218.3,1710985802640625
206.49,1710985802656250
193.91,1710985802671875
178.49,1710985802687500
159.65,1710985802703125
138.49,1710985802718750
116.95,1710985802734375
96.79,1710985802750000
78.95,1710985802765625
63.52,1710985802781250
50.23,1710985802796875
38.99,1710985802812500
30.19,1710985802828125
24.38,1710985802843750
21.76,1710985802859375
21.72,1710985802875000
22.82,1710985802890625
23.44,1710985802906250
22.42,1710985802921875
19.66,1710985802937500
16.06,1710985802953125
13.03,1710985802968750
11.71,1710985802984375
12.4,1710985803000000
14.41,1710985803015625
16.47,1710985803031250
17.28,1710985803046875
16.09,1710985803062500
12.99,1710985803078125
8.69,1710985803093750
4.17,1710985803109375
0.2,1710985803125000
-3.02,1710985803140625
-5.87,1710985803156250
-9.0,1710985803171875
-12.89,1710985803187500
-17.64,1710985803203125
-22.89,1710985803218750
-27.97,1710985803234375
-32.33,1710985803250000
-35.68,1710985803265625
-38.19,1710985803281250
-40.29,1710985803296875
-42.57,1710985803312500
-45.57,1710985803328125
-49.75,1710985803343750
-55.31,1710985803359375
-62.11,1710985803375000
-69.46,1710985803390625
-76.08,1710985803406250
-80.31,1710985803421875
-80.54,1710985803437500
-75.78,1710985803453125
-66.05,1710985803468750
-52.42,1710985803484375
-36.66,1710985803500000
-20.6,1710985803515625
-5.59,1710985803531250
7.66,1710985803546875
18.97,1710985803562500
28.38,1710985803578125
35.88,1710985803593750
41.32,1710985803609375
44.59,1710985803625000
45.77,1710985803640625
45.24,1710985803656250
43.58,1710985803671875
41.38,1710985803687500
39.13,1710985803703125
37.13,1710985803718750
35.62,1710985803734375
34.82,1710985803750000
34.94,1710985803765625
36.14,1710985803781250
38.34,1710985803796875
41.19,1710985803812500
44.15,1710985803828125
46.57,1710985803843750
47.97,1710985803859375
48.11,1710985803875000
46.99,1710985803890625
44.89,1710985803906250
42.18,1710985803921875
39.17,1710985803937500
36.08,1710985803953125
32.93,1710985803968750
29.6,1710985803984375
25.94,1710985804000000
21.86,1710985804015625
17.42,1710985804031250
12.79,1710985804046875
8.15,1710985804062500
3.56,1710985804078125
-1.11,1710985804093750
-6.12,1710985804109375
-11.69,1710985804125000
-17.85,1710985804140625
-24.37,1710985804156250
-30.94,1710985804171875
-37.25,1710985804187500
-43.14,1710985804203125
-48.7,1710985804218750
-54.12,1710985804234375
-59.63,1710985804250000
-65.46,1710985804265625
-71.84,1710985804281250
-78.82,1710985804296875
-86.21,1710985804312500
-93.39,1710985804328125
-99.27,1710985804343750
-102.56,1710985804359375
-102.06,1710985804375000
-97.1,1710985804390625
-87.67,1710985804406250
-74.47,1710985804421875
-58.7,1710985804437500
-41.78,1710985804453125
-25.14,1710985804468750
-10.07,1710985804484375
2.49,1710985804500000
12.07,1710985804515625
18.72,1710985804531250
22.96,1710985804546875
25.45,1710985804562500
26.78,1710985804578125
27.21,1710985804593750
26.7,1710985804609375
25.16,1710985804625000
22.7,1710985804640625
19.87,1710985804656250
17.55,1710985804671875
16.88,1710985804687500
18.89,1710985804703125
24.23,1710985804718750
33.12,1710985804734375
45.29,1710985804750000
60.04,1710985804765625
76.17,1710985804781250
92.04,1710985804796875
105.8,1710985804812500
115.95,1710985804828125
122.02,1710985804843750
124.9,1710985804859375
126.65,1710985804875000
129.35,1710985804890625
133.91,1710985804906250
139.06,1710985804921875
141.62,1710985804937500
137.7,1710985804953125
124.54,1710985804968750
101.81,1710985804984375
71.75,1710985805000000
38.03,1710985805015625
4.22,1710985805031250
-27.38,1710985805046875
-55.87,1710985805062500
-81.1,1710985805078125
-102.89,1710985805093750
-120.74,1710985805109375
-134.07,1710985805125000
-142.87,1710985805140625
-147.96,1710985805156250
-150.82,1710985805171875
-152.92,1710985805187500
-155.02,1710985805203125
-156.88,1710985805218750
-157.46,1710985805234375
-155.4,1710985805250000
-149.53,1710985805265625
-139.2,1710985805281250
-124.41,1710985805296875
-105.8,1710985805312500
-84.5,1710985805328125
-61.83,1710985805343750
-39.13,1710985805359375
-17.36,1710985805375000
2.92,1710985805390625
21.49,1710985805406250
38.14,1710985805421875
52.51,1710985805437500
64.05,1710985805453125
72.13,1710985805468750
76.34,1710985805484375
76.74,1710985805500000
73.81,1710985805515625
68.37,1710985805531250
61.25,1710985805546875
53.18,1710985805562500
44.61,1710985805578125
35.76,1710985805593750
26.77,1710985805609375
17.82,1710985805625000
9.16,1710985805640625
1.09,1710985805656250
-6.17,1710985805671875
-12.61,1710985805687500
-18.45,1710985805703125
-24.13,1710985805718750
-30.01,1710985805734375
-36.25,1710985805750000
-42.8,1710985805765625
-49.35,1710985805781250
-55.62,1710985805796875
-61.28,1710985805812500
-66.14,1710985805828125
-70.02,1710985805843750
-72.83,1710985805859375
-74.62,1710985805875000
-75.67,1710985805890625
-76.47,1710985805906250
-77.6,1710985805921875
-79.5,1710985805937500
-82.2,1710985805953125
-85.33,1710985805968750
-88.18,1710985805984375
-90.05,1710985806000000
-90.52,1710985806015625
-89.69,1710985806031250
-88.05,1710985806046875
-86.33,1710985806062500
-85.3,1710985806078125
-85.6,1710985806093750
-87.67,1710985806109375
-91.59,1710985806125000
-97.01,1710985806140625
-102.9,1710985806156250
-107.7,1710985806171875
-109.46,1710985806187500
-106.44,1710985806203125
-97.65,1710985806218750
-83.29,1710985806234375
-64.6,1710985806250000
-43.51,1710985806265625
-22.04,1710985806281250
-1.79,1710985806296875
16.3,1710985806312500
31.87,1710985806328125
44.91,1710985806343750
55.5,1710985806359375
63.7,1710985806375000
69.51,1710985806390625
72.98,1710985806406250
74.23,1710985806421875
73.59,1710985806437500
71.52,1710985806453125
68.55,1710985806468750
65.3,1710985806484375
62.32,1710985806500000
59.98,1710985806515625
58.57,1710985806531250
58.17,1710985806546875
58.78,1710985806562500
60.3,1710985806578125
62.49,1710985806593750
64.98,1710985806609375
67.28,1710985806625000
68.87,1710985806640625
69.27,1710985806656250
68.21,1710985806671875
65.62,1710985806687500
61.7,1710985806703125
56.82,1710985806718750
51.45,1710985806734375
45.99,1710985806750000
40.63,1710985806765625
35.37,1710985806781250
29.93,1710985806796875
23.98,1710985806812500
17.22,1710985806828125
9.61,1710985806843750
1.42,1710985806859375
-6.85,1710985806875000
-14.64,1710985806890625
-21.53,1710985806906250
-27.46,1710985806921875
-32.69,1710985806937500
-37.77,1710985806953125
-43.39,1710985806968750
-50.14,1710985806984375
-58.26,1710985807000000
-67.4,1710985807015625
-76.48,1710985807031250
-83.84,1710985807046875
-87.74,1710985807062500
-86.82,1710985807078125
-80.65,1710985807093750
-69.76,1710985807109375
-55.42,1710985807125000
-39.12,1710985807140625
-22.24,1710985807156250
-5.78,1710985807171875
9.53,1710985807187500
23.16,1710985807203125
34.71,1710985807218750
44.02,1710985807234375
51.19,1710985807250000
56.61,1710985807265625
60.76,1710985807281250
63.98,1710985807296875
66.38,1710985807312500
67.94,1710985807328125
68.66,1710985807343750
68.7,1710985807359375
68.43,1710985807375000
68.31,1710985807390625
68.76,1710985807406250
69.99,1710985807421875
71.96,1710985807437500
74.34,1710985807453125
76.64,1710985807468750
78.3,1710985807484375
78.84,1710985807500000
77.95,1710985807515625
75.58,1710985807531250
71.92,1710985807546875
67.28,1710985807562500
61.97,1710985807578125
56.34,1710985807593750
50.5,1710985807609375
44.52,1710985807625000
38.29,1710985807640625
31.65,1710985807656250
24.39,1710985807671875
16.43,1710985807687500
7.86,1710985807703125
-1.02,1710985807718750
-9.82,1710985807734375
-18.17,1710985807750000
-25.92,1710985807765625
-33.22,1710985807781250
-40.5,1710985807796875
-48.34,1710985807812500
-57.27,1710985807828125
-67.52,1710985807843750
-78.77,1710985807859375
-89.94,1710985807875000
-99.33,1710985807890625
-104.98,1710985807906250
-105.19,1710985807921875
-99.13,1710985807937500
-87.1,1710985807953125
-70.5,1710985807968750
-51.3,1710985807984375
-31.47,1710985808000000
-12.49,1710985808015625
4.78,1710985808031250
20.04,1710985808046875
33.19,1710985808062500
44.1,1710985808078125
52.58,1710985808093750
58.44,1710985808109375
61.65,1710985808125000
62.41,1710985808140625
61.11,1710985808156250
58.32,1710985808171875
54.63,1710985808187500
50.63,1710985808203125
46.85,1710985808218750
43.76,1710985808234375
41.67,1710985808250000
40.75,1710985808265625
40.95,1710985808281250
42.0,1710985808296875
43.42,1710985808312500
44.6,1710985808328125
44.98,1710985808343750
44.18,1710985808359375
42.1,1710985808375000
39.02,1710985808390625
35.38,1710985808406250
31.66,1710985808421875
28.11,1710985808437500
24.68,1710985808453125
21.08,1710985808468750
16.9,1710985808484375
11.83,1710985808500000
5.88,1710985808515625
-0.75,1710985808531250
-7.72,1710985808546875
-14.69,1710985808562500
-21.46,1710985808578125
-28.06,1710985808593750
-34.67,1710985808609375
-41.64,1710985808625000
-49.35,1710985808640625
-58.11,1710985808656250
-67.83,1710985808671875
-77.83,1710985808687500
-86.75,1710985808703125
-92.78,1710985808718750
-94.18,1710985808734375
-89.91,1710985808750000
-80.0,1710985808765625
-65.55,1710985808781250
-48.27,1710985808796875
-29.93,1710985808812500
-11.91,1710985808828125
4.91,1710985808843750
20.04,1710985808859375
33.02,1710985808875000
43.52,1710985808890625
51.18,1710985808906250
55.96,1710985808921875
58.14,1710985808937500
58.27,1710985808953125
56.99,1710985808968750
54.9,1710985808984375
52.43,1710985809000000
49.92,1710985809015625
47.64,1710985809031250
45.81,1710985809046875
44.64,1710985809062500
44.27,1710985809078125
44.73,1710985809093750
45.98,1710985809109375
47.81,1710985809125000
49.89,1710985809140625
51.67,1710985809156250
52.54,1710985809171875
52.02,1710985809187500
49.87,1710985809203125
46.26,1710985809218750
41.67,1710985809234375
36.61,1710985809250000
31.49,1710985809265625
26.34,1710985809281250
20.91,1710985809296875
14.88,1710985809312500
8.07,1710985809328125
0.55,1710985809343750
-7.35,1710985809359375
-15.17,1710985809375000
-22.52,1710985809390625
-29.21,1710985809406250
-35.28,1710985809421875
-41.05,1710985809437500
-47.02,1710985809453125
-53.73,1710985809468750
-61.56,1710985809484375
-70.4,1710985809500000
-79.43,1710985809515625
-87.21,1710985809531250
-91.91,1710985809546875
-91.98,1710985809562500
-86.63,1710985809578125
-76.14,1710985809593750
-61.8,1710985809609375
-45.4,1710985809625000
-28.69,1710985809640625
-12.95,1710985809656250
1.1,1710985809671875
13.22,1710985809687500
23.35,1710985809703125
31.46,1710985809718750
37.5,1710985809734375
41.49,1710985809750000
43.58,1710985809765625
44.11,1710985809781250
43.5,1710985809796875
42.2,1710985809812500
40.66,1710985809828125
39.22,1710985809843750
38.12,1710985809859375
37.5,1710985809875000
37.38,1710985809890625
37.7,1710985809906250
38.34,1710985809921875
39.16,1710985809937500
40.01,1710985809953125
40.65,1710985809968750
40.79,1710985809984375
40.13,1710985810000000
38.4,1710985810015625
35.49,1710985810031250
31.49,1710985810046875
26.72,1710985810062500
21.63,1710985810078125
16.65,1710985810093750
12.11,1710985810109375
8.07,1710985810125000
4.39,1710985810140625
0.73,1710985810156250
-3.26,1710985810171875
-7.8,1710985810187500
-12.9,1710985810203125
-18.3,1710985810218750
-23.65,1710985810234375
-28.56,1710985810250000
-32.89,1710985810265625
-36.74,1710985810281250
-40.43,1710985810296875
-44.45,1710985810312500
-49.24,1710985810328125
-55.12,1710985810343750
-62.0,1710985810359375
-69.42,1710985810375000
-76.41,1710985810390625
-81.68,1710985810406250
-83.91,1710985810421875
-82.08,1710985810437500
-75.8,1710985810453125
-65.5,1710985810468750
-52.25,1710985810484375
-37.54,1710985810500000
-22.9,1710985810515625
-9.46,1710985810531250
2.09,1710985810546875
11.6,1710985810562500
19.27,1710985810578125
25.38,1710985810593750
30.13,1710985810609375
33.64,1710985810625000
35.95,1710985810640625
37.09,1710985810656250
37.25,1710985810671875
36.82,1710985810687500
36.24,1710985810703125
35.89,1710985810718750
36.0,1710985810734375
36.55,1710985810750000
37.39,1710985810765625
38.31,1710985810781250
39.15,1710985810796875
39.89,1710985810812500
40.55,1710985810828125
41.16,1710985810843750
41.71,1710985810859375
42.02,1710985810875000
41.85,1710985810890625
40.99,1710985810906250
39.34,1710985810921875
36.93,1710985810937500
33.9,1710985810953125
30.39,1710985810968750
26.51,1710985810984375
22.3,1710985811000000
17.77,1710985811015625
12.97,1710985811031250
7.93,1710985811046875
2.66,1710985811062500
-2.81,1710985811078125
-8.41,1710985811093750
-13.96,1710985811109375
-19.18,1710985811125000
-23.72,1710985811140625
-27.37,1710985811156250
-30.13,1710985811171875
-32.31,1710985811187500
-34.38,1710985811203125
-36.85,1710985811218750
-40.09,1710985811234375
-44.36,1710985811250000
-49.6,1710985811265625
-55.43,1710985811281250
-61.09,1710985811296875
-65.44,1710985811312500
-67.27,1710985811328125
-65.56,1710985811343750
-59.92,1710985811359375
-50.77,1710985811375000
-39.12,1710985811390625
-26.34,1710985811406250
-13.67,1710985811421875
-2.02,1710985811437500
8.08,1710985811453125
16.44,1710985811468750
22.98,1710985811484375
27.67,1710985811500000
30.59,1710985811515625
31.8,1710985811531250
31.51,1710985811546875
29.93,1710985811562500
27.41,1710985811578125
24.35,1710985811593750
21.22,1710985811609375
18.44,1710985811625000
16.34,1710985811640625
15.03,1710985811656250
14.47,1710985811671875
14.52,1710985811687500
15.01,1710985811703125
15.76,1710985811718750
16.6,1710985811734375
17.34,1710985811750000
17.81,1710985811765625
17.86,1710985811781250
17.49,1710985811796875
16.75,1710985811812500
15.79,1710985811828125
14.66,1710985811843750
13.3,1710985811859375
11.55,1710985811875000
9.22,1710985811890625
6.21,1710985811906250
2.62,1710985811921875
-1.33,1710985811937500
-5.41,1710985811953125
-9.38,1710985811968750
-13.16,1710985811984375
-16.83,1710985812000000
-20.6,1710985812015625
-24.65,1710985812031250
-29.12,1710985812046875
-33.97,1710985812062500
-38.95,1710985812078125
-43.78,1710985812093750
-48.2,1710985812109375
-52.14,1710985812125000
-55.73,1710985812140625
-59.32,1710985812156250
-63.26,1710985812171875
-67.78,1710985812187500
-72.78,1710985812203125
-77.74,1710985812218750
-81.79,1710985812234375
-83.82,1710985812250000
-82.84,1710985812265625
-78.25,1710985812281250
-70.0,1710985812296875
-58.74,1710985812312500
-45.53,1710985812328125
-31.64,1710985812343750
-18.08,1710985812359375
-5.51,1710985812375000
5.82,1710985812390625
15.86,1710985812406250
24.65,1710985812421875
32.14,1710985812437500
38.25,1710985812453125
42.89,1710985812468750
46.13,1710985812484375
48.17,1710985812500000
49.33,1710985812515625
49.95,1710985812531250
50.3,1710985812546875
50.54,1710985812562500
50.69,1710985812578125
50.76,1710985812593750
50.73,1710985812609375
50.66,1710985812625000
50.63,1710985812640625
50.65,1710985812656250
50.64,1710985812671875
50.42,1710985812687500
49.79,1710985812703125
48.53,1710985812718750
46.56,1710985812734375
43.88,1710985812750000
40.57,1710985812765625
36.77,1710985812781250
32.63,1710985812796875
28.28,1710985812812500
23.82,1710985812828125
19.24,1710985812843750
14.44,1710985812859375
9.28,1710985812875000
3.7,1710985812890625
-2.27,1710985812906250
-8.44,1710985812921875
-14.59,1710985812937500
-20.54,1710985812953125
-26.24,1710985812968750
-31.71,1710985812984375
-37.03,1710985813000000
-42.29,1710985813015625
-47.59,1710985813031250
-53.05,1710985813046875
-58.88,1710985813062500
-65.23,1710985813078125
-72.05,1710985813093750
-78.86,1710985813109375
-84.69,1710985813125000
-88.25,1710985813140625
-88.29,1710985813156250
-84.01,1710985813171875
-75.41,1710985813187500
-63.23,1710985813203125
-48.82,1710985813218750
-33.65,1710985813234375
-19.02,1710985813250000
-5.81,1710985813265625
5.55,1710985813281250
15.0,1710985813296875
22.6,1710985813312500
28.53,1710985813328125
32.89,1710985813343750
35.73,1710985813359375
37.07,1710985813375000
36.98,1710985813390625
35.62,1710985813406250
33.32,1710985813421875
30.54,1710985813437500
27.75,1710985813453125
25.33,1710985813468750
23.5,1710985813484375
22.36,1710985813500000
21.91,1710985813515625
22.06,1710985813531250
22.72,1710985813546875
23.65,1710985813562500
24.54,1710985813578125
25.06,1710985813593750
24.94,1710985813609375
24.09,1710985813625000
22.6,1710985813640625
20.68,1710985813656250
18.52,1710985813671875
16.19,1710985813687500
13.62,1710985813703125
10.71,1710985813718750
7.4,1710985813734375
3.68,1710985813750000
-0.32,1710985813765625
-4.52,1710985813781250
-8.9,1710985813796875
-13.54,1710985813812500
-18.47,1710985813828125
-23.68,1710985813843750
-28.96,1710985813859375
-34.01,1710985813875000
-38.56,1710985813890625
-42.54,1710985813906250
-46.08,1710985813921875
-49.5,1710985813937500
-53.21,1710985813953125
-57.58,1710985813968750
-62.89,1710985813984375
-69.17,1710985814000000
-76.06,1710985814015625
-82.73,1710985814031250
-87.85,1710985814046875
-89.92,1710985814062500
-87.74,1710985814078125
-80.83,1710985814093750
-69.67,1710985814109375
-55.55,1710985814125000
-40.15,1710985814140625
-24.97,1710985814156250
-11.07,1710985814171875
1.06,1710985814187500
11.28,1710985814203125
19.6,1710985814218750
26.06,1710985814234375
30.73,1710985814250000
33.74,1710985814265625
35.28,1710985814281250
35.59,1710985814296875
34.92,1710985814312500
33.53,1710985814328125
31.69,1710985814343750
29.75,1710985814359375
28.06,1710985814375000
26.94,1710985814390625
26.55,1710985814406250
26.9,1710985814421875
27.9,1710985814437500
29.41,1710985814453125
31.29,1710985814468750
33.44,1710985814484375
35.71,1710985814500000
37.85,1710985814515625
39.55,1710985814531250
40.51,1710985814546875
40.61,1710985814562500
39.88,1710985814578125
38.51,1710985814593750
36.75,1710985814609375
34.71,1710985814625000
32.33,1710985814640625
29.5,1710985814656250
26.1,1710985814671875
22.2,1710985814687500
18.0,1710985814703125
13.75,1710985814718750
9.64,1710985814734375
5.67,1710985814750000
1.7,1710985814765625
-2.43,1710985814781250
-6.87,1710985814796875
-11.66,1710985814812500
-16.74,1710985814828125
-21.94,1710985814843750
-27.11,1710985814859375
-32.07,1710985814875000
-36.79,1710985814890625
-41.34,1710985814906250
-46.04,1710985814921875
-51.35,1710985814937500
-57.58,1710985814953125
-64.71,1710985814968750
-72.04,1710985814984375
-78.29,1710985815000000
-81.84,1710985815015625
-81.29,1710985815031250
-75.92,1710985815046875
-65.97,1710985815062500
-52.48,1710985815078125
-36.97,1710985815093750
-20.95,1710985815109375
-5.65,1710985815125000
8.13,1710985815140625
19.93,1710985815156250
29.59,1710985815171875
37.12,1710985815187500
42.66,1710985815203125
46.46,1710985815218750
48.77,1710985815234375
49.76,1710985815250000
49.58,1710985815265625
48.36,1710985815281250
46.37,1710985815296875
43.96,1710985815312500
41.6,1710985815328125
39.67,1710985815343750
38.44,1710985815359375
38.01,1710985815375000
38.35,1710985815390625
39.28,1710985815406250
40.61,1710985815421875
42.0,1710985815437500
43.09,1710985815453125
43.52,1710985815468750
43.1,1710985815484375
41.89,1710985815500000
40.09,1710985815515625
37.97,1710985815531250
35.68,1710985815546875
33.12,1710985815562500
30.08,1710985815578125
26.3,1710985815593750
21.73,1710985815609375
16.61,1710985815625000
11.33,1710985815640625
6.29,1710985815656250
1.73,1710985815671875
-2.41,1710985815687500
-6.4,1710985815703125
-10.55,1710985815718750
-15.06,1710985815734375
-19.86,1710985815750000
-24.75,1710985815765625
-29.43,1710985815781250
-33.75,1710985815796875
-37.8,1710985815812500
-41.83,1710985815828125
-46.13,1710985815843750
-50.94,1710985815859375
-56.29,1710985815875000
-62.14,1710985815890625
-68.32,1710985815906250
-74.64,1710985815921875
-80.75,1710985815937500
-85.99,1710985815953125
-89.39,1710985815968750
-89.77,1710985815984375
-86.09,1710985816000000
-77.92,1710985816015625
-65.6,1710985816031250
-50.28,1710985816046875
-33.54,1710985816062500
-16.95,1710985816078125
-1.68,1710985816093750
11.64,1710985816109375
22.82,1710985816125000
31.89,1710985816140625
38.9,1710985816156250
43.86,1710985816171875
46.76,1710985816187500
47.67,1710985816203125
46.81,1710985816218750
44.53,1710985816234375
41.27,1710985816250000
37.48,1710985816265625
33.55,1710985816281250
29.89,1710985816296875
26.88,1710985816312500
24.91,1710985816328125
24.29,1710985816343750
25.2,1710985816359375
27.57,1710985816375000
31.02,1710985816390625
34.94,1710985816406250
38.6,1710985816421875
41.32,1710985816437500
42.71,1710985816453125
42.63,1710985816468750
41.3,1710985816484375
39.01,1710985816500000
36.06,1710985816515625
32.64,1710985816531250
28.87,1710985816546875
24.87,1710985816562500
20.8,1710985816578125
16.83,1710985816593750
13.1,1710985816609375
9.66,1710985816625000
6.39,1710985816640625
3.11,1710985816656250
-0.34,1710985816671875
-4.08,1710985816687500
-8.13,1710985816703125
-12.43,1710985816718750
-16.94,1710985816734375
-21.59,1710985816750000
-26.34,1710985816765625
-31.15,1710985816781250
-36.12,1710985816796875
-41.41,1710985816812500
-47.24,1710985816828125
-53.76,1710985816843750
-60.83,1710985816859375
-67.82,1710985816875000
-73.62,1710985816890625
-76.85,1710985816906250
-76.29,1710985816921875
-71.27,1710985816937500
-61.95,1710985816953125
-49.36,1710985816968750
-34.88,1710985816984375
-19.98,1710985817000000
-5.78,1710985817015625
7.05,1710985817031250
18.22,1710985817046875
27.53,1710985817062500
34.8,1710985817078125
39.9,1710985817093750
42.79,1710985817109375
43.68,1710985817125000
43.05,1710985817140625
41.48,1710985817156250
39.46,1710985817171875
37.32,1710985817187500
35.19,1710985817203125
33.13,1710985817218750
31.28,1710985817234375
29.83,1710985817250000
28.95,1710985817265625
28.66,1710985817281250
28.82,1710985817296875
29.13,1710985817312500
29.33,1710985817328125
29.29,1710985817343750
29.04,1710985817359375
28.75,1710985817375000
28.54,1710985817390625
28.37,1710985817406250
28.08,1710985817421875
27.38,1710985817437500
26.08,1710985817453125
24.06,1710985817468750
21.34,1710985817484375
18.06,1710985817500000
14.41,1710985817515625
10.55,1710985817531250
6.56,1710985817546875
2.43,1710985817562500
-1.88,1710985817578125
-6.41,1710985817593750
-11.12,1710985817609375
-15.88,1710985817625000
-20.51,1710985817640625
-24.9,1710985817656250
-29.04,1710985817671875
-32.99,1710985817687500
-36.92,1710985817703125
-40.98,1710985817718750
-45.32,1710985817734375
-50.12,1710985817750000
-55.57,1710985817765625
-61.73,1710985817781250
-68.37,1710985817796875
-74.79,1710985817812500
-79.84,1710985817828125
-82.14,1710985817843750
-80.63,1710985817859375
-74.89,1710985817875000
-65.35,1710985817890625
-53.11,1710985817906250
-39.53,1710985817921875
-25.82,1710985817937500
-12.81,1710985817953125
-1.0,1710985817968750
9.27,1710985817984375
17.72,1710985818000000
24.1,1710985818015625
28.34,1710985818031250
30.62,1710985818046875
31.29,1710985818062500
30.81,1710985818078125
29.59,1710985818093750
27.9,1710985818109375
25.86,1710985818125000
23.6,1710985818140625
21.24,1710985818156250
18.99,1710985818171875
17.08,1710985818187500
15.78,1710985818203125
15.23,1710985818218750
15.47,1710985818234375
16.38,1710985818250000
17.67,1710985818265625
19.04,1710985818281250
20.23,1710985818296875
21.13,1710985818312500
21.75,1710985818328125
22.16,1710985818343750
22.41,1710985818359375
22.39,1710985818375000
21.89,1710985818390625
20.62,1710985818406250
18.36,1710985818421875
15.0,1710985818437500
10.63,1710985818453125
5.5,1710985818468750
-0.14,1710985818484375
-6.15,1710985818500000
-12.5,1710985818515625
-19.23,1710985818531250
-26.37,1710985818546875
-33.8,1710985818562500
-41.28,1710985818578125
-48.56,1710985818593750
-55.47,1710985818609375
-62.08,1710985818625000
-68.61,1710985818640625
-75.45,1710985818656250
-83.0,1710985818671875
-91.49,1710985818687500
-100.88,1710985818703125
-110.61,1710985818718750
-119.6,1710985818734375
-126.48,1710985818750000
-129.91,1710985818765625
-129.09,1710985818781250
-124.08,1710985818796875
-115.86,1710985818812500
-105.97,1710985818828125
-95.99,1710985818843750
-87.17,1710985818859375
-80.23,1710985818875000
-75.5,1710985818890625
-73.17,1710985818906250
-73.41,1710985818921875
-76.42,1710985818937500
-82.09,1710985818953125
-90.01,1710985818968750
-99.26,1710985818984375
-108.73,1710985819000000
-117.32,1710985819015625
-124.21,1710985819031250
-128.88,1710985819046875
-130.97,1710985819062500
-130.24,1710985819078125
-126.35,1710985819093750
-119.05,1710985819109375
-108.23,1710985819125000
-94.11,1710985819140625
-77.1,1710985819156250
-57.75,1710985819171875
-36.53,1710985819187500
-13.92,1710985819203125
9.37,1710985819218750
32.21,1710985819234375
53.1,1710985819250000
70.66,1710985819265625
84.27,1710985819281250
94.66,1710985819296875
103.78,1710985819312500
114.13,1710985819328125
127.69,1710985819343750
145.08,1710985819359375
165.39,1710985819375000
186.66,1710985819390625
206.74,1710985819406250
224.09,1710985819421875
238.06,1710985819437500
248.59,1710985819453125
255.82,1710985819468750
259.72,1710985819484375
260.04,1710985819500000
256.66,1710985819515625
249.85,1710985819531250
240.43,1710985819546875
229.55,1710985819562500
218.27,1710985819578125
207.31,1710985819593750
196.97,1710985819609375
187.26,1710985819625000
178.21,1710985819640625
169.98,1710985819656250
162.96,1710985819671875
157.45,1710985819687500
153.46,1710985819703125
150.49,1710985819718750
147.69,1710985819734375
144.02,1710985819750000
138.67,1710985819765625
131.25,1710985819781250
121.85,1710985819796875
110.83,1710985819812500
98.64,1710985819828125
85.5,1710985819843750
71.41,1710985819859375
56.21,1710985819875000
39.86,1710985819890625
22.62,1710985819906250
5.21,1710985819921875
-11.29,1710985819937500
-25.82,1710985819953125
-37.65,1710985819968750
-46.62,1710985819984375
-53.07,1710985820000000
-57.65,1710985820015625
-60.97,1710985820031250
-63.36,1710985820046875
-64.83,1710985820062500
-65.36,1710985820078125
-65.14,1710985820093750
-64.62,1710985820109375
-64.58,1710985820125000
-65.66,1710985820140625
-68.14,1710985820156250
-71.8,1710985820171875
-76.05,1710985820187500
-80.15,1710985820203125
-83.53,1710985820218750
-85.85,1710985820234375
-87.1,1710985820250000
-87.5,1710985820265625
-87.31,1710985820281250
-86.77,1710985820296875
-85.98,1710985820312500
-84.93,1710985820328125
-83.48,1710985820343750
-81.57,1710985820359375
-79.22,1710985820375000
-76.67,1710985820390625
-74.38,1710985820406250
-72.83,1710985820421875
-72.47,1710985820437500
-73.52,1710985820453125
-75.79,1710985820468750
-78.6,1710985820484375
-80.81,1710985820500000
-81.11,1710985820515625
-78.37,1710985820531250
-72.14,1710985820546875
-62.79,1710985820562500
-51.43,1710985820578125
-39.48,1710985820593750
-28.14,1710985820609375
-18.09,1710985820625000
-9.44,1710985820640625
-1.97,1710985820656250
4.51,1710985820671875
9.97,1710985820687500
14.17,1710985820703125
16.82,1710985820718750
17.79,1710985820734375
17.26,1710985820750000
15.66,1710985820765625
13.54,1710985820781250
11.51,1710985820796875
10.07,1710985820812500
9.51,1710985820828125
9.92,1710985820843750
11.16,1710985820859375
12.95,1710985820875000
14.97,1710985820890625
16.88,1710985820906250
18.38,1710985820921875
19.24,1710985820937500
19.29,1710985820953125
18.49,1710985820968750
16.95,1710985820984375
14.88,1710985821000000
12.46,1710985821015625
9.76,1710985821031250
6.68,1710985821046875
2.98,1710985821062500
-1.53,1710985821078125
-6.89,1710985821093750
-12.89,1710985821109375
-19.13,1710985821125000
-25.14,1710985821140625
-30.52,1710985821156250
-35.12,1710985821171875
-39.01,1710985821187500
-42.53,1710985821203125
-46.22,1710985821218750
-50.63,1710985821234375
-56.23,1710985821250000
-63.02,1710985821265625
-70.48,1710985821281250
-77.45,1710985821296875
-82.39,1710985821312500
-83.74,1710985821328125
-80.48,1710985821343750
-72.43,1710985821359375
-60.4,1710985821375000
-45.84,1710985821390625
-30.52,1710985821406250
-15.88,1710985821421875
-2.86,1710985821437500
8.26,1710985821453125
17.62,1710985821468750
25.46,1710985821484375
31.92,1710985821500000
36.91,1710985821515625
40.27,1710985821531250
41.88,1710985821546875
41.81,1710985821562500
40.43,1710985821578125
38.24,1710985821593750
35.79,1710985821609375
33.49,1710985821625000
31.55,1710985821640625
29.88,1710985821656250
28.36,1710985821671875
26.84,1710985821687500
25.27,1710985821703125
23.76,1710985821718750
22.47,1710985821734375
21.53,1710985821750000
20.87,1710985821765625
20.18,1710985821781250
18.99,1710985821796875
16.87,1710985821812500
13.65,1710985821828125
9.48,1710985821843750
4.88,1710985821859375
0.39,1710985821875000
-3.64,1710985821890625
-7.22,1710985821906250
-10.64,1710985821921875
-14.32,1710985821937500
-18.67,1710985821953125
-23.96,1710985821968750
-30.39,1710985821984375
-38.11,1710985822000000
-47.04,1710985822015625
-56.62,1710985822031250
-65.71,1710985822046875
-72.58,1710985822062500
-75.44,1710985822078125
-72.95,1710985822093750
-64.7,1710985822109375
-51.44,1710985822125000
-34.74,1710985822140625
-16.51,1710985822156250
1.48,1710985822171875
17.96,1710985822187500
32.15,1710985822203125
43.7,1710985822218750
52.46,1710985822234375
58.35,1710985822250000
61.42,1710985822265625
61.8,1710985822281250
59.83,1710985822296875
56.06,1710985822312500
51.17,1710985822328125
45.86,1710985822343750
40.69,1710985822359375
36.06,1710985822375000
32.07,1710985822390625
28.69,1710985822406250
25.83,1710985822421875
23.5,1710985822437500
21.83,1710985822453125
20.95,1710985822468750
20.92,1710985822484375
21.54,1710985822500000
22.29,1710985822515625
22.48,1710985822531250
21.47,1710985822546875
18.94,1710985822562500
14.99,1710985822578125
10.16,1710985822593750
5.18,1710985822609375
0.6,1710985822625000
-3.39,1710985822640625
-7.06,1710985822656250
-11.01,1710985822671875
-15.88,1710985822687500
-22.17,1710985822703125
-29.99,1710985822718750
-38.95,1710985822734375
-48.16,1710985822750000
-56.28,1710985822765625
-61.74,1710985822781250
-63.21,1710985822796875
-60.04,1710985822812500
-52.37,1710985822828125
-41.23,1710985822843750
-28.05,1710985822859375
-14.24,1710985822875000
-0.79,1710985822890625
11.76,1710985822906250
23.15,1710985822921875
33.07,1710985822937500
41.12,1710985822953125
46.76,1710985822968750
49.71,1710985822984375
50.02,1710985823000000
48.21,1710985823015625
44.99,1710985823031250
41.15,1710985823046875
37.29,1710985823062500
33.76,1710985823078125
30.66,1710985823093750
27.94,1710985823109375
25.55,1710985823125000
23.49,1710985823140625
21.88,1710985823156250
20.91,1710985823171875
20.73,1710985823187500
21.28,1710985823203125
22.22,1710985823218750
22.94,1710985823234375
22.76,1710985823250000
21.11,1710985823265625
17.87,1710985823281250
13.38,1710985823296875
8.25,1710985823312500
3.09,1710985823328125
-1.74,1710985823343750
-6.29,1710985823359375
-10.84,1710985823375000
-15.81,1710985823390625
-21.5,1710985823406250
-28.08,1710985823421875
-35.62,1710985823437500
-44.05,1710985823453125
-53.1,1710985823468750
-62.12,1710985823484375
-69.94,1710985823500000
-75.08,1710985823515625
-76.1,1710985823531250
-72.16,1710985823546875
-63.32,1710985823562500
-50.59,1710985823578125
-35.61,1710985823593750
-20.1,1710985823609375
-5.45,1710985823625000
7.42,1710985823640625
18.12,1710985823656250
26.55,1710985823671875
32.76,1710985823687500
36.88,1710985823703125
39.05,1710985823718750
39.51,1710985823734375
38.59,1710985823750000
36.66,1710985823765625
34.17,1710985823781250
31.6,1710985823796875
29.38,1710985823812500
27.78,1710985823828125
26.89,1710985823843750
26.58,1710985823859375
26.62,1710985823875000
26.83,1710985823890625
27.07,1710985823906250
27.29,1710985823921875
27.46,1710985823937500
27.49,1710985823953125
27.17,1710985823968750
26.33,1710985823984375
24.82,1710985824000000
22.56,1710985824015625
19.53,1710985824031250
15.73,1710985824046875
11.24,1710985824062500
6.18,1710985824078125
0.8,1710985824093750
-4.55,1710985824109375
-9.54,1710985824125000
-13.92,1710985824140625
-17.64,1710985824156250
-20.88,1710985824171875
-24.04,1710985824187500
-27.64,1710985824203125
-32.2,1710985824218750
-37.99,1710985824234375
-44.74,1710985824250000
-51.54,1710985824265625
-56.97,1710985824281250
-59.41,1710985824296875
-57.61,1710985824312500
-51.21,1710985824328125
-40.84,1710985824343750
-27.96,1710985824359375
-14.35,1710985824375000
-1.56,1710985824390625
9.42,1710985824406250
18.26,1710985824421875
25.0,1710985824437500
29.92,1710985824453125
33.23,1710985824468750
35.15,1710985824484375
35.84,1710985824500000
35.51,1710985824515625
34.43,1710985824531250
32.94,1710985824546875
31.37,1710985824562500
30.03,1710985824578125
29.08,1710985824593750
28.57,1710985824609375
28.42,1710985824625000
28.48,1710985824640625
28.63,1710985824656250
28.85,1710985824671875
29.18,1710985824687500
29.67,1710985824703125
30.31,1710985824718750
30.91,1710985824734375
31.2,1710985824750000
30.86,1710985824765625
29.65,1710985824781250
27.57,1710985824796875
24.78,1710985824812500
21.61,1710985824828125
18.41,1710985824843750
15.35,1710985824859375
12.45,1710985824875000
9.55,1710985824890625
6.35,1710985824906250
2.69,1710985824921875
-1.41,1710985824937500
-5.74,1710985824953125
-9.99,1710985824968750
-13.9,1710985824984375
-17.35,1710985825000000
-20.41,1710985825015625
-23.36,1710985825031250
-26.54,1710985825046875
-30.37,1710985825062500
-35.18,1710985825078125
-41.12,1710985825093750
-47.9,1710985825109375
-54.75,1710985825125000
-60.49,1710985825140625
-63.74,1710985825156250
-63.32,1710985825171875
-58.62,1710985825187500
-49.84,1710985825203125
-37.95,1710985825218750
-24.38,1710985825234375
-10.67,1710985825250000
1.87,1710985825265625
12.46,1710985825281250
20.87,1710985825296875
27.24,1710985825312500
31.89,1710985825328125
35.07,1710985825343750
36.84,1710985825359375
37.09,1710985825375000
35.81,1710985825390625
33.16,1710985825406250
29.62,1710985825421875
25.92,1710985825437500
22.76,1710985825453125
20.56,1710985825468750
19.4,1710985825484375
19.06,1710985825500000
19.14,1710985825515625
19.32,1710985825531250
19.46,1710985825546875
19.54,1710985825562500
19.64,1710985825578125
19.75,1710985825593750
19.78,1710985825609375
19.56,1710985825625000
18.9,1710985825640625
17.65,1710985825656250
15.83,1710985825671875
13.59,1710985825687500
11.24,1710985825703125
9.06,1710985825718750
7.2,1710985825734375
5.58,1710985825750000
3.88,1710985825765625
1.69,1710985825781250
-1.26,1710985825796875
-5.03,1710985825812500
-9.44,1710985825828125
-14.16,1710985825843750
-18.79,1710985825859375
-23.05,1710985825875000
-26.74,1710985825890625
-29.81,1710985825906250
-32.31,1710985825921875
-34.48,1710985825937500
-36.65,1710985825953125
-39.27,1710985825968750
-42.74,1710985825984375
-47.19,1710985826000000
-52.38,1710985826015625
-57.54,1710985826031250
-61.55,1710985826046875
-63.21,1710985826062500
-61.6,1710985826078125
-56.42,1710985826093750
-48.11,1710985826109375
-37.65,1710985826125000
-26.28,1710985826140625
-15.08,1710985826156250
-4.81,1710985826171875
4.2,1710985826187500
11.85,1710985826203125
18.1,1710985826218750
22.86,1710985826234375
25.93,1710985826250000
27.18,1710985826265625
26.65,1710985826281250
24.72,1710985826296875
22.02,1710985826312500
19.24,1710985826328125
16.89,1710985826343750
15.15,1710985826359375
13.88,1710985826375000
12.75,1710985826390625
11.57,1710985826406250
10.38,1710985826421875
9.52,1710985826437500
9.3,1710985826453125
9.78,1710985826468750
10.64,1710985826484375
11.22,1710985826500000
10.85,1710985826515625
9.13,1710985826531250
6.15,1710985826546875
2.33,1710985826562500
-1.73,1710985826578125
-5.51,1710985826593750
-8.81,1710985826609375
-11.73,1710985826625000
-14.6,1710985826640625
-17.87,1710985826656250
-21.94,1710985826671875
-27.01,1710985826687500
-33.01,1710985826703125
-39.51,1710985826718750
-45.98,1710985826734375
-51.81,1710985826750000
-56.61,1710985826765625
-60.29,1710985826781250
-63.15,1710985826796875
-65.72,1710985826812500
-68.68,1710985826828125
-72.62,1710985826843750
-77.71,1710985826859375
-83.53,1710985826875000
-88.93,1710985826890625
-92.26,1710985826906250
-91.84,1710985826921875
-86.5,1710985826937500
-76.07,1710985826953125
-61.4,1710985826968750
-44.0,1710985826984375
-25.48,1710985827000000
-7.13,1710985827015625
10.32,1710985827031250
26.53,1710985827046875
41.25,1710985827062500
54.19,1710985827078125
64.92,1710985827093750
73.07,1710985827109375
78.4,1710985827125000
80.93,1710985827140625
80.98,1710985827156250
79.06,1710985827171875
75.85,1710985827187500
71.98,1710985827203125
68.03,1710985827218750
64.28,1710985827234375
60.81,1710985827250000
57.56,1710985827265625
54.48,1710985827281250
51.66,1710985827296875
49.32,1710985827312500
47.65,1710985827328125
46.72,1710985827343750
46.24,1710985827359375
45.7,1710985827375000
44.53,1710985827390625
42.28,1710985827406250
38.81,1710985827421875
34.29,1710985827437500
29.14,1710985827453125
23.85,1710985827468750
18.85,1710985827484375
14.33,1710985827500000
10.3,1710985827515625
6.5,1710985827531250
2.63,1710985827546875
-1.57,1710985827562500
-6.13,1710985827578125
-10.88,1710985827593750
-15.52,1710985827609375
-19.78,1710985827625000
-23.61,1710985827640625
-27.18,1710985827656250
-30.84,1710985827671875
-35.04,1710985827687500
-40.19,1710985827703125
-46.46,1710985827718750
-53.78,1710985827734375
-61.67,1710985827750000
-69.24,1710985827765625
-75.29,1710985827781250
-78.58,1710985827796875
-78.11,1710985827812500
-73.54,1710985827828125
-65.21,1710985827843750
-54.04,1710985827859375
-41.25,1710985827875000
-28.04,1710985827890625
-15.3,1710985827906250
-3.52,1710985827921875
6.97,1710985827937500
16.03,1710985827953125
23.48,1710985827968750
29.11,1710985827984375
32.77,1710985828000000
34.49,1710985828015625
34.52,1710985828031250
33.4,1710985828046875
31.81,1710985828062500
30.39,1710985828078125
29.57,1710985828093750
29.48,1710985828109375
29.97,1710985828125000
30.77,1710985828140625
31.75,1710985828156250
32.92,1710985828171875
34.4,1710985828187500
36.25,1710985828203125
38.32,1710985828218750
40.23,1710985828234375
41.54,1710985828250000
41.94,1710985828265625
41.39,1710985828281250
40.12,1710985828296875
38.42,1710985828312500
36.45,1710985828328125
34.07,1710985828343750
30.95,1710985828359375
26.84,1710985828375000
21.75,1710985828390625
16.04,1710985828406250
10.3,1710985828421875
5.06,1710985828437500
0.5,1710985828453125
-3.56,1710985828468750
-7.6,1710985828484375
-12.08,1710985828500000
-17.2,1710985828515625
-22.78,1710985828531250
-28.4,1710985828546875
-33.56,1710985828562500
-37.98,1710985828578125
-41.65,1710985828593750
-44.88,1710985828609375
-48.15,1710985828625000
-52.02,1710985828640625
-56.91,1710985828656250
-63.02,1710985828671875
-70.09,1710985828687500
-77.31,1710985828703125
-83.29,1710985828718750
-86.43,1710985828734375
-85.31,1710985828750000
-79.22,1710985828765625
-68.44,1710985828781250
-54.23,1710985828796875
-38.3,1710985828812500
-22.37,1710985828828125
-7.72,1710985828843750
4.96,1710985828859375
15.45,1710985828875000
23.72,1710985828890625
29.72,1710985828906250
33.47,1710985828921875
35.05,1710985828937500
34.75,1710985828953125
33.07,1710985828968750
30.58,1710985828984375
27.77,1710985829000000
24.96,1710985829015625
22.31,1710985829031250
19.97,1710985829046875
18.13,1710985829062500
17.14,1710985829078125
17.3,1710985829093750
18.76,1710985829109375
21.37,1710985829125000
24.68,1710985829140625
28.01,1710985829156250
30.63,1710985829171875
32.05,1710985829187500
32.04,1710985829203125
30.73,1710985829218750
28.43,1710985829234375
25.55,1710985829250000
22.41,1710985829265625
19.27,1710985829281250
16.24,1710985829296875
13.29,1710985829312500
10.37,1710985829328125
7.39,1710985829343750
4.38,1710985829359375
1.54,1710985829375000
-0.75,1710985829390625
-2.09,1710985829406250
-2.17,1710985829421875
-1.0,1710985829437500
1.04,1710985829453125
3.22,1710985829468750
4.75,1710985829484375
4.99,1710985829500000
3.71,1710985829515625
1.15,1710985829531250
-2.11,1710985829546875
-5.51,1710985829562500
-8.55,1710985829578125
-11.06,1710985829593750
-13.21,1710985829609375
-15.46,1710985829625000
-18.43,1710985829640625
-22.64,1710985829656250
-28.28,1710985829671875
-34.88,1710985829687500
-41.22,1710985829703125
-45.61,1710985829718750
-46.33,1710985829734375
-42.25,1710985829750000
-33.24,1710985829765625
-20.24,1710985829781250
-4.87,1710985829796875
11.15,1710985829812500
26.4,1710985829828125
40.0,1710985829843750
51.39,1710985829859375
60.2,1710985829875000
66.11,1710985829890625
68.97,1710985829906250
68.93,1710985829921875
66.45,1710985829937500
62.22,1710985829953125
56.88,1710985829968750
50.93,1710985829984375
44.67,1710985830000000
38.35,1710985830015625
32.22,1710985830031250
26.65,1710985830046875
22.04,1710985830062500
18.67,1710985830078125
16.7,1710985830093750
16.04,1710985830109375
16.42,1710985830125000
17.37,1710985830140625
18.4,1710985830156250
19.03,1710985830171875
18.98,1710985830187500
18.18,1710985830203125
16.79,1710985830218750
15.08,1710985830234375
13.23,1710985830250000
11.28,1710985830265625
9.07,1710985830281250
6.37,1710985830296875
3.05,1710985830312500
-0.82,1710985830328125
-4.93,1710985830343750
-8.94,1710985830359375
-12.55,1710985830375000
-15.69,1710985830390625
-18.47,1710985830406250
-21.17,1710985830421875
-24.01,1710985830437500
-27.14,1710985830453125
-30.55,1710985830468750
-34.1,1710985830484375
-37.63,1710985830500000
-40.99,1710985830515625
-44.14,1710985830531250
-47.14,1710985830546875
-50.2,1710985830562500
-53.71,1710985830578125
-58.17,1710985830593750
-64.03,1710985830609375
-71.43,1710985830625000
-79.94,1710985830640625
-88.38,1710985830656250
-95.03,1710985830671875
-98.01,1710985830687500
-95.93,1710985830703125
-88.3,1710985830718750
-75.72,1710985830734375
-59.64,1710985830750000
-41.91,1710985830765625
-24.2,1710985830781250
-7.69,1710985830796875
6.93,1710985830812500
19.4,1710985830828125
29.63,1710985830843750
37.57,1710985830859375
43.17,1710985830875000
46.4,1710985830890625
47.39,1710985830906250
46.42,1710985830921875
43.98,1710985830937500
40.71,1710985830953125
37.24,1710985830968750
34.13,1710985830984375
31.65,1710985831000000
29.87,1710985831015625
28.66,1710985831031250
27.87,1710985831046875
27.43,1710985831062500
27.38,1710985831078125
27.77,1710985831093750
28.6,1710985831109375
29.66,1710985831125000
30.63,1710985831140625
31.11,1710985831156250
30.71,1710985831171875
29.24,1710985831187500
26.73,1710985831203125
23.41,1710985831218750
19.59,1710985831234375
15.6,1710985831250000
11.68,1710985831265625
7.86,1710985831281250
4.04,1710985831296875
0.0,1710985831312500
-4.44,1710985831328125
-9.42,1710985831343750
-14.94,1710985831359375
-20.84,1710985831375000
-26.87,1710985831390625
-32.77,1710985831406250
-38.3,1710985831421875
-43.35,1710985831437500
-47.93,1710985831453125
-52.25,1710985831468750
-56.63,1710985831484375
-61.52,1710985831500000
-67.31,1710985831515625
-74.26,1710985831531250
-82.07,1710985831546875
-89.87,1710985831562500
-96.15,1710985831578125
-99.16,1710985831593750
-97.41,1710985831609375
-90.21,1710985831625000
-77.96,1710985831640625
-61.98,1710985831656250
-44.0,1710985831671875
-25.76,1710985831687500
-8.5,1710985831703125
6.98,1710985831718750
20.25,1710985831734375
31.02,1710985831750000
39.15,1710985831765625
44.64,1710985831781250
47.74,1710985831796875
48.89,1710985831812500
48.61,1710985831828125
47.41,1710985831843750
45.68,1710985831859375
43.72,1710985831875000
41.72,1710985831890625
39.83,1710985831906250
38.19,1710985831921875
36.86,1710985831937500
35.9,1710985831953125
35.32,1710985831968750
35.15,1710985831984375
35.35,1710985832000000
35.81,1710985832015625
36.3,1710985832031250
36.51,1710985832046875
36.11,1710985832062500
34.83,1710985832078125
32.53,1710985832093750
29.3,1710985832109375
25.37,1710985832125000
21.14,1710985832140625
16.99,1710985832156250
13.13,1710985832171875
9.59,1710985832187500
6.12,1710985832203125
2.37,1710985832218750
-2.05,1710985832234375
-7.27,1710985832250000
-13.22,1710985832265625
-19.58,1710985832281250
-25.95,1710985832296875
-31.99,1710985832312500
-37.52,1710985832328125
-42.55,1710985832343750
-47.29,1710985832359375
-51.99,1710985832375000
-57.03,1710985832390625
-62.82,1710985832406250
-69.66,1710985832421875
-77.6,1710985832437500
-86.04,1710985832453125
-93.71,1710985832468750
-98.78,1710985832484375
-99.38,1710985832500000
-94.24,1710985832515625
-83.21,1710985832531250
-67.37,1710985832546875
-48.67,1710985832562500
-29.25,1710985832578125
-10.87,1710985832593750
5.43,1710985832609375
19.29,1710985832625000
30.76,1710985832640625
39.96,1710985832656250
46.98,1710985832671875
51.82,1710985832687500
54.55,1710985832703125
55.35,1710985832718750
54.54,1710985832734375
52.56,1710985832750000
49.87,1710985832765625
47.01,1710985832781250
44.48,1710985832796875
42.74,1710985832812500
42.13,1710985832828125
42.76,1710985832843750
44.48,1710985832859375
46.89,1710985832875000
49.52,1710985832890625
51.91,1710985832906250
53.8,1710985832921875
55.08,1710985832937500
55.71,1710985832953125
55.65,1710985832968750
54.69,1710985832984375
52.58,1710985833000000
49.14,1710985833015625
44.45,1710985833031250
38.82,1710985833046875
32.85,1710985833062500
27.02,1710985833078125
21.58,1710985833093750
16.4,1710985833109375
11.07,1710985833125000
5.12,1710985833140625
-1.69,1710985833156250
-9.25,1710985833171875
-17.15,1710985833187500
-24.86,1710985833203125
-31.97,1710985833218750
-38.27,1710985833234375
-43.87,1710985833250000
-49.02,1710985833265625
-54.08,1710985833281250
-59.48,1710985833296875
-65.71,1710985833312500
-73.16,1710985833328125
-81.92,1710985833343750
-91.4,1710985833359375
-100.17,1710985833375000
-106.14,1710985833390625
-107.1,1710985833406250
-101.58,1710985833421875
-89.48,1710985833437500
-72.16,1710985833453125
-51.97,1710985833468750
-31.4,1710985833484375
-12.29,1710985833500000
4.47,1710985833515625
18.79,1710985833531250
30.82,1710985833546875
40.61,1710985833562500
47.97,1710985833578125
52.67,1710985833593750
54.73,1710985833609375
54.62,1710985833625000
53.06,1710985833640625
50.86,1710985833656250
48.55,1710985833671875
46.38,1710985833687500
44.4,1710985833703125
42.58,1710985833718750
41.01,1710985833734375
39.9,1710985833750000
39.5,1710985833765625
40.03,1710985833781250
41.57,1710985833796875
44.0,1710985833812500
46.91,1710985833828125
49.66,1710985833843750
51.55,1710985833859375
51.97,1710985833875000
50.66,1710985833890625
47.79,1710985833906250
43.85,1710985833921875
39.48,1710985833937500
35.15,1710985833953125
31.03,1710985833968750
27.0,1710985833984375
22.73,1710985834000000
17.88,1710985834015625
12.27,1710985834031250
5.92,1710985834046875
-0.94,1710985834062500
-7.99,1710985834078125
-14.87,1710985834093750
-21.42,1710985834109375
-27.61,1710985834125000
-33.69,1710985834140625
-39.98,1710985834156250
-47.0,1710985834171875
-55.19,1710985834187500
-64.75,1710985834203125
-75.36,1710985834218750
-85.97,1710985834234375
-94.79,1710985834250000
-99.67,1710985834265625
-98.74,1710985834281250
-91.18,1710985834296875
-77.49,1710985834312500
-59.35,1710985834328125
-39.04,1710985834343750
-18.66,1710985834359375
0.35,1710985834375000
17.24,1710985834390625
31.74,1710985834406250
43.65,1710985834421875
52.8,1710985834437500
59.02,1710985834453125
62.32,1710985834468750
62.95,1710985834484375
61.42,1710985834500000
58.38,1710985834515625
54.47,1710985834531250
50.4,1710985834546875
46.71,1710985834562500
43.82,1710985834578125
41.95,1710985834593750
41.09,1710985834609375
41.09,1710985834625000
41.81,1710985834640625
43.16,1710985834656250
45.08,1710985834671875
47.39,1710985834687500
49.67,1710985834703125
51.34,1710985834718750
51.75,1710985834734375
50.43,1710985834750000
47.32,1710985834765625
42.84,1710985834781250
37.62,1710985834796875
32.38,1710985834812500
27.45,1710985834828125
22.78,1710985834843750
17.85,1710985834859375
12.05,1710985834875000
4.97,1710985834890625
-3.35,1710985834906250
-12.39,1710985834921875
-21.26,1710985834937500
-29.14,1710985834953125
-35.51,1710985834968750
-40.4,1710985834984375
-44.38,1710985835000000
-48.38,1710985835015625
-53.44,1710985835031250
-60.41,1710985835046875
-69.59,1710985835062500
-80.46,1710985835078125
-91.57,1710985835093750
-100.7,1710985835109375
-105.35,1710985835125000
-103.57,1710985835140625
-94.55,1710985835156250
-78.96,1710985835171875
-58.77,1710985835187500
-36.56,1710985835203125
-14.74,1710985835218750
4.97,1710985835234375
21.76,1710985835250000
35.58,1710985835265625
46.73,1710985835281250
55.59,1710985835296875
62.37,1710985835312500
67.06,1710985835328125
69.63,1710985835343750
70.07,1710985835359375
68.62,1710985835375000
65.74,1710985835390625
62.12,1710985835406250
58.41,1710985835421875
55.11,1710985835437500
52.47,1710985835453125
50.54,1710985835468750
49.28,1710985835484375
48.75,1710985835500000
48.98,1710985835515625
49.93,1710985835531250
51.34,1710985835546875
52.7,1710985835562500
53.37,1710985835578125
52.75,1710985835593750
50.46,1710985835609375
46.47,1710985835625000
41.14,1710985835640625
35.1,1710985835656250
29.11,1710985835671875
23.84,1710985835687500
19.58,1710985835703125
16.12,1710985835718750
12.84,1710985835734375
8.92,1710985835750000
3.77,1710985835765625
-2.71,1710985835781250
-10.03,1710985835796875
-17.35,1710985835812500
-23.87,1710985835828125
-29.16,1710985835843750
-33.37,1710985835859375
-37.09,1710985835875000
-41.19,1710985835890625
-46.53,1710985835906250
-53.75,1710985835921875
-62.95,1710985835937500
-73.53,1710985835953125
-84.04,1710985835968750
-92.39,1710985835984375
-96.29,1710985836000000
-93.97,1710985836015625
-84.77,1710985836031250
-69.41,1710985836046875
-49.8,1710985836062500
-28.4,1710985836078125
-7.41,1710985836093750
11.63,1710985836109375
28.02,1710985836125000
41.68,1710985836140625
52.79,1710985836156250
61.52,1710985836171875
68.03,1710985836187500
72.46,1710985836203125
75.05,1710985836218750
76.12,1710985836234375
76.11,1710985836250000
75.48,1710985836265625
74.71,1710985836281250
74.23,1710985836296875
74.42,1710985836312500
75.56,1710985836328125
77.74,1710985836343750
80.87,1710985836359375
84.63,1710985836375000
88.58,1710985836390625
92.28,1710985836406250
95.29,1710985836421875
97.32,1710985836437500
98.26,1710985836453125
98.17,1710985836468750
97.25,1710985836484375
95.75,1710985836500000
93.71,1710985836515625
90.93,1710985836531250
86.86,1710985836546875
80.87,1710985836562500
72.41,1710985836578125
61.28,1710985836593750
47.74,1710985836609375
32.39,1710985836625000
16.01,1710985836640625
-0.7,1710985836656250
-17.16,1710985836671875
-32.98,1710985836687500
-47.76,1710985836703125
-61.11,1710985836718750
-72.68,1710985836734375
-82.28,1710985836750000
-90.05,1710985836765625
-96.49,1710985836781250
-102.35,1710985836796875
-108.56,1710985836812500
-115.86,1710985836828125
-124.73,1710985836843750
-135.01,1710985836859375
-145.79,1710985836875000
-155.39,1710985836890625
-161.69,1710985836906250
-162.61,1710985836921875
-156.92,1710985836937500
-144.52,1710985836953125
-126.62,1710985836968750
-105.25,1710985836984375
-82.62,1710985837000000
-60.6,1710985837015625
-40.38,1710985837031250
-22.65,1710985837046875
-7.77,1710985837062500
4.12,1710985837078125
13.03,1710985837093750
19.25,1710985837109375
23.35,1710985837125000
26.07,1710985837140625
28.05,1710985837156250
29.7,1710985837171875
31.16,1710985837187500
32.48,1710985837203125
33.74,1710985837218750
35.19,1710985837234375
37.13,1710985837250000
39.73,1710985837265625
42.94,1710985837281250
46.43,1710985837296875
49.76,1710985837312500
52.62,1710985837328125
54.82,1710985837343750
56.36,1710985837359375
57.15,1710985837375000
57.05,1710985837390625
55.73,1710985837406250
52.97,1710985837421875
48.82,1710985837437500
43.58,1710985837453125
37.75,1710985837468750
31.72,1710985837484375
25.65,1710985837500000
19.41,1710985837515625
12.83,1710985837531250
5.92,1710985837546875
-1.11,1710985837562500
-7.89,1710985837578125
-14.12,1710985837593750
-19.74,1710985837609375
-24.98,1710985837625000
-30.16,1710985837640625
-35.55,1710985837656250
-41.32,1710985837671875
-47.47,1710985837687500
-53.99,1710985837703125
-61.01,1710985837718750
-68.75,1710985837734375
-77.35,1710985837750000
-86.53,1710985837765625
-95.28,1710985837781250
-101.89,1710985837796875
-104.32,1710985837812500
-100.92,1710985837828125
-91.11,1710985837843750
-75.72,1710985837859375
-56.74,1710985837875000
-36.61,1710985837890625
-17.44,1710985837906250
-0.48,1710985837921875
13.88,1710985837937500
25.78,1710985837953125
35.49,1710985837968750
43.14,1710985837984375
48.78,1710985838000000
52.39,1710985838015625
54.01,1710985838031250
53.65,1710985838046875
51.3,1710985838062500
47.02,1710985838078125
41.08,1710985838093750
34.21,1710985838109375
27.56,1710985838125000
22.4,1710985838140625
19.73,1710985838156250
19.77,1710985838171875
21.66,1710985838187500
23.64,1710985838203125
23.59,1710985838218750
19.72,1710985838234375
11.22,1710985838250000
-1.46,1710985838265625
-16.86,1710985838281250
-33.1,1710985838296875
-48.66,1710985838312500
-62.77,1710985838328125
-75.6,1710985838343750
-87.79,1710985838359375
-100.01,1710985838375000
-112.44,1710985838390625
-124.73,1710985838406250
-136.0,1710985838421875
-145.14,1710985838437500
-151.02,1710985838453125
-152.67,1710985838468750
-149.36,1710985838484375
-140.74,1710985838500000
-127.03,1710985838515625
-108.96,1710985838531250
-87.8,1710985838546875
-65.11,1710985838562500
-42.43,1710985838578125
-21.05,1710985838593750
-1.88,1710985838609375
14.6,1710985838625000
28.22,1710985838640625
39.31,1710985838656250
48.68,1710985838671875
57.64,1710985838687500
67.83,1710985838703125
80.48,1710985838718750
95.92,1710985838734375
113.26,1710985838750000
130.64,1710985838765625
146.1,1710985838781250
158.34,1710985838796875
167.25,1710985838812500
173.79,1710985838828125
179.22,1710985838843750
184.32,1710985838859375
189.03,1710985838875000
192.45,1710985838890625
193.42,1710985838906250
191.04,1710985838921875
185.03,1710985838937500
175.66,1710985838953125
163.58,1710985838968750
149.64,1710985838984375
134.68,1710985839000000
119.73,1710985839015625
105.87,1710985839031250
94.24,1710985839046875
85.73,1710985839062500
80.71,1710985839078125
78.86,1710985839093750
79.22,1710985839109375
80.48,1710985839125000
81.41,1710985839140625
81.1,1710985839156250
79.05,1710985839171875
75.06,1710985839187500
69.06,1710985839203125
60.96,1710985839218750
50.7,1710985839234375
38.28,1710985839250000
23.78,1710985839265625
7.25,1710985839281250
-11.35,1710985839296875
-32.17,1710985839312500
-55.32,1710985839328125
-80.69,1710985839343750
-107.86,1710985839359375
-135.99,1710985839375000
-164.04,1710985839390625
-190.78,1710985839406250
-215.0,1710985839421875
-235.59,1710985839437500
-251.68,1710985839453125
-262.8,1710985839468750
-268.91,1710985839484375
-270.59,1710985839500000
-268.83,1710985839515625
-264.84,1710985839531250
-259.77,1710985839546875
-254.32,1710985839562500
-248.44,1710985839578125
-241.17,1710985839593750
-230.85,1710985839609375
-215.66,1710985839625000
-194.24,1710985839640625
-166.43,1710985839656250
-133.42,1710985839671875
-97.45,1710985839687500
-61.05,1710985839703125
-26.29,1710985839718750
5.65,1710985839734375
34.36,1710985839750000
59.88,1710985839765625
82.15,1710985839781250
100.84,1710985839796875
115.46,1710985839812500
125.57,1710985839828125
130.98,1710985839843750
131.75,1710985839859375
128.21,1710985839875000
120.81,1710985839890625
110.2,1710985839906250
97.16,1710985839921875
82.6,1710985839937500
67.42,1710985839953125
52.32,1710985839968750
37.86,1710985839984375
24.43,1710985840000000
12.41,1710985840015625
2.1,1710985840031250
-6.27,1710985840046875
-12.75,1710985840062500
-17.59,1710985840078125
-21.21,1710985840093750
-23.84,1710985840109375
-25.45,1710985840125000
-25.69,1710985840140625
-24.02,1710985840156250
-20.16,1710985840171875
-14.17,1710985840187500
-6.56,1710985840203125
1.88,1710985840218750
10.28,1710985840234375
17.91,1710985840250000
24.23,1710985840265625
28.93,1710985840281250
31.97,1710985840296875
33.5,1710985840312500
33.95,1710985840328125
33.9,1710985840343750
33.89,1710985840359375
34.28,1710985840375000
35.08,1710985840390625
35.9,1710985840406250
36.03,1710985840421875
34.61,1710985840437500
31.0,1710985840453125
24.91,1710985840468750
16.69,1710985840484375
7.35,1710985840500000
-1.54,1710985840515625
-8.13,1710985840531250
-10.83,1710985840546875
-8.66,1710985840562500
-1.64,1710985840578125
9.19,1710985840593750
22.13,1710985840609375
35.28,1710985840625000
47.08,1710985840640625
56.57,1710985840656250
63.37,1710985840671875
67.45,1710985840687500
68.88,1710985840703125
67.6,1710985840718750
63.46,1710985840734375
56.34,1710985840750000
46.33,1710985840765625
33.79,1710985840781250
19.46,1710985840796875
4.29,1710985840812500
-10.62,1710985840828125
-24.26,1710985840843750
-35.9,1710985840859375
-45.07,1710985840875000
-51.68,1710985840890625
-55.83,1710985840906250
-57.76,1710985840921875
-57.78,1710985840937500
-56.23,1710985840953125
-53.51,1710985840968750
-50.02,1710985840984375
-46.08,1710985841000000
-41.83,1710985841015625
-37.23,1710985841031250
-32.13,1710985841046875
-26.42,1710985841062500
-20.21,1710985841078125
-13.82,1710985841093750
-7.73,1710985841109375
-2.43,1710985841125000
1.78,1710985841140625
4.78,1710985841156250
6.68,1710985841171875
7.69,1710985841187500
8.01,1710985841203125
7.8,1710985841218750
7.21,1710985841234375
6.32,1710985841250000
5.29,1710985841265625
4.23,1710985841281250
3.31,1710985841296875
2.57,1710985841312500
1.93,1710985841328125
1.09,1710985841343750
-0.42,1710985841359375
-3.19,1710985841375000
-7.74,1710985841390625
-14.12,1710985841406250
-21.72,1710985841421875
-29.09,1710985841437500
-34.23,1710985841453125
-35.18,1710985841468750
-30.66,1710985841484375
-20.66,1710985841500000
-6.41,1710985841515625
9.98,1710985841531250
26.33,1710985841546875
40.93,1710985841562500
52.95,1710985841578125
62.18,1710985841593750
68.8,1710985841609375
73.02,1710985841625000
74.99,1710985841640625
74.87,1710985841656250
72.98,1710985841671875
69.82,1710985841687500
65.95,1710985841703125
61.84,1710985841718750
57.73,1710985841734375
53.67,1710985841750000
49.6,1710985841765625
45.46,1710985841781250
41.21,1710985841796875
36.77,1710985841812500
32.06,1710985841828125
26.98,1710985841843750
21.42,1710985841859375
15.35,1710985841875000
8.77,1710985841890625
1.67,1710985841906250
-5.97,1710985841921875
-14.17,1710985841937500
-22.82,1710985841953125
-31.6,1710985841968750
-40.07,1710985841984375
-47.74,1710985842000000
-54.22,1710985842015625
-59.3,1710985842031250
-62.87,1710985842046875
-64.82,1710985842062500
-65.03,1710985842078125
-63.49,1710985842093750
-60.39,1710985842109375
-56.28,1710985842125000
-51.94,1710985842140625
-48.21,1710985842156250
-45.67,1710985842171875
-44.59,1710985842187500
-44.81,1710985842203125
-46.0,1710985842218750
-47.76,1710985842234375
-49.81,1710985842250000
-52.04,1710985842265625
-54.51,1710985842281250
-57.37,1710985842296875
-60.7,1710985842312500
-64.29,1710985842328125
-67.4,1710985842343750
-68.84,1710985842359375
-67.21,1710985842375000
-61.34,1710985842390625
-50.83,1710985842406250
-36.19,1710985842421875
-18.7,1710985842437500
0.04,1710985842453125
18.57,1710985842468750
35.89,1710985842484375
51.51,1710985842500000
65.23,1710985842515625
76.87,1710985842531250
86.13,1710985842546875
92.66,1710985842562500
96.22,1710985842578125
96.88,1710985842593750
95.1,1710985842609375
91.67,1710985842625000
87.47,1710985842640625
83.3,1710985842656250
79.71,1710985842671875
76.95,1710985842687500
75.07,1710985842703125
74.05,1710985842718750
73.96,1710985842734375
74.94,1710985842750000
77.05,1710985842765625
80.2,1710985842781250
83.95,1710985842796875
87.59,1710985842812500
90.32,1710985842828125
91.39,1710985842843750
90.36,1710985842859375
87.13,1710985842875000
81.97,1710985842890625
75.35,1710985842906250
67.76,1710985842921875
59.52,1710985842937500
50.71,1710985842953125
41.09,1710985842968750
30.25,1710985842984375
17.82,1710985843000000
3.61,1710985843015625
-12.15,1710985843031250
-28.85,1710985843046875
-45.62,1710985843062500
-61.53,1710985843078125
-75.84,1710985843093750
-88.2,1710985843109375
-98.7,1710985843125000
-107.82,1710985843140625
-116.28,1710985843156250
-124.73,1710985843171875
