value,timestamp
-0.0,1712226160000000
-0.0,1712226160015625
-0.0,1712226160031250
-0.0,1712226160046875
-0.0,1712226160062500
-0.0,1712226160078125
-0.0,1712226160093750
-0.0,1712226160109375
-0.0,1712226160125000
-0.0,1712226160140625
0.0,1712226160156250
0.01,1712226160171875
0.01,1712226160187500
-0.0,1712226160203125
-0.03,1712226160218750
-0.05,1712226160234375
-0.05,1712226160250000
0.0,1712226160265625
0.13,1712226160281250
0.36,1712226160296875
0.66,1712226160312500
1.01,1712226160328125
1.37,1712226160343750
1.72,1712226160359375
2.06,1712226160375000
2.4,1712226160390625
2.79,1712226160406250
3.24,1712226160421875
3.8,1712226160437500
4.42,1712226160453125
5.06,1712226160468750
5.66,1712226160484375
6.2,1712226160500000
6.68,1712226160515625
7.15,1712226160531250
7.68,1712226160546875
8.31,1712226160562500
9.14,1712226160578125
10.09,1712226160593750
11.04,1712226160609375
11.88,1712226160625000
12.56,1712226160640625
13.14,1712226160656250
13.76,1712226160671875
14.65,1712226160687500
15.96,1712226160703125
17.91,1712226160718750
20.32,1712226160734375
22.9,1712226160750000
25.38,1712226160765625
27.58,1712226160781250
29.57,1712226160796875
31.68,1712226160812500
34.32,1712226160828125
37.81,1712226160843750
42.54,1712226160859375
48.15,1712226160875000
54.1,1712226160890625
59.83,1712226160906250
64.97,1712226160921875
69.58,1712226160937500
74.14,1712226160953125
79.34,1712226160968750
85.71,1712226160984375
93.76,1712226161000000
103.0,1712226161015625
112.62,1712226161031250
121.73,1712226161046875
129.77,1712226161062500
136.75,1712226161078125
143.3,1712226161093750
150.75,1712226161109375
157.77,1712226161125000
166.64,1712226161140625
177.95,1712226161156250
191.79,1712226161171875
206.97,1712226161187500
220.57,1712226161203125
228.25,1712226161218750
225.36,1712226161234375
208.53,1712226161250000
176.87,1712226161265625
132.76,1712226161281250
80.05,1712226161296875
23.07,1712226161312500
-34.94,1712226161328125
-92.44,1712226161343750
-149.16,1712226161359375
-205.23,1712226161375000
-260.37,1712226161390625
-313.74,1712226161406250
-363.87,1712226161421875
-409.83,1712226161437500
-450.91,1712226161453125
-486.5,1712226161468750
-515.74,1712226161484375
-537.23,1712226161500000
-549.22,1712226161515625
-549.96,1712226161531250
-538.37,1712226161546875
-514.21,1712226161562500
-478.67,1712226161578125
-433.88,1712226161593750
-382.45,1712226161609375
-327.02,1712226161625000
-269.84,1712226161640625
-212.63,1712226161656250
-156.66,1712226161671875
-102.95,1712226161687500
-52.37,1712226161703125
-5.9,1712226161718750
35.58,1712226161734375
71.43,1712226161750000
101.35,1712226161765625
125.5,1712226161781250
144.38,1712226161796875
158.69,1712226161812500
169.15,1712226161828125
176.37,1712226161843750
180.75,1712226161859375
182.57,1712226161875000
182.07,1712226161890625
179.51,1712226161906250
175.23,1712226161921875
169.65,1712226161937500
163.18,1712226161953125
156.15,1712226161968750
148.81,1712226161984375
141.3,1712226162000000
133.69,1712226162015625
126.02,1712226162031250
118.33,1712226162046875
110.69,1712226162062500
103.16,1712226162078125
95.8,1712226162093750
88.68,1712226162109375
81.83,1712226162125000
75.25,1712226162140625
68.95,1712226162156250
62.95,1712226162171875
57.25,1712226162187500
51.86,1712226162203125
46.78,1712226162218750
42.03,1712226162234375
37.59,1712226162250000
33.45,1712226162265625
29.61,1712226162281250
26.07,1712226162296875
22.81,1712226162312500
19.82,1712226162328125
17.11,1712226162343750
14.67,1712226162359375
12.48,1712226162375000
10.54,1712226162390625
8.83,1712226162406250
7.35,1712226162421875
6.07,1712226162437500
4.99,1712226162453125
4.07,1712226162468750
3.31,1712226162484375
2.68,1712226162500000
2.17,1712226162515625
1.76,1712226162531250
1.44,1712226162546875
1.19,1712226162562500
1.01,1712226162578125
0.87,1712226162593750
0.78,1712226162609375
0.72,1712226162625000
0.68,1712226162640625
0.67,1712226162656250
0.68,1712226162671875
0.7,1712226162687500
0.73,1712226162703125
0.77,1712226162718750
0.82,1712226162734375
0.87,1712226162750000
0.94,1712226162765625
1.01,1712226162781250
1.1,1712226162796875
1.19,1712226162812500
1.29,1712226162828125
1.41,1712226162843750
1.54,1712226162859375
1.69,1712226162875000
1.86,1712226162890625
2.04,1712226162906250
2.25,1712226162921875
2.48,1712226162937500
2.73,1712226162953125
3.01,1712226162968750
3.32,1712226162984375
3.65,1712226163000000
4.01,1712226163015625
4.4,1712226163031250
4.82,1712226163046875
5.27,1712226163062500
5.75,1712226163078125
6.27,1712226163093750
6.82,1712226163109375
7.41,1712226163125000
8.03,1712226163140625
8.7,1712226163156250
9.42,1712226163171875
10.18,1712226163187500
10.99,1712226163203125
11.86,1712226163218750
12.77,1712226163234375
13.73,1712226163250000
14.76,1712226163265625
15.85,1712226163281250
17.0,1712226163296875
18.22,1712226163312500
19.47,1712226163328125
20.74,1712226163343750
21.96,1712226163359375
23.06,1712226163375000
23.94,1712226163390625
24.49,1712226163406250
24.55,1712226163421875
24.04,1712226163437500
22.83,1712226163453125
20.87,1712226163468750
18.16,1712226163484375
14.71,1712226163500000
10.58,1712226163515625
5.92,1712226163531250
0.9,1712226163546875
-4.27,1712226163562500
-9.4,1712226163578125
-14.28,1712226163593750
-18.73,1712226163609375
-22.65,1712226163625000
-25.97,1712226163640625
-28.67,1712226163656250
-30.78,1712226163671875
-32.37,1712226163687500
-33.55,1712226163703125
-34.39,1712226163718750
-34.97,1712226163734375
-35.37,1712226163750000
-35.66,1712226163765625
-35.91,1712226163781250
-36.17,1712226163796875
-36.5,1712226163812500
-36.92,1712226163828125
-37.52,1712226163843750
-38.25,1712226163859375
-39.07,1712226163875000
-39.92,1712226163890625
-40.75,1712226163906250
-41.46,1712226163921875
-41.91,1712226163937500
-41.92,1712226163953125
-41.28,1712226163968750
-39.87,1712226163984375
-37.39,1712226164000000
-33.64,1712226164015625
-28.51,1712226164031250
-21.97,1712226164046875
-14.14,1712226164062500
-5.23,1712226164078125
4.44,1712226164093750
15.07,1712226164109375
25.69,1712226164125000
35.73,1712226164140625
44.79,1712226164156250
52.6,1712226164171875
59.04,1712226164187500
64.06,1712226164203125
67.67,1712226164218750
69.91,1712226164234375
70.88,1712226164250000
70.57,1712226164265625
69.17,1712226164281250
66.84,1712226164296875
63.71,1712226164312500
59.92,1712226164328125
55.63,1712226164343750
50.97,1712226164359375
46.06,1712226164375000
41.03,1712226164390625
36.01,1712226164406250
31.24,1712226164421875
26.95,1712226164437500
23.31,1712226164453125
20.47,1712226164468750
18.54,1712226164484375
17.42,1712226164500000
17.01,1712226164515625
17.18,1712226164531250
17.77,1712226164546875
18.7,1712226164562500
19.88,1712226164578125
21.26,1712226164593750
22.86,1712226164609375
24.78,1712226164625000
26.81,1712226164640625
28.89,1712226164656250
30.98,1712226164671875
33.08,1712226164687500
35.23,1712226164703125
37.52,1712226164718750
40.14,1712226164734375
43.32,1712226164750000
47.38,1712226164765625
52.12,1712226164781250
57.41,1712226164796875
63.12,1712226164812500
69.12,1712226164828125
75.26,1712226164843750
81.44,1712226164859375
87.68,1712226164875000
94.09,1712226164890625
100.94,1712226164906250
107.75,1712226164921875
114.14,1712226164937500
119.67,1712226164953125
123.74,1712226164968750
125.68,1712226164984375
124.71,1712226165000000
119.9,1712226165015625
109.81,1712226165031250
97.55,1712226165046875
84.07,1712226165062500
69.86,1712226165078125
55.09,1712226165093750
39.65,1712226165109375
23.41,1712226165125000
6.31,1712226165140625
-11.36,1712226165156250
-29.01,1712226165171875
-45.68,1712226165187500
-61.12,1712226165203125
-75.1,1712226165218750
-87.75,1712226165234375
-99.71,1712226165250000
-112.11,1712226165265625
-126.24,1712226165281250
-143.17,1712226165296875
-163.12,1712226165312500
-185.08,1712226165328125
-207.53,1712226165343750
-228.29,1712226165359375
-245.44,1712226165375000
-258.23,1712226165390625
-267.23,1712226165406250
-274.06,1712226165421875
-280.68,1712226165437500
-288.49,1712226165453125
-297.9,1712226165468750
-308.5,1712226165484375
-318.97,1712226165500000
-327.42,1712226165515625
-331.91,1712226165531250
-331.0,1712226165546875
-324.21,1712226165562500
-312.32,1712226165578125
-297.1,1712226165593750
-280.62,1712226165609375
-264.38,1712226165625000
-248.22,1712226165640625
-230.38,1712226165656250
-208.17,1712226165671875
-179.25,1712226165687500
-142.74,1712226165703125
-99.5,1712226165718750
-51.76,1712226165734375
-2.16,1712226165750000
47.01,1712226165765625
94.31,1712226165781250
138.97,1712226165796875
180.74,1712226165812500
219.72,1712226165828125
256.23,1712226165843750
290.65,1712226165859375
323.14,1712226165875000
353.29,1712226165890625
379.9,1712226165906250
401.33,1712226165921875
415.8,1712226165937500
421.91,1712226165953125
418.87,1712226165968750
406.43,1712226165984375
384.85,1712226166000000
354.97,1712226166015625
318.38,1712226166031250
277.54,1712226166046875
235.67,1712226166062500
196.14,1712226166078125
161.78,1712226166093750
134.21,1712226166109375
113.67,1712226166125000
99.2,1712226166140625
89.18,1712226166156250
81.82,1712226166171875
75.49,1712226166187500
68.95,1712226166203125
61.41,1712226166218750
52.51,1712226166234375
42.2,1712226166250000
30.62,1712226166265625
17.92,1712226166281250
4.33,1712226166296875
-9.71,1712226166312500
-23.47,1712226166328125
-35.93,1712226166343750
-46.18,1712226166359375
-53.66,1712226166375000
-58.56,1712226166390625
-61.69,1712226166406250
-64.2,1712226166421875
-67.16,1712226166437500
-71.21,1712226166453125
-76.56,1712226166468750
-83.15,1712226166484375
-90.94,1712226166500000
-99.95,1712226166515625
-110.11,1712226166531250
-120.99,1712226166546875
-131.73,1712226166562500
-141.22,1712226166578125
-148.44,1712226166593750
-152.9,1712226166609375
-154.69,1712226166625000
-154.29,1712226166640625
-152.27,1712226166656250
-149.02,1712226166671875
-144.66,1712226166687500
-139.1,1712226166703125
-132.23,1712226166718750
-124.1,1712226166734375
-115.01,1712226166750000
-105.56,1712226166765625
-96.64,1712226166781250
-89.18,1712226166796875
-84.03,1712226166812500
-81.63,1712226166828125
-81.74,1712226166843750
-83.64,1712226166859375
-86.5,1712226166875000
-89.72,1712226166890625
-93.18,1712226166906250
-97.2,1712226166921875
-102.09,1712226166937500
-108.05,1712226166953125
-114.82,1712226166968750
-121.71,1712226166984375
-127.96,1712226167000000
-132.98,1712226167015625
-136.3,1712226167031250
-137.26,1712226167046875
-134.74,1712226167062500
-127.42,1712226167078125
-114.95,1712226167093750
-98.64,1712226167109375
-81.65,1712226167125000
-68.46,1712226167140625
-63.04,1712226167156250
-66.87,1712226167171875
-77.72,1712226167187500
-89.91,1712226167203125
-95.98,1712226167218750
-89.62,1712226167234375
-67.32,1712226167250000
-28.61,1712226167265625
24.17,1712226167281250
87.08,1712226167296875
155.48,1712226167312500
223.91,1712226167328125
285.65,1712226167343750
333.16,1712226167359375
359.08,1712226167375000
359.23,1712226167390625
335.34,1712226167406250
294.49,1712226167421875
246.46,1712226167437500
200.13,1712226167453125
159.62,1712226167468750
123.02,1712226167484375
88.67,1712226167500000
55.67,1712226167515625
25.25,1712226167531250
1.38,1712226167546875
-11.76,1712226167562500
-12.58,1712226167578125
-2.93,1712226167593750
12.25,1712226167609375
26.76,1712226167625000
35.75,1712226167640625
36.42,1712226167656250
25.94,1712226167671875
6.75,1712226167687500
-18.83,1712226167703125
-49.53,1712226167718750
-83.23,1712226167734375
-116.77,1712226167750000
-146.31,1712226167765625
-168.1,1712226167781250
-180.35,1712226167796875
-183.97,1712226167812500
-182.4,1712226167828125
-175.08,1712226167843750
-166.22,1712226167859375
-159.62,1712226167875000
-157.01,1712226167890625
-157.68,1712226167906250
-159.29,1712226167921875
-159.45,1712226167937500
-156.57,1712226167953125
-149.61,1712226167968750
-138.47,1712226167984375
-124.29,1712226168000000
-107.96,1712226168015625
-90.75,1712226168031250
-74.66,1712226168046875
-62.17,1712226168062500
-55.63,1712226168078125
-56.2,1712226168093750
-63.02,1712226168109375
-73.85,1712226168125000
-86.49,1712226168140625
-98.71,1712226168156250
-109.06,1712226168171875
-117.1,1712226168187500
-123.1,1712226168203125
-127.68,1712226168218750
-131.49,1712226168234375
-134.94,1712226168250000
-138.07,1712226168265625
-140.54,1712226168281250
-140.69,1712226168296875
-136.06,1712226168312500
-124.53,1712226168328125
-105.17,1712226168343750
-78.68,1712226168359375
-46.75,1712226168375000
-10.99,1712226168390625
27.54,1712226168406250
67.76,1712226168421875
107.85,1712226168437500
144.34,1712226168453125
172.46,1712226168468750
187.62,1712226168484375
187.16,1712226168500000
171.33,1712226168515625
143.0,1712226168531250
106.53,1712226168546875
66.79,1712226168562500
28.89,1712226168578125
-2.0,1712226168593750
-21.19,1712226168609375
-25.71,1712226168625000
-15.62,1712226168640625
5.49,1712226168656250
31.81,1712226168671875
57.55,1712226168687500
79.12,1712226168703125
96.0,1712226168718750
110.03,1712226168734375
123.7,1712226168750000
138.51,1712226168765625
154.29,1712226168781250
169.32,1712226168796875
181.07,1712226168812500
187.06,1712226168828125
185.7,1712226168843750
177.17,1712226168859375
163.88,1712226168875000
150.18,1712226168890625
141.24,1712226168906250
141.28,1712226168921875
151.79,1712226168937500
170.62,1712226168953125
192.39,1712226168968750
210.26,1712226168984375
218.25,1712226169000000
213.26,1712226169015625
195.91,1712226169031250
170.0,1712226169046875
141.09,1712226169062500
114.79,1712226169078125
95.41,1712226169093750
85.38,1712226169109375
85.22,1712226169125000
94.12,1712226169140625
110.39,1712226169156250
131.83,1712226169171875
155.95,1712226169187500
180.06,1712226169203125
201.51,1712226169218750
218.19,1712226169234375
229.18,1712226169250000
235.0,1712226169265625
237.52,1712226169281250
239.2,1712226169296875
242.2,1712226169312500
247.5,1712226169328125
254.65,1712226169343750
262.09,1712226169359375
267.96,1712226169375000
270.84,1712226169390625
270.05,1712226169406250
265.53,1712226169421875
257.77,1712226169437500
247.47,1712226169453125
235.47,1712226169468750
222.4,1712226169484375
208.15,1712226169500000
191.36,1712226169515625
169.37,1712226169531250
138.78,1712226169546875
96.73,1712226169562500
42.43,1712226169578125
-21.87,1712226169593750
-90.81,1712226169609375
-157.01,1712226169625000
-213.1,1712226169640625
-253.63,1712226169656250
-276.42,1712226169671875
-282.72,1712226169687500
-276.65,1712226169703125
-263.73,1712226169718750
-249.47,1712226169734375
-238.41,1712226169750000
-232.98,1712226169765625
-232.98,1712226169781250
-235.41,1712226169796875
-235.65,1712226169812500
-229.37,1712226169828125
-214.71,1712226169843750
-193.02,1712226169859375
-168.03,1712226169875000
-143.53,1712226169890625
-121.09,1712226169906250
-99.66,1712226169921875
-76.86,1712226169937500
-51.55,1712226169953125
-25.44,1712226169968750
-2.66,1712226169984375
12.52,1712226170000000
18.04,1712226170015625
15.26,1712226170031250
7.86,1712226170046875
-0.44,1712226170062500
-7.76,1712226170078125
-14.58,1712226170093750
-22.57,1712226170109375
-33.13,1712226170125000
-46.43,1712226170140625
-61.47,1712226170156250
-76.73,1712226170171875
-90.54,1712226170187500
-101.73,1712226170203125
-109.47,1712226170218750
-113.21,1712226170234375
-112.58,1712226170250000
-107.46,1712226170265625
-98.11,1712226170281250
-85.53,1712226170296875
-71.73,1712226170312500
-59.67,1712226170328125
-52.69,1712226170343750
-53.35,1712226170359375
-62.28,1712226170375000
-77.29,1712226170390625
-93.64,1712226170406250
-105.53,1712226170421875
-108.28,1712226170437500
-100.3,1712226170453125
-83.71,1712226170468750
-63.59,1712226170484375
-45.88,1712226170500000
-35.33,1712226170515625
-34.08,1712226170531250
-41.66,1712226170546875
-55.76,1712226170562500
-73.33,1712226170578125
-91.39,1712226170593750
-107.34,1712226170609375
-119.11,1712226170625000
-125.22,1712226170640625
-125.15,1712226170656250
-119.63,1712226170671875
-110.68,1712226170687500
-101.09,1712226170703125
-93.56,1712226170718750
-89.53,1712226170734375
-88.64,1712226170750000
-88.81,1712226170765625
-87.18,1712226170781250
-81.21,1712226170796875
-69.72,1712226170812500
-53.32,1712226170828125
-34.18,1712226170843750
-15.25,1712226170859375
0.54,1712226170875000
11.01,1712226170890625
15.05,1712226170906250
12.71,1712226170921875
5.06,1712226170937500
-6.24,1712226170953125
-19.38,1712226170968750
-32.75,1712226170984375
-45.13,1712226171000000
-55.67,1712226171015625
-63.66,1712226171031250
-68.14,1712226171046875
-67.88,1712226171062500
-61.45,1712226171078125
-48.08,1712226171093750
-28.27,1712226171109375
-4.15,1712226171125000
20.88,1712226171140625
43.14,1712226171156250
59.65,1712226171171875
68.9,1712226171187500
70.99,1712226171203125
67.47,1712226171218750
60.34,1712226171234375
51.49,1712226171250000
42.61,1712226171265625
35.49,1712226171281250
32.16,1712226171296875
34.8,1712226171312500
45.23,1712226171328125
64.21,1712226171343750
91.58,1712226171359375
124.91,1712226171375000
160.02,1712226171390625
192.12,1712226171406250
217.66,1712226171421875
235.57,1712226171437500
247.42,1712226171453125
256.71,1712226171468750
266.72,1712226171484375
280.11,1712226171500000
295.78,1712226171515625
309.23,1712226171531250
314.83,1712226171546875
309.04,1712226171562500
292.36,1712226171578125
268.82,1712226171593750
244.56,1712226171609375
224.59,1712226171625000
213.38,1712226171640625
210.97,1712226171656250
213.81,1712226171671875
217.11,1712226171687500
217.73,1712226171703125
215.53,1712226171718750
212.15,1712226171734375
210.11,1712226171750000
209.97,1712226171765625
212.72,1712226171781250
215.79,1712226171796875
214.32,1712226171812500
203.73,1712226171828125
183.06,1712226171843750
155.9,1712226171859375
127.94,1712226171875000
105.2,1712226171890625
69.75,1712226171906250
13.17,1712226171921875
-62.39,1712226171937500
-145.67,1712226171953125
-224.2,1712226171968750
-288.78,1712226171984375
-331.84,1712226172000000
-356.62,1712226172015625
-366.91,1712226172031250
-367.36,1712226172046875
-359.64,1712226172062500
-346.09,1712226172078125
-327.85,1712226172093750
-307.11,1712226172109375
-285.58,1712226172125000
-264.05,1712226172140625
-243.37,1712226172156250
-223.44,1712226172171875
-204.46,1712226172187500
-184.16,1712226172203125
-161.11,1712226172218750
-135.1,1712226172234375
-107.34,1712226172250000
-79.35,1712226172265625
-52.62,1712226172281250
-29.18,1712226172296875
-10.46,1712226172312500
2.18,1712226172328125
9.75,1712226172343750
13.95,1712226172359375
16.81,1712226172375000
19.91,1712226172390625
24.33,1712226172406250
30.23,1712226172421875
36.5,1712226172437500
41.79,1712226172453125
44.75,1712226172468750
45.49,1712226172484375
44.68,1712226172500000
42.97,1712226172515625
40.4,1712226172531250
36.48,1712226172546875
30.51,1712226172562500
21.95,1712226172578125
11.24,1712226172593750
-0.46,1712226172609375
-11.33,1712226172625000
-19.85,1712226172640625
-25.46,1712226172656250
-28.78,1712226172671875
-31.04,1712226172687500
-33.48,1712226172703125
-36.83,1712226172718750
-40.88,1712226172734375
-44.75,1712226172750000
-47.23,1712226172765625
-47.2,1712226172781250
-43.97,1712226172796875
-37.39,1712226172812500
-27.9,1712226172828125
-16.32,1712226172843750
-3.78,1712226172859375
8.51,1712226172875000
19.46,1712226172890625
28.24,1712226172906250
34.34,1712226172921875
37.62,1712226172937500
38.2,1712226172953125
36.45,1712226172968750
32.95,1712226172984375
28.34,1712226173000000
23.35,1712226173015625
18.64,1712226173031250
14.69,1712226173046875
11.83,1712226173062500
10.09,1712226173078125
9.36,1712226173093750
9.37,1712226173109375
9.78,1712226173125000
10.25,1712226173140625
10.43,1712226173156250
9.92,1712226173171875
8.3,1712226173187500
5.16,1712226173203125
0.18,1712226173218750
-6.72,1712226173234375
-15.31,1712226173250000
-25.11,1712226173265625
-35.42,1712226173281250
-45.55,1712226173296875
-54.92,1712226173312500
-63.12,1712226173328125
-69.86,1712226173343750
-74.95,1712226173359375
-78.23,1712226173375000
-79.7,1712226173390625
-79.59,1712226173406250
-78.36,1712226173421875
-76.59,1712226173437500
-74.78,1712226173453125
-73.08,1712226173468750
-71.25,1712226173484375
-68.77,1712226173500000
-65.09,1712226173515625
-59.93,1712226173531250
-53.35,1712226173546875
-45.72,1712226173562500
-37.55,1712226173578125
-29.19,1712226173593750
-20.83,1712226173609375
-12.52,1712226173625000
-4.28,1712226173640625
3.72,1712226173656250
11.16,1712226173671875
17.69,1712226173687500
23.01,1712226173703125
27.02,1712226173718750
29.8,1712226173734375
31.55,1712226173750000
32.53,1712226173765625
33.05,1712226173781250
33.33,1712226173796875
33.53,1712226173812500
33.69,1712226173828125
33.68,1712226173843750
33.32,1712226173859375
32.44,1712226173875000
30.95,1712226173890625
28.97,1712226173906250
26.74,1712226173921875
24.57,1712226173937500
22.68,1712226173953125
21.14,1712226173968750
19.88,1712226173984375
18.75,1712226174000000
17.58,1712226174015625
16.22,1712226174031250
14.53,1712226174046875
12.4,1712226174062500
9.75,1712226174078125
6.56,1712226174093750
2.84,1712226174109375
-1.39,1712226174125000
-6.15,1712226174140625
-11.62,1712226174156250
-17.99,1712226174171875
-25.37,1712226174187500
-33.53,1712226174203125
-41.75,1712226174218750
-48.91,1712226174234375
-53.76,1712226174250000
-55.4,1712226174265625
-53.55,1712226174281250
-48.65,1712226174296875
-41.57,1712226174312500
-33.3,1712226174328125
-24.6,1712226174343750
-15.92,1712226174359375
-7.48,1712226174375000
0.51,1712226174390625
7.77,1712226174406250
13.97,1712226174421875
18.9,1712226174437500
22.56,1712226174453125
25.16,1712226174468750
26.97,1712226174484375
28.17,1712226174500000
28.71,1712226174515625
28.43,1712226174531250
27.17,1712226174546875
25.07,1712226174562500
22.48,1712226174578125
19.99,1712226174593750
18.12,1712226174609375
17.11,1712226174625000
16.84,1712226174640625
16.93,1712226174656250
16.92,1712226174671875
16.52,1712226174687500
15.7,1712226174703125
14.57,1712226174718750
13.31,1712226174734375
12.01,1712226174750000
10.71,1712226174765625
9.39,1712226174781250
8.12,1712226174796875
6.99,1712226174812500
6.04,1712226174828125
5.22,1712226174843750
4.3,1712226174859375
3.02,1712226174875000
1.17,1712226174890625
-1.23,1712226174906250
-3.97,1712226174921875
-6.73,1712226174937500
-9.23,1712226174953125
-11.43,1712226174968750
-13.44,1712226174984375
-15.54,1712226175000000
-18.02,1712226175015625
-21.05,1712226175031250
-24.68,1712226175046875
-28.75,1712226175062500
-32.94,1712226175078125
-36.78,1712226175093750
-39.73,1712226175109375
-41.31,1712226175125000
-41.2,1712226175140625
-39.31,1712226175156250
-35.91,1712226175171875
-31.51,1712226175187500
-26.71,1712226175203125
-22.04,1712226175218750
-17.79,1712226175234375
-14.01,1712226175250000
-10.53,1712226175265625
-7.15,1712226175281250
-3.76,1712226175296875
-0.42,1712226175312500
2.69,1712226175328125
5.4,1712226175343750
7.58,1712226175359375
9.26,1712226175375000
10.52,1712226175390625
11.5,1712226175406250
12.3,1712226175421875
13.0,1712226175437500
13.64,1712226175453125
14.3,1712226175468750
15.0,1712226175484375
15.74,1712226175500000
16.46,1712226175515625
17.07,1712226175531250
17.52,1712226175546875
17.82,1712226175562500
18.02,1712226175578125
18.19,1712226175593750
18.33,1712226175609375
18.41,1712226175625000
18.4,1712226175640625
18.35,1712226175656250
18.32,1712226175671875
18.39,1712226175687500
18.55,1712226175703125
18.68,1712226175718750
18.65,1712226175734375
18.37,1712226175750000
17.9,1712226175765625
17.45,1712226175781250
17.26,1712226175796875
17.52,1712226175812500
18.29,1712226175828125
19.44,1712226175843750
20.75,1712226175859375
21.97,1712226175875000
22.88,1712226175890625
23.41,1712226175906250
23.61,1712226175921875
23.61,1712226175937500
23.54,1712226175953125
23.44,1712226175968750
23.27,1712226175984375
22.89,1712226176000000
22.21,1712226176015625
21.27,1712226176031250
20.36,1712226176046875
19.9,1712226176062500
20.4,1712226176078125
22.21,1712226176093750
25.48,1712226176109375
30.07,1712226176125000
35.67,1712226176140625
41.86,1712226176156250
48.22,1712226176171875
54.37,1712226176187500
59.93,1712226176203125
64.54,1712226176218750
67.91,1712226176234375
69.88,1712226176250000
70.5,1712226176265625
70.05,1712226176281250
69.01,1712226176296875
68.01,1712226176312500
67.64,1712226176328125
68.43,1712226176343750
70.59,1712226176359375
73.9,1712226176375000
77.57,1712226176390625
80.31,1712226176406250
80.61,1712226176421875
77.17,1712226176437500
69.3,1712226176453125
57.16,1712226176468750
41.63,1712226176484375
24.02,1712226176500000
5.68,1712226176515625
-12.34,1712226176531250
-29.39,1712226176546875
-45.08,1712226176562500
-59.13,1712226176578125
-71.26,1712226176593750
-81.25,1712226176609375
-88.96,1712226176625000
-94.45,1712226176640625
-97.95,1712226176656250
-99.78,1712226176671875
-100.35,1712226176687500
-99.98,1712226176703125
-98.88,1712226176718750
-97.16,1712226176734375
-94.96,1712226176750000
-92.46,1712226176765625
-89.89,1712226176781250
-87.53,1712226176796875
-85.66,1712226176812500
-84.68,1712226176828125
-84.77,1712226176843750
-85.8,1712226176859375
-87.42,1712226176875000
-89.32,1712226176890625
-91.39,1712226176906250
-93.65,1712226176921875
-96.28,1712226176937500
-99.5,1712226176953125
-103.67,1712226176968750
-108.6,1712226176984375
-113.48,1712226177000000
-117.17,1712226177015625
-118.97,1712226177031250
-118.91,1712226177046875
-117.5,1712226177062500
-115.5,1712226177078125
-113.55,1712226177093750
-112.4,1712226177109375
-112.02,1712226177125000
-111.53,1712226177140625
-109.81,1712226177156250
-106.44,1712226177171875
-101.7,1712226177187500
-95.99,1712226177203125
-89.37,1712226177218750
-81.25,1712226177234375
-71.26,1712226177250000
-58.43,1712226177265625
-41.48,1712226177281250
-19.55,1712226177296875
6.67,1712226177312500
35.52,1712226177328125
65.46,1712226177343750
95.56,1712226177359375
129.09,1712226177375000
164.98,1712226177390625
198.81,1712226177406250
225.28,1712226177421875
242.39,1712226177437500
251.5,1712226177453125
254.39,1712226177468750
252.83,1712226177484375
246.96,1712226177500000
237.06,1712226177515625
222.26,1712226177531250
202.03,1712226177546875
176.78,1712226177562500
148.07,1712226177578125
116.74,1712226177593750
83.98,1712226177609375
51.73,1712226177625000
21.8,1712226177640625
-5.01,1712226177656250
-30.1,1712226177671875
-55.32,1712226177687500
-81.56,1712226177703125
-108.07,1712226177718750
-134.79,1712226177734375
-160.96,1712226177750000
-184.79,1712226177765625
-204.17,1712226177781250
-217.57,1712226177796875
-224.97,1712226177812500
-226.77,1712226177828125
-223.01,1712226177843750
-202.81,1712226177859375
-161.68,1712226177875000
-103.56,1712226177890625
-38.94,1712226177906250
21.31,1712226177921875
70.67,1712226177937500
106.86,1712226177953125
130.02,1712226177968750
141.18,1712226177984375
141.51,1712226178000000
131.36,1712226178015625
112.11,1712226178031250
88.45,1712226178046875
68.21,1712226178062500
59.66,1712226178078125
68.25,1712226178093750
94.64,1712226178109375
134.76,1712226178125000
181.5,1712226178140625
226.08,1712226178156250
260.15,1712226178171875
278.12,1712226178187500
278.45,1712226178203125
262.76,1712226178218750
234.43,1712226178234375
197.6,1712226178250000
156.69,1712226178265625
115.86,1712226178281250
77.53,1712226178296875
42.67,1712226178312500
11.45,1712226178328125
-16.41,1712226178343750
-41.34,1712226178359375
-63.63,1712226178375000
-83.16,1712226178390625
-99.51,1712226178406250
-112.34,1712226178421875
-122.12,1712226178437500
-129.81,1712226178453125
-136.07,1712226178468750
-141.01,1712226178484375
-144.46,1712226178500000
-146.34,1712226178515625
-147.09,1712226178531250
-147.36,1712226178546875
-147.67,1712226178562500
-148.42,1712226178578125
-149.52,1712226178593750
-150.29,1712226178609375
-149.66,1712226178625000
-146.58,1712226178640625
-140.17,1712226178656250
-130.46,1712226178671875
-117.43,1712226178687500
-101.12,1712226178703125
-81.8,1712226178718750
-60.45,1712226178734375
-38.75,1712226178750000
-18.47,1712226178765625
-0.8,1712226178781250
14.26,1712226178796875
26.72,1712226178812500
37.38,1712226178828125
47.11,1712226178843750
56.06,1712226178859375
63.19,1712226178875000
66.79,1712226178890625
65.77,1712226178906250
60.46,1712226178921875
52.56,1712226178937500
42.73,1712226178953125
31.72,1712226178968750
20.23,1712226178984375
8.56,1712226179000000
-3.77,1712226179015625
-17.65,1712226179031250
-33.54,1712226179046875
-51.33,1712226179062500
-70.27,1712226179078125
-91.53,1712226179093750
-115.25,1712226179109375
-139.81,1712226179125000
-162.1,1712226179140625
-179.33,1712226179156250
-190.07,1712226179171875
-194.66,1712226179187500
-195.32,1712226179203125
-182.6,1712226179218750
-155.57,1712226179234375
-121.14,1712226179250000
-89.35,1712226179265625
-65.5,1712226179281250
-48.64,1712226179296875
-34.81,1712226179312500
-20.92,1712226179328125
-6.75,1712226179343750
5.88,1712226179359375
12.66,1712226179375000
11.61,1712226179390625
3.19,1712226179406250
-7.46,1712226179421875
-15.77,1712226179437500
-19.38,1712226179453125
-18.15,1712226179468750
-13.37,1712226179484375
-6.12,1712226179500000
1.38,1712226179515625
8.39,1712226179531250
15.8,1712226179546875
25.42,1712226179562500
38.1,1712226179578125
52.14,1712226179593750
64.71,1712226179609375
73.01,1712226179625000
76.15,1712226179640625
73.23,1712226179656250
64.7,1712226179671875
52.51,1712226179687500
40.07,1712226179703125
31.23,1712226179718750
29.85,1712226179734375
39.03,1712226179750000
60.38,1712226179765625
94.86,1712226179781250
139.97,1712226179796875
191.09,1712226179812500
242.78,1712226179828125
290.39,1712226179843750
330.35,1712226179859375
360.6,1712226179875000
380.0,1712226179890625
388.39,1712226179906250
388.35,1712226179921875
381.72,1712226179937500
369.65,1712226179953125
352.46,1712226179968750
330.04,1712226179984375
302.15,1712226180000000
268.86,1712226180015625
230.18,1712226180031250
176.89,1712226180046875
109.23,1712226180062500
34.41,1712226180078125
-37.09,1712226180093750
-97.56,1712226180109375
-144.38,1712226180125000
-180.87,1712226180140625
-209.41,1712226180156250
-232.05,1712226180171875
-251.46,1712226180187500
-265.51,1712226180203125
-274.28,1712226180218750
-278.97,1712226180234375
-281.1,1712226180250000
-281.24,1712226180265625
-278.87,1712226180281250
-273.2,1712226180296875
-264.96,1712226180312500
-256.13,1712226180328125
-247.25,1712226180343750
-238.99,1712226180359375
-231.32,1712226180375000
-223.32,1712226180390625
-212.48,1712226180406250
-194.75,1712226180421875
-165.79,1712226180437500
-123.36,1712226180453125
-68.36,1712226180468750
-3.82,1712226180484375
64.1,1712226180500000
128.23,1712226180515625
179.51,1712226180531250
209.48,1712226180546875
215.88,1712226180562500
204.89,1712226180578125
186.59,1712226180593750
168.62,1712226180609375
153.77,1712226180625000
140.36,1712226180640625
125.42,1712226180656250
106.84,1712226180671875
84.48,1712226180687500
59.96,1712226180703125
35.6,1712226180718750
14.35,1712226180734375
-2.78,1712226180750000
-14.37,1712226180765625
-19.23,1712226180781250
-17.48,1712226180796875
-11.17,1712226180812500
-3.46,1712226180828125
2.37,1712226180843750
3.13,1712226180859375
-2.75,1712226180875000
-15.56,1712226180890625
-35.24,1712226180906250
-61.35,1712226180921875
-92.55,1712226180937500
-125.92,1712226180953125
-156.7,1712226180968750
-179.4,1712226180984375
-190.02,1712226181000000
-189.7,1712226181015625
-180.01,1712226181031250
-164.39,1712226181046875
-146.42,1712226181062500
-128.4,1712226181078125
-110.94,1712226181093750
-93.42,1712226181109375
-74.99,1712226181125000
-55.51,1712226181140625
-35.47,1712226181156250
-15.96,1712226181171875
1.41,1712226181187500
15.44,1712226181203125
25.71,1712226181218750
32.51,1712226181234375
36.72,1712226181250000
39.91,1712226181265625
41.39,1712226181281250
42.4,1712226181296875
45.02,1712226181312500
51.28,1712226181328125
62.8,1712226181343750
80.31,1712226181359375
103.28,1712226181375000
129.81,1712226181390625
156.93,1712226181406250
181.16,1712226181421875
199.78,1712226181437500
211.13,1712226181453125
214.59,1712226181468750
210.75,1712226181484375
200.99,1712226181500000
186.72,1712226181515625
169.0,1712226181531250
148.35,1712226181546875
125.06,1712226181562500
100.12,1712226181578125
75.19,1712226181593750
52.53,1712226181609375
34.76,1712226181625000
24.16,1712226181640625
22.14,1712226181656250
28.66,1712226181671875
42.01,1712226181687500
59.14,1712226181703125
76.63,1712226181718750
91.46,1712226181734375
101.96,1712226181750000
108.35,1712226181765625
112.31,1712226181781250
115.85,1712226181796875
119.92,1712226181812500
123.4,1712226181828125
123.24,1712226181843750
115.75,1712226181859375
98.16,1712226181875000
70.17,1712226181890625
34.49,1712226181906250
-3.88,1712226181921875
-39.13,1712226181937500
-66.33,1712226181953125
-82.82,1712226181968750
-88.81,1712226181984375
-87.07,1712226182000000
-82.22,1712226182015625
-79.14,1712226182031250
-81.49,1712226182046875
-90.8,1712226182062500
-106.37,1712226182078125
-126.07,1712226182093750
-147.56,1712226182109375
-169.17,1712226182125000
-190.04,1712226182140625
-209.44,1712226182156250
-225.61,1712226182171875
-235.38,1712226182187500
-235.06,1712226182203125
-222.23,1712226182218750
-197.67,1712226182234375
-165.99,1712226182250000
-134.17,1712226182265625
-108.98,1712226182281250
-94.21,1712226182296875
-89.15,1712226182312500
-89.4,1712226182328125
-89.55,1712226182343750
-86.02,1712226182359375
-78.6,1712226182375000
-69.97,1712226182390625
-63.54,1712226182406250
-61.57,1712226182421875
-64.14,1712226182437500
-68.96,1712226182453125
-72.23,1712226182468750
-69.89,1712226182484375
-58.59,1712226182500000
-36.6,1712226182515625
-4.59,1712226182531250
33.97,1712226182546875
72.68,1712226182562500
103.81,1712226182578125
121.39,1712226182593750
123.92,1712226182609375
114.92,1712226182625000
100.98,1712226182640625
88.32,1712226182656250
79.89,1712226182671875
75.13,1712226182687500
71.71,1712226182703125
66.22,1712226182718750
55.82,1712226182734375
39.5,1712226182750000
18.6,1712226182765625
-3.95,1712226182781250
-24.26,1712226182796875
-39.48,1712226182812500
-46.58,1712226182828125
-43.91,1712226182843750
-32.65,1712226182859375
-16.62,1712226182875000
-1.25,1712226182890625
9.09,1712226182906250
13.62,1712226182921875
16.11,1712226182937500
23.13,1712226182953125
41.02,1712226182968750
70.66,1712226182984375
105.34,1712226183000000
133.79,1712226183015625
145.09,1712226183031250
134.13,1712226183046875
103.71,1712226183062500
63.61,1712226183078125
25.66,1712226183093750
-1.49,1712226183109375
-15.98,1712226183125000
-21.82,1712226183140625
-23.84,1712226183156250
-24.91,1712226183171875
-24.38,1712226183187500
-19.07,1712226183203125
-4.6,1712226183218750
21.37,1712226183234375
56.53,1712226183250000
92.68,1712226183265625
118.5,1712226183281250
125.41,1712226183296875
109.86,1712226183312500
74.2,1712226183328125
24.25,1712226183343750
-32.39,1712226183359375
-89.11,1712226183375000
-138.51,1712226183390625
-174.91,1712226183406250
-203.68,1712226183421875
-228.77,1712226183437500
-250.73,1712226183453125
-262.79,1712226183468750
-261.56,1712226183484375
-245.83,1712226183500000
-216.43,1712226183515625
-175.51,1712226183531250
-126.46,1712226183546875
-72.83,1712226183562500
-16.48,1712226183578125
40.9,1712226183593750
96.81,1712226183609375
144.05,1712226183625000
176.18,1712226183640625
191.07,1712226183656250
191.03,1712226183671875
179.52,1712226183687500
159.29,1712226183703125
133.15,1712226183718750
103.38,1712226183734375
72.03,1712226183750000
40.2,1712226183765625
9.91,1712226183781250
-15.97,1712226183796875
-33.77,1712226183812500
-42.18,1712226183828125
-40.82,1712226183843750
-30.28,1712226183859375
-13.47,1712226183875000
5.0,1712226183890625
19.75,1712226183906250
27.89,1712226183921875
30.18,1712226183937500
30.6,1712226183953125
34.45,1712226183968750
47.05,1712226183984375
72.2,1712226184000000
108.01,1712226184015625
148.56,1712226184031250
184.16,1712226184046875
205.49,1712226184062500
207.01,1712226184078125
188.55,1712226184093750
154.08,1712226184109375
110.86,1712226184125000
67.39,1712226184140625
31.06,1712226184156250
7.38,1712226184171875
-1.59,1712226184187500
3.09,1712226184203125
16.79,1712226184218750
31.66,1712226184234375
37.76,1712226184250000
28.11,1712226184265625
2.0,1712226184281250
-34.66,1712226184296875
-71.53,1712226184312500
-99.44,1712226184328125
-113.35,1712226184343750
-113.52,1712226184359375
-99.18,1712226184375000
-73.88,1712226184390625
-43.24,1712226184406250
-11.27,1712226184421875
19.15,1712226184437500
51.82,1712226184453125
89.02,1712226184468750
129.88,1712226184484375
171.13,1712226184500000
207.24,1712226184515625
231.39,1712226184531250
239.39,1712226184546875
231.43,1712226184562500
211.02,1712226184578125
184.43,1712226184593750
158.22,1712226184609375
138.12,1712226184625000
127.67,1712226184640625
127.27,1712226184656250
132.75,1712226184671875
138.44,1712226184687500
138.92,1712226184703125
127.8,1712226184718750
99.78,1712226184734375
51.78,1712226184750000
-15.83,1712226184765625
-99.55,1712226184781250
-194.06,1712226184796875
-295.11,1712226184812500
-397.08,1712226184828125
-492.29,1712226184843750
-574.88,1712226184859375
-640.5,1712226184875000
-686.75,1712226184890625
-713.61,1712226184906250
-723.3,1712226184921875
-719.04,1712226184937500
-705.01,1712226184953125
-681.28,1712226184968750
-642.9,1712226184984375
-586.44,1712226185000000
-511.28,1712226185015625
-419.97,1712226185031250
-318.06,1712226185046875
-212.36,1712226185062500
-98.01,1712226185078125
19.58,1712226185093750
123.03,1712226185109375
212.63,1712226185125000
292.03,1712226185140625
359.27,1712226185156250
408.96,1712226185171875
434.95,1712226185187500
433.37,1712226185203125
404.59,1712226185218750
351.29,1712226185234375
279.76,1712226185250000
198.23,1712226185265625
110.79,1712226185281250
19.12,1712226185296875
-73.92,1712226185312500
-162.44,1712226185328125
-237.5,1712226185343750
-289.38,1712226185359375
-312.47,1712226185375000
-305.72,1712226185390625
-272.66,1712226185406250
-223.05,1712226185421875
-168.29,1712226185437500
-116.78,1712226185453125
-72.17,1712226185468750
-33.89,1712226185484375
0.98,1712226185500000
34.66,1712226185515625
69.28,1712226185531250
107.58,1712226185546875
151.13,1712226185562500
200.71,1712226185578125
255.74,1712226185593750
312.64,1712226185609375
364.33,1712226185625000
402.06,1712226185640625
418.64,1712226185656250
412.41,1712226185671875
388.45,1712226185687500
354.92,1712226185703125
319.09,1712226185718750
284.24,1712226185734375
249.28,1712226185750000
211.29,1712226185765625
169.26,1712226185781250
126.04,1712226185796875
87.71,1712226185812500
60.38,1712226185828125
46.25,1712226185843750
42.05,1712226185859375
40.86,1712226185875000
35.65,1712226185890625
22.96,1712226185906250
4.15,1712226185921875
-16.02,1712226185937500
-32.9,1712226185953125
-44.68,1712226185968750
-53.18,1712226185984375
-62.13,1712226186000000
-73.99,1712226186015625
-87.68,1712226186031250
-98.35,1712226186046875
-99.37,1712226186062500
-85.59,1712226186078125
-55.93,1712226186093750
-14.06,1712226186109375
33.08,1712226186125000
77.76,1712226186140625
114.05,1712226186156250
139.11,1712226186171875
152.92,1712226186187500
157.37,1712226186203125
155.19,1712226186218750
149.11,1712226186234375
141.12,1712226186250000
131.94,1712226186265625
120.92,1712226186281250
106.82,1712226186296875
89.14,1712226186312500
69.26,1712226186328125
50.85,1712226186343750
39.28,1712226186359375
40.06,1712226186375000
56.71,1712226186390625
89.05,1712226186406250
132.67,1712226186421875
179.8,1712226186437500
221.81,1712226186453125
251.55,1712226186468750
264.82,1712226186484375
260.75,1712226186500000
241.01,1712226186515625
208.17,1712226186531250
164.09,1712226186546875
109.38,1712226186562500
43.97,1712226186578125
-29.89,1712226186593750
-106.6,1712226186609375
-177.88,1712226186625000
-235.07,1712226186640625
-271.87,1712226186656250
-286.64,1712226186671875
-282.91,1712226186687500
-267.78,1712226186703125
-250.07,1712226186718750
-235.41,1712226186734375
-225.69,1712226186750000
-220.43,1712226186765625
-217.47,1712226186781250
-213.48,1712226186796875
-204.33,1712226186812500
-186.55,1712226186828125
-159.36,1712226186843750
-127.57,1712226186859375
-97.53,1712226186875000
-75.92,1712226186890625
-67.43,1712226186906250
-71.38,1712226186921875
-80.82,1712226186937500
-85.07,1712226186953125
-74.66,1712226186968750
-45.33,1712226186984375
-0.91,1712226187000000
54.3,1712226187015625
116.97,1712226187031250
185.07,1712226187046875
250.57,1712226187062500
300.77,1712226187078125
323.75,1712226187093750
316.35,1712226187109375
298.95,1712226187125000
278.71,1712226187140625
258.5,1712226187156250
239.18,1712226187171875
215.01,1712226187187500
183.51,1712226187203125
144.66,1712226187218750
101.33,1712226187234375
59.06,1712226187250000
24.76,1712226187265625
1.45,1712226187281250
-9.02,1712226187296875
-7.93,1712226187312500
-2.22,1712226187328125
-1.75,1712226187343750
-15.41,1712226187359375
-41.37,1712226187375000
-72.11,1712226187390625
-97.32,1712226187406250
-112.55,1712226187421875
-116.24,1712226187437500
-111.44,1712226187453125
-102.86,1712226187468750
-92.48,1712226187484375
-72.07,1712226187500000
-36.07,1712226187515625
14.75,1712226187531250
72.45,1712226187546875
118.87,1712226187562500
146.43,1712226187578125
152.85,1712226187593750
139.66,1712226187609375
113.35,1712226187625000
80.03,1712226187640625
42.97,1712226187656250
2.2,1712226187671875
-44.41,1712226187687500
-99.94,1712226187703125
-164.34,1712226187718750
-235.69,1712226187734375
-309.85,1712226187750000
-380.62,1712226187765625
-441.14,1712226187781250
-485.66,1712226187796875
-510.35,1712226187812500
-514.33,1712226187828125
-500.9,1712226187843750
-476.14,1712226187859375
-448.59,1712226187875000
-425.29,1712226187890625
-408.35,1712226187906250
-394.14,1712226187921875
-375.6,1712226187937500
-345.72,1712226187953125
-301.14,1712226187968750
-243.74,1712226187984375
-178.72,1712226188000000
-112.32,1712226188015625
-48.49,1712226188031250
12.13,1712226188046875
70.45,1712226188062500
126.33,1712226188078125
177.27,1712226188093750
218.97,1712226188109375
247.22,1712226188125000
260.24,1712226188140625
259.06,1712226188156250
247.05,1712226188171875
228.56,1712226188187500
207.54,1712226188203125
187.02,1712226188218750
169.31,1712226188234375
156.29,1712226188250000
149.05,1712226188265625
147.58,1712226188281250
150.32,1712226188296875
154.97,1712226188312500
159.53,1712226188328125
162.79,1712226188343750
164.16,1712226188359375
162.49,1712226188375000
154.96,1712226188390625
137.42,1712226188406250
106.58,1712226188421875
63.02,1712226188437500
13.11,1712226188453125
-32.2,1712226188468750
-61.74,1712226188484375
-69.64,1712226188500000
-58.94,1712226188515625
-40.8,1712226188531250
-29.7,1712226188546875
-36.74,1712226188562500
-64.73,1712226188578125
-107.45,1712226188593750
-153.12,1712226188609375
-190.17,1712226188625000
-211.76,1712226188640625
-217.41,1712226188656250
-211.54,1712226188671875
-200.45,1712226188687500
-189.85,1712226188703125
-184.0,1712226188718750
-185.96,1712226188734375
-197.65,1712226188750000
-219.39,1712226188765625
-248.85,1712226188781250
-281.07,1712226188796875
-309.45,1712226188812500
-327.78,1712226188828125
-332.45,1712226188843750
-323.48,1712226188859375
-303.93,1712226188875000
-278.26,1712226188890625
-250.54,1712226188906250
-223.45,1712226188921875
-198.2,1712226188937500
-175.03,1712226188953125
-153.64,1712226188968750
-133.36,1712226188984375
-113.09,1712226189000000
-91.35,1712226189015625
-66.62,1712226189031250
-37.89,1712226189046875
-5.15,1712226189062500
30.48,1712226189078125
67.02,1712226189093750
102.1,1712226189109375
133.64,1712226189125000
160.35,1712226189140625
181.82,1712226189156250
198.57,1712226189171875
211.6,1712226189187500
221.97,1712226189203125
230.6,1712226189218750
238.45,1712226189234375
246.7,1712226189250000
256.64,1712226189265625
269.19,1712226189281250
284.04,1712226189296875
299.33,1712226189312500
311.9,1712226189328125
318.57,1712226189343750
317.53,1712226189359375
309.34,1712226189375000
296.67,1712226189390625
283.04,1712226189406250
271.2,1712226189421875
262.1,1712226189437500
254.83,1712226189453125
247.7,1712226189468750
239.29,1712226189484375
229.22,1712226189500000
217.99,1712226189515625
206.19,1712226189531250
193.92,1712226189546875
180.69,1712226189562500
165.95,1712226189578125
149.66,1712226189593750
132.59,1712226189609375
116.0,1712226189625000
101.15,1712226189640625
88.65,1712226189656250
78.15,1712226189671875
68.61,1712226189687500
58.89,1712226189703125
48.46,1712226189718750
37.73,1712226189734375
27.84,1712226189750000
20.12,1712226189765625
15.4,1712226189781250
13.87,1712226189796875
14.84,1712226189812500
17.21,1712226189828125
20.01,1712226189843750
22.91,1712226189859375
26.41,1712226189875000
31.4,1712226189890625
38.63,1712226189906250
48.13,1712226189921875
59.61,1712226189937500
72.0,1712226189953125
83.87,1712226189968750
94.08,1712226189984375
102.46,1712226190000000
109.81,1712226190015625
117.49,1712226190031250
126.47,1712226190046875
136.74,1712226190062500
148.3,1712226190078125
160.18,1712226190093750
170.97,1712226190109375
179.62,1712226190125000
186.19,1712226190140625
191.6,1712226190156250
196.87,1712226190171875
202.01,1712226190187500
205.81,1712226190203125
208.23,1712226190218750
208.67,1712226190234375
205.76,1712226190250000
197.01,1712226190265625
179.39,1712226190281250
150.44,1712226190296875
110.03,1712226190312500
61.8,1712226190328125
13.35,1712226190343750
-23.55,1712226190359375
-39.97,1712226190375000
-34.08,1712226190390625
-12.24,1712226190406250
14.74,1712226190421875
36.83,1712226190437500
49.44,1712226190453125
54.29,1712226190468750
42.42,1712226190484375
13.07,1712226190500000
-28.58,1712226190515625
-73.83,1712226190531250
-115.31,1712226190546875
-149.19,1712226190562500
-174.47,1712226190578125
-191.36,1712226190593750
-201.07,1712226190609375
-206.1,1712226190625000
-207.68,1712226190640625
-207.84,1712226190656250
-207.23,1712226190671875
-206.24,1712226190687500
-201.56,1712226190703125
-187.4,1712226190718750
-158.87,1712226190734375
-116.29,1712226190750000
-66.47,1712226190765625
-18.8,1712226190781250
16.99,1712226190796875
34.77,1712226190812500
33.96,1712226190828125
19.15,1712226190843750
-4.61,1712226190859375
-31.6,1712226190875000
-58.82,1712226190890625
-85.87,1712226190906250
-111.55,1712226190921875
-133.4,1712226190937500
-147.94,1712226190953125
-152.8,1712226190968750
-148.35,1712226190984375
-138.21,1712226191000000
-127.33,1712226191015625
-119.8,1712226191031250
-116.89,1712226191046875
-116.23,1712226191062500
-114.49,1712226191078125
-110.32,1712226191093750
-105.85,1712226191109375
-105.54,1712226191125000
-114.05,1712226191140625
-133.73,1712226191156250
-163.99,1712226191171875
-201.56,1712226191187500
-241.11,1712226191203125
-276.61,1712226191218750
-302.1,1712226191234375
-312.31,1712226191250000
-303.37,1712226191265625
-273.83,1712226191281250
-225.4,1712226191296875
-163.42,1712226191312500
-95.96,1712226191328125
-31.89,1712226191343750
21.15,1712226191359375
58.55,1712226191375000
79.44,1712226191390625
86.3,1712226191406250
83.66,1712226191421875
76.36,1712226191437500
67.98,1712226191453125
60.32,1712226191468750
53.64,1712226191484375
47.29,1712226191500000
40.33,1712226191515625
31.89,1712226191531250
20.91,1712226191546875
6.44,1712226191562500
-11.74,1712226191578125
-32.46,1712226191593750
-53.0,1712226191609375
-69.69,1712226191625000
-79.51,1712226191640625
-81.54,1712226191656250
-77.67,1712226191671875
-71.93,1712226191687500
-68.75,1712226191703125
-71.03,1712226191718750
-78.86,1712226191734375
-89.63,1712226191750000
-99.33,1712226191765625
-104.53,1712226191781250
-103.93,1712226191796875
-98.66,1712226191812500
-91.26,1712226191828125
-83.82,1712226191843750
-76.7,1712226191859375
-68.2,1712226191875000
-55.54,1712226191890625
-36.38,1712226191906250
-9.95,1712226191921875
22.5,1712226191937500
57.86,1712226191953125
91.61,1712226191968750
118.43,1712226191984375
132.89,1712226192000000
131.08,1712226192015625
112.73,1712226192031250
83.06,1712226192046875
52.47,1712226192062500
33.5,1712226192078125
35.67,1712226192093750
60.77,1712226192109375
101.56,1712226192125000
145.01,1712226192140625
178.55,1712226192156250
195.86,1712226192171875
198.89,1712226192187500
195.0,1712226192203125
191.39,1712226192218750
190.33,1712226192234375
188.23,1712226192250000
178.77,1712226192265625
157.75,1712226192281250
126.31,1712226192296875
90.53,1712226192312500
57.94,1712226192328125
33.52,1712226192343750
17.79,1712226192359375
7.97,1712226192375000
0.77,1712226192390625
-5.21,1712226192406250
-9.36,1712226192421875
-10.51,1712226192437500
-8.62,1712226192453125
-5.31,1712226192468750
-3.1,1712226192484375
-4.16,1712226192500000
-9.5,1712226192515625
-18.78,1712226192531250
-30.43,1712226192546875
-41.63,1712226192562500
-48.48,1712226192578125
-46.97,1712226192593750
-34.82,1712226192609375
-13.58,1712226192625000
10.75,1712226192640625
29.42,1712226192656250
34.65,1712226192671875
23.29,1712226192687500
-1.43,1712226192703125
-31.37,1712226192718750
-57.26,1712226192734375
-72.64,1712226192750000
-75.65,1712226192765625
-68.44,1712226192781250
-54.93,1712226192796875
-38.7,1712226192812500
-22.06,1712226192828125
-6.1,1712226192843750
8.91,1712226192859375
23.41,1712226192875000
38.59,1712226192890625
56.52,1712226192906250
79.54,1712226192921875
109.43,1712226192937500
146.5,1712226192953125
189.2,1712226192968750
233.92,1712226192984375
275.74,1712226193000000
309.7,1712226193015625
332.53,1712226193031250
344.17,1712226193046875
348.08,1712226193062500
349.84,1712226193078125
354.64,1712226193093750
364.66,1712226193109375
377.9,1712226193125000
389.19,1712226193140625
392.73,1712226193156250
384.85,1712226193171875
365.4,1712226193187500
337.04,1712226193203125
303.41,1712226193218750
267.28,1712226193234375
229.9,1712226193250000
191.67,1712226193265625
153.38,1712226193281250
116.62,1712226193296875
83.35,1712226193312500
54.71,1712226193328125
30.2,1712226193343750
7.71,1712226193359375
-15.46,1712226193375000
-41.36,1712226193390625
-70.45,1712226193406250
-101.49,1712226193421875
-132.38,1712226193437500
-161.27,1712226193453125
-187.51,1712226193468750
-212.15,1712226193484375
-237.73,1712226193500000
-267.5,1712226193515625
-304.26,1712226193531250
-349.04,1712226193546875
-399.92,1712226193562500
-451.72,1712226193578125
-496.91,1712226193593750
-527.79,1712226193609375
-539.1,1712226193625000
-529.99,1712226193640625
-504.24,1712226193656250
-468.61,1712226193671875
-429.93,1712226193687500
-392.73,1712226193703125
-358.28,1712226193718750
-325.51,1712226193734375
-292.82,1712226193750000
-259.88,1712226193765625
-228.02,1712226193781250
-199.56,1712226193796875
-176.34,1712226193812500
-158.56,1712226193828125
-144.58,1712226193843750
-131.52,1712226193859375
-116.34,1712226193875000
-96.82,1712226193890625
-72.09,1712226193906250
-42.65,1712226193921875
-10.12,1712226193937500
23.18,1712226193953125
54.5,1712226193968750
81.31,1712226193984375
101.75,1712226194000000
115.35,1712226194015625
123.6,1712226194031250
129.74,1712226194046875
137.97,1712226194062500
151.86,1712226194078125
172.61,1712226194093750
197.92,1712226194109375
222.61,1712226194125000
240.75,1712226194140625
248.5,1712226194156250
246.05,1712226194171875
237.58,1712226194187500
228.86,1712226194203125
223.92,1712226194218750
222.87,1712226194234375
221.92,1712226194250000
215.84,1712226194265625
200.95,1712226194281250
176.9,1712226194296875
146.01,1712226194312500
111.17,1712226194328125
73.71,1712226194343750
33.18,1712226194359375
-11.06,1712226194375000
-57.7,1712226194390625
-102.71,1712226194406250
-140.64,1712226194421875
-167.27,1712226194437500
-181.66,1712226194453125
-186.23,1712226194468750
-184.77,1712226194484375
-179.83,1712226194500000
-171.22,1712226194515625
-156.67,1712226194531250
-134.06,1712226194546875
-103.49,1712226194562500
-68.04,1712226194578125
-32.76,1712226194593750
-2.73,1712226194609375
18.63,1712226194625000
30.33,1712226194640625
33.41,1712226194656250
30.09,1712226194671875
22.96,1712226194687500
14.3,1712226194703125
5.77,1712226194718750
-1.8,1712226194734375
-8.32,1712226194750000
-14.07,1712226194765625
-19.44,1712226194781250
-24.58,1712226194796875
-29.3,1712226194812500
-33.38,1712226194828125
-36.72,1712226194843750
-39.48,1712226194859375
-42.04,1712226194875000
-44.6,1712226194890625
-47.09,1712226194906250
-49.18,1712226194921875
-50.51,1712226194937500
-50.84,1712226194953125
-50.08,1712226194968750
-48.29,1712226194984375
-45.48,1712226195000000
-41.65,1712226195015625
-36.95,1712226195031250
-31.94,1712226195046875
-27.53,1712226195062500
-24.51,1712226195078125
-22.97,1712226195093750
-21.94,1712226195109375
-19.42,1712226195125000
-13.12,1712226195140625
-1.43,1712226195156250
15.99,1712226195171875
37.98,1712226195187500
62.44,1712226195203125
87.12,1712226195218750
110.13,1712226195234375
129.88,1712226195250000
144.67,1712226195265625
152.47,1712226195281250
151.24,1712226195296875
139.86,1712226195312500
119.05,1712226195328125
91.53,1712226195343750
61.18,1712226195359375
31.4,1712226195375000
3.65,1712226195390625
-22.98,1712226195406250
-51.09,1712226195421875
-83.6,1712226195437500
-122.13,1712226195453125
-166.28,1712226195468750
-213.51,1712226195484375
-259.58,1712226195500000
-299.55,1712226195515625
-328.82,1712226195531250
-344.71,1712226195546875
-347.81,1712226195562500
-342.34,1712226195578125
-334.93,1712226195593750
-331.87,1712226195609375
-335.93,1712226195625000
-344.58,1712226195640625
-350.76,1712226195656250
-345.94,1712226195671875
-323.94,1712226195687500
-283.47,1712226195703125
-228.33,1712226195718750
-165.5,1712226195734375
-102.76,1712226195750000
-46.97,1712226195765625
-3.54,1712226195781250
23.71,1712226195796875
33.03,1712226195812500
25.68,1712226195828125
6.35,1712226195843750
-17.57,1712226195859375
-38.15,1712226195875000
-49.6,1712226195890625
-49.82,1712226195906250
-40.3,1712226195921875
-24.52,1712226195937500
-5.79,1712226195953125
14.03,1712226195968750
34.6,1712226195984375
56.54,1712226196000000
80.79,1712226196015625
108.29,1712226196031250
139.86,1712226196046875
175.76,1712226196062500
214.7,1712226196078125
253.22,1712226196093750
285.82,1712226196109375
306.53,1712226196125000
311.16,1712226196140625
298.95,1712226196156250
272.42,1712226196171875
235.82,1712226196187500
193.13,1712226196203125
147.2,1712226196218750
100.21,1712226196234375
54.57,1712226196250000
13.14,1712226196265625
-21.81,1712226196281250
-49.67,1712226196296875
-71.86,1712226196312500
-90.49,1712226196328125
-106.27,1712226196343750
-117.31,1712226196359375
-119.88,1712226196375000
-110.51,1712226196390625
-88.18,1712226196406250
-55.12,1712226196421875
-16.14,1712226196437500
22.88,1712226196453125
55.87,1712226196468750
76.92,1712226196484375
80.98,1712226196500000
65.85,1712226196515625
34.85,1712226196531250
-2.07,1712226196546875
-30.72,1712226196562500
-38.75,1712226196578125
-21.73,1712226196593750
14.21,1712226196609375
55.43,1712226196625000
88.09,1712226196640625
105.25,1712226196656250
109.42,1712226196671875
109.4,1712226196687500
113.81,1712226196703125
125.57,1712226196718750
140.77,1712226196734375
152.17,1712226196750000
154.25,1712226196765625
146.65,1712226196781250
133.76,1712226196796875
121.19,1712226196812500
111.93,1712226196828125
104.54,1712226196843750
94.43,1712226196859375
76.58,1712226196875000
48.21,1712226196890625
9.55,1712226196906250
-37.02,1712226196921875
-88.26,1712226196937500
-140.63,1712226196953125
-190.17,1712226196968750
-232.07,1712226196984375
-261.51,1712226197000000
-275.24,1712226197015625
-273.2,1712226197031250
-258.93,1712226197046875
-238.02,1712226197062500
-215.41,1712226197078125
-193.15,1712226197093750
-169.9,1712226197109375
-142.36,1712226197125000
-107.58,1712226197140625
-64.58,1712226197156250
-14.77,1712226197171875
38.65,1712226197187500
91.75,1712226197203125
140.27,1712226197218750
179.75,1712226197234375
205.83,1712226197250000
215.18,1712226197265625
206.67,1712226197281250
182.22,1712226197296875
146.56,1712226197312500
106.0,1712226197328125
66.83,1712226197343750
33.95,1712226197359375
10.13,1712226197375000
-4.15,1712226197390625
-10.11,1712226197406250
-10.11,1712226197421875
-6.78,1712226197437500
-2.11,1712226197453125
3.14,1712226197468750
9.6,1712226197484375
18.72,1712226197500000
31.71,1712226197515625
48.69,1712226197531250
68.7,1712226197546875
90.12,1712226197562500
111.84,1712226197578125
133.85,1712226197593750
157.1,1712226197609375
182.19,1712226197625000
208.01,1712226197640625
231.17,1712226197656250
247.06,1712226197671875
252.19,1712226197687500
246.17,1712226197703125
232.35,1712226197718750
216.11,1712226197734375
201.96,1712226197750000
191.21,1712226197765625
181.79,1712226197781250
170.03,1712226197796875
153.28,1712226197812500
131.55,1712226197828125
107.2,1712226197843750
83.32,1712226197859375
62.24,1712226197875000
45.02,1712226197890625
32.15,1712226197906250
24.19,1712226197921875
21.69,1712226197937500
24.11,1712226197953125
28.81,1712226197968750
31.21,1712226197984375
26.43,1712226198000000
11.62,1712226198015625
-12.71,1712226198031250
-43.21,1712226198046875
-75.89,1712226198062500
-108.19,1712226198078125
-140.25,1712226198093750
-173.82,1712226198109375
-210.19,1712226198125000
-248.26,1712226198140625
-284.52,1712226198156250
-314.94,1712226198171875
-337.74,1712226198187500
-354.73,1712226198203125
-370.29,1712226198218750
-388.28,1712226198234375
-409.04,1712226198250000
-428.22,1712226198265625
-438.59,1712226198281250
-433.86,1712226198296875
-412.23,1712226198312500
-377.74,1712226198328125
-338.53,1712226198343750
-302.68,1712226198359375
-274.58,1712226198375000
-253.5,1712226198390625
-234.93,1712226198406250
-213.42,1712226198421875
-185.22,1712226198437500
-148.75,1712226198453125
-104.01,1712226198468750
-52.22,1712226198484375
4.94,1712226198500000
64.71,1712226198515625
122.18,1712226198531250
170.48,1712226198546875
202.86,1712226198562500
216.08,1712226198578125
213.49,1712226198593750
204.81,1712226198609375
201.86,1712226198625000
214.36,1712226198640625
245.9,1712226198656250
291.58,1712226198671875
340.05,1712226198687500
378.28,1712226198703125
396.39,1712226198718750
390.99,1712226198734375
364.22,1712226198750000
319.36,1712226198765625
260.03,1712226198781250
190.6,1712226198796875
116.03,1712226198812500
43.0,1712226198828125
-20.29,1712226198843750
-65.76,1712226198859375
-87.82,1712226198875000
-85.93,1712226198890625
-66.89,1712226198906250
-40.36,1712226198921875
-13.62,1712226198937500
10.29,1712226198953125
33.45,1712226198968750
61.15,1712226198984375
92.61,1712226199000000
121.96,1712226199015625
151.66,1712226199031250
178.48,1712226199046875
190.17,1712226199062500
179.14,1712226199078125
143.58,1712226199093750
87.69,1712226199109375
19.49,1712226199125000
-52.59,1712226199140625
-121.75,1712226199156250
-184.15,1712226199171875
-240.14,1712226199187500
-289.89,1712226199203125
-330.5,1712226199218750
-357.71,1712226199234375
-367.89,1712226199250000
-360.34,1712226199265625
-338.3,1712226199281250
-307.26,1712226199296875
-272.9,1712226199312500
-240.71,1712226199328125
-213.47,1712226199343750
-190.5,1712226199359375
-170.53,1712226199375000
-153.03,1712226199390625
-138.62,1712226199406250
-128.23,1712226199421875
-121.46,1712226199437500
-116.12,1712226199453125
-109.88,1712226199468750
-100.5,1712226199484375
-86.41,1712226199500000
-67.93,1712226199515625
-46.66,1712226199531250
-24.47,1712226199546875
-2.29,1712226199562500
20.55,1712226199578125
45.96,1712226199593750
75.74,1712226199609375
111.45,1712226199625000
154.33,1712226199640625
204.47,1712226199656250
259.92,1712226199671875
315.68,1712226199687500
363.85,1712226199703125
395.74,1712226199718750
405.22,1712226199734375
391.73,1712226199750000
361.55,1712226199765625
325.61,1712226199781250
294.87,1712226199796875
276.33,1712226199812500
271.07,1712226199828125
275.4,1712226199843750
284.0,1712226199859375
292.49,1712226199875000
298.13,1712226199890625
298.85,1712226199906250
291.96,1712226199921875
273.99,1712226199937500
242.37,1712226199953125
196.59,1712226199968750
139.15,1712226199984375
75.54,1712226200000000
13.31,1712226200015625
-39.3,1712226200031250
-75.32,1712226200046875
-91.1,1712226200062500
-87.28,1712226200078125
-67.62,1712226200093750
-38.36,1712226200109375
-5.98,1712226200125000
25.03,1712226200140625
53.06,1712226200156250
78.27,1712226200171875
100.43,1712226200187500
117.22,1712226200203125
125.08,1712226200218750
122.9,1712226200234375
112.03,1712226200250000
96.11,1712226200265625
79.68,1712226200281250
66.77,1712226200296875
59.94,1712226200312500
60.4,1712226200328125
67.43,1712226200343750
79.13,1712226200359375
94.8,1712226200375000
112.57,1712226200390625
129.37,1712226200406250
141.91,1712226200421875
148.15,1712226200437500
147.76,1712226200453125
141.33,1712226200468750
127.41,1712226200484375
90.39,1712226200500000
22.05,1712226200515625
-74.23,1712226200531250
-183.25,1712226200546875
-286.18,1712226200562500
-369.55,1712226200578125
-428.41,1712226200593750
-463.59,1712226200609375
-479.58,1712226200625000
-480.69,1712226200640625
-467.54,1712226200656250
-440.33,1712226200671875
-401.31,1712226200687500
-355.72,1712226200703125
-311.02,1712226200718750
-276.79,1712226200734375
-254.16,1712226200750000
-240.57,1712226200765625
-230.65,1712226200781250
-216.7,1712226200796875
-193.42,1712226200812500
-160.28,1712226200828125
-121.13,1712226200843750
-82.27,1712226200859375
-49.08,1712226200875000
-22.24,1712226200890625
1.09,1712226200906250
25.67,1712226200921875
57.07,1712226200937500
98.95,1712226200953125
148.81,1712226200968750
203.4,1712226200984375
259.45,1712226201000000
306.74,1712226201015625
336.28,1712226201031250
340.71,1712226201046875
316.77,1712226201062500
268.23,1712226201078125
205.13,1712226201093750
140.78,1712226201109375
87.61,1712226201125000
52.11,1712226201140625
36.08,1712226201156250
31.57,1712226201171875
30.13,1712226201187500
26.69,1712226201203125
21.15,1712226201218750
17.0,1712226201234375
18.23,1712226201250000
26.92,1712226201265625
41.82,1712226201281250
56.35,1712226201296875
65.36,1712226201312500
66.11,1712226201328125
58.42,1712226201343750
44.15,1712226201359375
25.98,1712226201375000
6.07,1712226201390625
-14.08,1712226201406250
-33.6,1712226201421875
-51.55,1712226201437500
-65.96,1712226201453125
-74.44,1712226201468750
-75.74,1712226201484375
-70.68,1712226201500000
-62.14,1712226201515625
-53.92,1712226201531250
-48.75,1712226201546875
-47.15,1712226201562500
-47.52,1712226201578125
-47.18,1712226201593750
-44.57,1712226201609375
-40.8,1712226201625000
-39.13,1712226201640625
-42.8,1712226201656250
-52.72,1712226201671875
-66.33,1712226201687500
-78.86,1712226201703125
-86.06,1712226201718750
-86.31,1712226201734375
-81.45,1712226201750000
-75.27,1712226201765625
-70.99,1712226201781250
-69.54,1712226201796875
-70.11,1712226201812500
-72.07,1712226201828125
-76.78,1712226201843750
-87.2,1712226201859375
-105.58,1712226201875000
-130.78,1712226201890625
-157.26,1712226201906250
-176.43,1712226201921875
-180.03,1712226201937500
-163.65,1712226201953125
-128.52,1712226201968750
-81.06,1712226201984375
-30.34,1712226202000000
14.87,1712226202015625
48.36,1712226202031250
67.77,1712226202046875
74.57,1712226202062500
73.13,1712226202078125
68.98,1712226202093750
66.78,1712226202109375
68.61,1712226202125000
73.6,1712226202140625
79.32,1712226202156250
83.94,1712226202171875
87.97,1712226202187500
94.14,1712226202203125
105.54,1712226202218750
123.46,1712226202234375
146.38,1712226202250000
170.64,1712226202265625
192.08,1712226202281250
207.63,1712226202296875
215.68,1712226202312500
215.13,1712226202328125
204.13,1712226202343750
179.91,1712226202359375
140.15,1712226202375000
85.15,1712226202390625
19.42,1712226202406250
-48.15,1712226202421875
-106.46,1712226202437500
-145.34,1712226202453125
-158.6,1712226202468750
-146.26,1712226202484375
-114.61,1712226202500000
-74.1,1712226202515625
-36.04,1712226202531250
-9.1,1712226202546875
2.94,1712226202562500
1.39,1712226202578125
-8.94,1712226202593750
-22.07,1712226202609375
-33.09,1712226202625000
-39.15,1712226202640625
-39.48,1712226202656250
-34.98,1712226202671875
-27.59,1712226202687500
-19.76,1712226202703125
-14.23,1712226202718750
-13.64,1712226202734375
-19.93,1712226202750000
-33.98,1712226202765625
-55.08,1712226202781250
-80.64,1712226202796875
-106.26,1712226202812500
-126.69,1712226202828125
-137.46,1712226202843750
-136.83,1712226202859375
-126.9,1712226202875000
-112.62,1712226202890625
-100.17,1712226202906250
-94.18,1712226202921875
-95.6,1712226202937500
-101.65,1712226202953125
-107.6,1712226202968750
-109.45,1712226202984375
-105.55,1712226203000000
-96.27,1712226203015625
-81.61,1712226203031250
-61.67,1712226203046875
-37.48,1712226203062500
-12.33,1712226203078125
8.1,1712226203093750
17.74,1712226203109375
13.42,1712226203125000
-2.01,1712226203140625
-19.28,1712226203156250
-24.24,1712226203171875
-5.71,1712226203187500
39.21,1712226203203125
103.71,1712226203218750
174.78,1712226203234375
239.1,1712226203250000
288.05,1712226203265625
319.22,1712226203281250
334.64,1712226203296875
339.63,1712226203312500
337.12,1712226203328125
326.98,1712226203343750
307.88,1712226203359375
280.35,1712226203375000
248.32,1712226203390625
217.79,1712226203406250
193.83,1712226203421875
166.24,1712226203437500
128.97,1712226203453125
81.25,1712226203468750
28.17,1712226203484375
-23.8,1712226203500000
-70.78,1712226203515625
-111.85,1712226203531250
-147.47,1712226203546875
-177.48,1712226203562500
-202.92,1712226203578125
-221.32,1712226203593750
-230.67,1712226203609375
-231.13,1712226203625000
-225.44,1712226203640625
-217.53,1712226203656250
-210.7,1712226203671875
-205.39,1712226203687500
-201.01,1712226203703125
-196.07,1712226203718750
-187.09,1712226203734375
-171.92,1712226203750000
-150.46,1712226203765625
-124.07,1712226203781250
-94.42,1712226203796875
-62.72,1712226203812500
-30.06,1712226203828125
1.62,1712226203843750
29.43,1712226203859375
51.27,1712226203875000
65.44,1712226203890625
71.42,1712226203906250
70.56,1712226203921875
65.99,1712226203937500
61.8,1712226203953125
61.49,1712226203968750
66.65,1712226203984375
76.78,1712226204000000
90.52,1712226204015625
105.49,1712226204031250
118.81,1712226204046875
127.67,1712226204062500
130.23,1712226204078125
126.26,1712226204093750
117.37,1712226204109375
106.4,1712226204125000
96.71,1712226204140625
91.91,1712226204156250
94.46,1712226204171875
104.73,1712226204187500
120.71,1712226204203125
138.25,1712226204218750
151.63,1712226204234375
154.44,1712226204250000
141.0,1712226204265625
108.52,1712226204281250
59.33,1712226204296875
1.13,1712226204312500
-55.19,1712226204328125
-99.12,1712226204343750
-124.11,1712226204359375
-129.7,1712226204375000
-121.33,1712226204390625
-106.88,1712226204406250
-95.38,1712226204421875
-92.93,1712226204437500
-99.34,1712226204453125
-109.46,1712226204468750
-117.69,1712226204484375
-121.24,1712226204500000
-120.0,1712226204515625
-114.71,1712226204531250
-105.64,1712226204546875
-93.25,1712226204562500
-77.08,1712226204578125
-58.17,1712226204593750
-39.75,1712226204609375
-25.97,1712226204625000
-20.0,1712226204640625
-22.47,1712226204656250
-31.37,1712226204671875
-43.11,1712226204687500
-53.83,1712226204703125
-60.51,1712226204718750
-60.98,1712226204734375
-54.79,1712226204750000
-43.15,1712226204765625
-28.38,1712226204781250
-13.18,1712226204796875
-0.01,1712226204812500
9.53,1712226204828125
15.21,1712226204843750
18.64,1712226204859375
22.52,1712226204875000
29.54,1712226204890625
41.26,1712226204906250
57.67,1712226204921875
77.17,1712226204937500
97.01,1712226204953125
114.13,1712226204968750
126.09,1712226204984375
131.99,1712226205000000
132.85,1712226205015625
131.31,1712226205031250
130.8,1712226205046875
134.48,1712226205062500
143.98,1712226205078125
158.79,1712226205093750
176.33,1712226205109375
192.95,1712226205125000
205.46,1712226205140625
212.29,1712226205156250
213.98,1712226205171875
212.54,1712226205187500
210.28,1712226205203125
208.5,1712226205218750
206.95,1712226205234375
204.2,1712226205250000
198.75,1712226205265625
189.95,1712226205281250
178.4,1712226205296875
165.25,1712226205312500
151.42,1712226205328125
136.71,1712226205343750
119.62,1712226205359375
97.98,1712226205375000
69.68,1712226205390625
33.15,1712226205406250
-12.51,1712226205421875
-67.59,1712226205437500
-131.25,1712226205453125
-200.52,1712226205468750
-269.6,1712226205484375
-330.29,1712226205500000
-373.78,1712226205515625
-393.56,1712226205531250
-387.61,1712226205546875
-358.83,1712226205562500
-313.24,1712226205578125
-257.18,1712226205593750
-195.1,1712226205609375
-129.25,1712226205625000
-61.0,1712226205640625
7.44,1712226205656250
72.23,1712226205671875
128.8,1712226205687500
173.51,1712226205703125
204.95,1712226205718750
224.09,1712226205734375
233.16,1712226205750000
234.2,1712226205765625
228.25,1712226205781250
215.49,1712226205796875
195.59,1712226205812500
168.74,1712226205828125
136.16,1712226205843750
100.28,1712226205859375
64.4,1712226205875000
32.03,1712226205890625
5.84,1712226205906250
-13.28,1712226205921875
-26.52,1712226205937500
-36.62,1712226205953125
-46.48,1712226205968750
-57.91,1712226205984375
-71.03,1712226206000000
-84.55,1712226206015625
-96.72,1712226206031250
-106.32,1712226206046875
-113.04,1712226206062500
-117.33,1712226206078125
-120.16,1712226206093750
-122.64,1712226206109375
-125.78,1712226206125000
-130.09,1712226206140625
-135.09,1712226206156250
-139.03,1712226206171875
-139.3,1712226206187500
-133.6,1712226206203125
-121.42,1712226206218750
-104.74,1712226206234375
-87.52,1712226206250000
-74.2,1712226206265625
-67.9,1712226206281250
-69.38,1712226206296875
-77.06,1712226206312500
-87.78,1712226206328125
-97.77,1712226206343750
-103.46,1712226206359375
-102.18,1712226206375000
-92.77,1712226206390625
-76.31,1712226206406250
-56.2,1712226206421875
-37.49,1712226206437500
-25.12,1712226206453125
-22.02,1712226206468750
-27.8,1712226206484375
-38.94,1712226206500000
-50.37,1712226206515625
-57.5,1712226206531250
-57.83,1712226206546875
-51.56,1712226206562500
-40.75,1712226206578125
-28.23,1712226206593750
-16.55,1712226206609375
-7.44,1712226206625000
-1.87,1712226206640625
-0.17,1712226206656250
-2.15,1712226206671875
-7.05,1712226206687500
-13.43,1712226206703125
-19.36,1712226206718750
-22.68,1712226206734375
-21.72,1712226206750000
-15.75,1712226206765625
-5.35,1712226206781250
7.77,1712226206796875
21.28,1712226206812500
33.17,1712226206828125
42.62,1712226206843750
50.33,1712226206859375
58.28,1712226206875000
68.56,1712226206890625
81.81,1712226206906250
96.18,1712226206921875
107.62,1712226206937500
111.89,1712226206953125
107.01,1712226206968750
95.02,1712226206984375
81.43,1712226207000000
72.7,1712226207015625
73.09,1712226207031250
82.86,1712226207046875
98.53,1712226207062500
114.85,1712226207078125
127.19,1712226207093750
132.65,1712226207109375
129.96,1712226207125000
118.8,1712226207140625
99.69,1712226207156250
74.69,1712226207171875
48.07,1712226207187500
25.81,1712226207203125
13.64,1712226207218750
14.55,1712226207234375
27.42,1712226207250000
47.87,1712226207265625
70.55,1712226207281250
91.46,1712226207296875
108.66,1712226207312500
121.18,1712226207328125
127.38,1712226207343750
124.33,1712226207359375
109.1,1712226207375000
81.11,1712226207390625
43.77,1712226207406250
3.89,1712226207421875
-31.03,1712226207437500
-56.24,1712226207453125
-71.74,1712226207468750
-81.77,1712226207484375
-92.09,1712226207500000
-106.96,1712226207515625
-127.53,1712226207531250
-152.11,1712226207546875
-178.07,1712226207562500
-203.52,1712226207578125
-227.92,1712226207593750
-251.23,1712226207609375
-272.7,1712226207625000
-290.52,1712226207640625
-302.65,1712226207656250
-308.59,1712226207671875
-310.54,1712226207687500
-312.81,1712226207703125
-319.44,1712226207718750
-331.49,1712226207734375
-345.42,1712226207750000
-354.08,1712226207765625
-349.94,1712226207781250
-329.09,1712226207796875
-293.47,1712226207812500
-250.32,1712226207828125
-208.77,1712226207843750
-175.44,1712226207859375
-151.42,1712226207875000
-131.94,1712226207890625
-108.67,1712226207906250
-73.25,1712226207921875
-20.61,1712226207937500
49.04,1712226207953125
129.96,1712226207968750
212.07,1712226207984375
283.24,1712226208000000
332.25,1712226208015625
351.6,1712226208031250
339.68,1712226208046875
301.13,1712226208062500
245.61,1712226208078125
184.95,1712226208093750
129.95,1712226208109375
87.62,1712226208125000
59.59,1712226208140625
42.4,1712226208156250
29.33,1712226208171875
13.25,1712226208187500
-10.35,1712226208203125
-41.47,1712226208218750
-75.7,1712226208234375
-106.53,1712226208250000
-128.91,1712226208265625
-142.13,1712226208281250
-150.47,1712226208296875
-160.75,1712226208312500
-178.63,1712226208328125
-205.41,1712226208343750
-237.37,1712226208359375
-267.83,1712226208375000
-290.7,1712226208390625
-303.4,1712226208406250
-307.4,1712226208421875
-306.53,1712226208437500
-303.88,1712226208453125
-300.37,1712226208468750
-294.9,1712226208484375
-285.82,1712226208500000
-272.83,1712226208515625
-257.86,1712226208531250
-244.41,1712226208546875
-235.67,1712226208562500
-232.72,1712226208578125
-232.92,1712226208593750
-231.43,1712226208609375
-223.16,1712226208625000
-204.74,1712226208640625
-175.64,1712226208656250
-137.92,1712226208671875
-95.24,1712226208687500
-50.98,1712226208703125
-7.34,1712226208718750
36.55,1712226208734375
82.82,1712226208750000
133.62,1712226208765625
190.02,1712226208781250
251.55,1712226208796875
316.39,1712226208812500
381.6,1712226208828125
443.65,1712226208843750
497.96,1712226208859375
541.22,1712226208875000
570.29,1712226208890625
583.1,1712226208906250
579.82,1712226208921875
563.28,1712226208937500
538.62,1712226208953125
511.51,1712226208968750
486.58,1712226208984375
456.42,1712226209000000
415.53,1712226209015625
361.55,1712226209031250
296.33,1712226209046875
224.06,1712226209062500
148.95,1712226209078125
74.97,1712226209093750
5.77,1712226209109375
-54.65,1712226209125000
-103.81,1712226209140625
-139.49,1712226209156250
-161.96,1712226209171875
-174.07,1712226209187500
-179.86,1712226209203125
-182.78,1712226209218750
-183.82,1712226209234375
-184.99,1712226209250000
-181.91,1712226209265625
-170.83,1712226209281250
-149.03,1712226209296875
-117.14,1712226209312500
-79.3,1712226209328125
-42.04,1712226209343750
-12.29,1712226209359375
5.86,1712226209375000
12.48,1712226209390625
12.51,1712226209406250
13.42,1712226209421875
24.03,1712226209437500
49.65,1712226209453125
89.34,1712226209468750
136.53,1712226209484375
181.45,1712226209500000
214.86,1712226209515625
229.68,1712226209531250
223.14,1712226209546875
196.67,1712226209562500
156.49,1712226209578125
112.15,1712226209593750
74.36,1712226209609375
52.98,1712226209625000
50.25,1712226209640625
63.39,1712226209656250
84.02,1712226209671875
101.5,1712226209687500
106.45,1712226209703125
94.33,1712226209718750
66.65,1712226209734375
29.19,1712226209750000
-10.4,1712226209765625
-45.45,1712226209781250
-71.64,1712226209796875
-88.72,1712226209812500
-98.94,1712226209828125
-105.63,1712226209843750
-111.82,1712226209859375
-119.25,1712226209875000
-128.21,1712226209890625
-137.83,1712226209906250
-147.34,1712226209921875
-153.18,1712226209937500
-153.89,1712226209953125
-148.94,1712226209968750
-137.88,1712226209984375
-120.68,1712226210000000
-98.38,1712226210015625
-73.73,1712226210031250
-50.67,1712226210046875
-32.89,1712226210062500
-21.43,1712226210078125
-14.32,1712226210093750
-6.49,1712226210109375
8.18,1712226210125000
32.35,1712226210140625
62.57,1712226210156250
90.08,1712226210171875
104.78,1712226210187500
100.17,1712226210203125
76.51,1712226210218750
40.18,1712226210234375
1.17,1712226210250000
-30.13,1712226210265625
-47.71,1712226210281250
-51.3,1712226210296875
-44.79,1712226210312500
-32.7,1712226210328125
-17.23,1712226210343750
2.49,1712226210359375
28.36,1712226210375000
61.92,1712226210390625
103.76,1712226210406250
151.24,1712226210421875
199.22,1712226210437500
242.31,1712226210453125
277.44,1712226210468750
304.78,1712226210484375
326.77,1712226210500000
345.5,1712226210515625
350.67,1712226210531250
334.88,1712226210546875
297.74,1712226210562500
247.28,1712226210578125
194.7,1712226210593750
148.42,1712226210609375
112.0,1712226210625000
87.39,1712226210640625
69.82,1712226210656250
55.23,1712226210671875
42.36,1712226210687500
30.54,1712226210703125
18.33,1712226210718750
2.86,1712226210734375
-17.45,1712226210750000
-43.26,1712226210765625
-73.38,1712226210781250
-105.21,1712226210796875
-134.8,1712226210812500
-157.02,1712226210828125
-168.27,1712226210843750
-167.68,1712226210859375
-156.99,1712226210875000
-139.45,1712226210890625
-118.85,1712226210906250
-98.9,1712226210921875
-83.41,1712226210937500
-75.61,1712226210953125
-76.13,1712226210968750
-82.88,1712226210984375
-91.29,1712226211000000
-95.96,1712226211015625
-92.86,1712226211031250
-81.34,1712226211046875
-64.81,1712226211062500
-49.67,1712226211078125
-43.31,1712226211093750
-49.87,1712226211109375
-69.44,1712226211125000
-98.95,1712226211140625
-134.23,1712226211156250
-171.26,1712226211171875
-206.53,1712226211187500
-236.43,1712226211203125
-257.08,1712226211218750
-266.49,1712226211234375
-263.39,1712226211250000
-248.3,1712226211265625
-223.83,1712226211281250
-194.52,1712226211296875
-165.65,1712226211312500
-141.67,1712226211328125
-125.54,1712226211343750
-118.47,1712226211359375
-121.82,1712226211375000
-134.03,1712226211390625
-150.62,1712226211406250
-165.37,1712226211421875
-173.25,1712226211437500
-172.38,1712226211453125
-164.4,1712226211468750
-153.44,1712226211484375
-131.07,1712226211500000
-96.42,1712226211515625
-54.77,1712226211531250
-14.46,1712226211546875
18.67,1712226211562500
42.29,1712226211578125
56.36,1712226211593750
62.19,1712226211609375
61.83,1712226211625000
57.86,1712226211640625
50.91,1712226211656250
42.07,1712226211671875
32.75,1712226211687500
24.77,1712226211703125
18.95,1712226211718750
14.77,1712226211734375
12.81,1712226211750000
13.51,1712226211765625
17.21,1712226211781250
22.32,1712226211796875
27.6,1712226211812500
32.31,1712226211828125
37.04,1712226211843750
42.03,1712226211859375
47.19,1712226211875000
53.49,1712226211890625
61.85,1712226211906250
73.15,1712226211921875
87.57,1712226211937500
106.77,1712226211953125
129.32,1712226211968750
156.12,1712226211984375
186.72,1712226212000000
218.2,1712226212015625
247.12,1712226212031250
268.93,1712226212046875
279.62,1712226212062500
277.04,1712226212078125
262.61,1712226212093750
240.03,1712226212109375
215.41,1712226212125000
193.59,1712226212140625
177.55,1712226212156250
170.88,1712226212171875
175.42,1712226212187500
190.32,1712226212203125
211.59,1712226212218750
233.23,1712226212234375
248.2,1712226212250000
252.61,1712226212265625
245.4,1712226212281250
216.76,1712226212296875
166.83,1712226212312500
104.66,1712226212328125
43.27,1712226212343750
-8.37,1712226212359375
-44.18,1712226212375000
-71.16,1712226212390625
-95.02,1712226212406250
-118.61,1712226212421875
-142.38,1712226212437500
-163.33,1712226212453125
-178.0,1712226212468750
-184.91,1712226212484375
-185.04,1712226212500000
-180.72,1712226212515625
-175.11,1712226212531250
-169.49,1712226212546875
-164.64,1712226212562500
-161.06,1712226212578125
-157.43,1712226212593750
-152.3,1712226212609375
-144.43,1712226212625000
-132.26,1712226212640625
-113.72,1712226212656250
-87.54,1712226212671875
-53.36,1712226212687500
-13.8,1712226212703125
25.89,1712226212718750
60.8,1712226212734375
87.17,1712226212750000
103.39,1712226212765625
110.16,1712226212781250
110.0,1712226212796875
105.8,1712226212812500
100.68,1712226212828125
96.77,1712226212843750
94.96,1712226212859375
95.43,1712226212875000
97.11,1712226212890625
97.86,1712226212906250
95.12,1712226212921875
86.92,1712226212937500
72.29,1712226212953125
51.75,1712226212968750
26.56,1712226212984375
-1.69,1712226213000000
-31.15,1712226213015625
-59.79,1712226213031250
-85.46,1712226213046875
-106.12,1712226213062500
-120.34,1712226213078125
-127.9,1712226213093750
-129.77,1712226213109375
-127.87,1712226213125000
-124.13,1712226213140625
-119.85,1712226213156250
-115.38,1712226213171875
-110.49,1712226213187500
-105.07,1712226213203125
-99.63,1712226213218750
-95.4,1712226213234375
-93.91,1712226213250000
-96.22,1712226213265625
-102.27,1712226213281250
-110.63,1712226213296875
-118.81,1712226213312500
-123.93,1712226213328125
-123.63,1712226213343750
-116.77,1712226213359375
-103.92,1712226213375000
-87.07,1712226213390625
-68.9,1712226213406250
-51.32,1712226213421875
-34.27,1712226213437500
-15.19,1712226213453125
9.85,1712226213468750
43.83,1712226213484375
86.24,1712226213500000
132.07,1712226213515625
173.06,1712226213531250
201.29,1712226213546875
212.97,1712226213562500
210.53,1712226213578125
201.49,1712226213593750
194.63,1712226213609375
195.53,1712226213625000
204.02,1712226213640625
214.73,1712226213656250
220.31,1712226213671875
215.32,1712226213687500
198.68,1712226213703125
173.57,1712226213718750
145.23,1712226213734375
118.23,1712226213750000
94.76,1712226213765625
74.61,1712226213781250
56.38,1712226213796875
39.02,1712226213812500
22.58,1712226213828125
8.07,1712226213843750
-3.47,1712226213859375
-11.93,1712226213875000
-18.35,1712226213890625
-24.44,1712226213906250
-31.52,1712226213921875
-39.6,1712226213937500
-47.19,1712226213953125
-51.91,1712226213968750
-51.85,1712226213984375
-46.62,1712226214000000
-37.69,1712226214015625
-27.71,1712226214031250
-19.28,1712226214046875
-13.83,1712226214062500
-11.22,1712226214078125
-10.09,1712226214093750
-8.83,1712226214109375
-6.25,1712226214125000
-2.05,1712226214140625
3.42,1712226214156250
9.58,1712226214171875
15.91,1712226214187500
22.2,1712226214203125
28.47,1712226214218750
34.82,1712226214234375
41.22,1712226214250000
47.41,1712226214265625
53.04,1712226214281250
57.76,1712226214296875
61.1,1712226214312500
62.03,1712226214328125
58.63,1712226214343750
48.2,1712226214359375
28.16,1712226214375000
-2.54,1712226214390625
-42.19,1712226214406250
-86.4,1712226214421875
-129.41,1712226214437500
-166.41,1712226214453125
-195.17,1712226214468750
-216.2,1712226214484375
-231.34,1712226214500000
-241.9,1712226214515625
-247.59,1712226214531250
-247.1,1712226214546875
-239.84,1712226214562500
-227.37,1712226214578125
-213.22,1712226214593750
-201.37,1712226214609375
-194.1,1712226214625000
-190.84,1712226214640625
-188.92,1712226214656250
-185.13,1712226214671875
-177.3,1712226214687500
-164.72,1712226214703125
-147.42,1712226214718750
-125.36,1712226214734375
-98.45,1712226214750000
-67.26,1712226214765625
-33.72,1712226214781250
-0.92,1712226214796875
27.93,1712226214812500
50.8,1712226214828125
67.3,1712226214843750
78.32,1712226214859375
85.08,1712226214875000
88.28,1712226214890625
88.08,1712226214906250
84.42,1712226214921875
77.39,1712226214937500
67.26,1712226214953125
54.4,1712226214968750
39.14,1712226214984375
22.01,1712226215000000
3.9,1712226215015625
-14.0,1712226215031250
-30.67,1712226215046875
-45.66,1712226215062500
-59.13,1712226215078125
-71.12,1712226215093750
-81.0,1712226215109375
-87.55,1712226215125000
-89.52,1712226215140625
-86.84,1712226215156250
-80.74,1712226215171875
-72.96,1712226215187500
-64.41,1712226215203125
-54.29,1712226215218750
-40.19,1712226215234375
-19.56,1712226215250000
8.58,1712226215265625
42.68,1712226215281250
78.73,1712226215296875
111.42,1712226215312500
135.96,1712226215328125
149.36,1712226215343750
151.0,1712226215359375
142.62,1712226215375000
127.43,1712226215390625
109.34,1712226215406250
92.11,1712226215421875
78.71,1712226215437500
70.9,1712226215453125
69.02,1712226215468750
72.05,1712226215484375
77.72,1712226215500000
82.98,1712226215515625
84.49,1712226215531250
79.39,1712226215546875
66.08,1712226215562500
44.73,1712226215578125
17.33,1712226215593750
-12.97,1712226215609375
-42.92,1712226215625000
-70.23,1712226215640625
-93.93,1712226215656250
-114.04,1712226215671875
-130.54,1712226215687500
-142.36,1712226215703125
-147.09,1712226215718750
-141.58,1712226215734375
-123.32,1712226215750000
-92.05,1712226215765625
-50.75,1712226215781250
-5.21,1712226215796875
37.4,1712226215812500
70.65,1712226215828125
90.74,1712226215843750
97.28,1712226215859375
92.92,1712226215875000
82.0,1712226215890625
68.93,1712226215906250
57.1,1712226215921875
48.63,1712226215937500
44.62,1712226215953125
45.61,1712226215968750
51.71,1712226215984375
62.14,1712226216000000
75.07,1712226216015625
87.53,1712226216031250
96.21,1712226216046875
98.42,1712226216062500
93.05,1712226216078125
80.94,1712226216093750
64.57,1712226216109375
47.27,1712226216125000
32.08,1712226216140625
20.94,1712226216156250
14.42,1712226216171875
12.07,1712226216187500
12.95,1712226216203125
15.95,1712226216218750
19.86,1712226216234375
23.21,1712226216250000
24.5,1712226216265625
22.81,1712226216281250
18.73,1712226216296875
14.72,1712226216312500
14.37,1712226216328125
20.75,1712226216343750
34.39,1712226216359375
52.41,1712226216375000
69.23,1712226216390625
78.86,1712226216406250
77.4,1712226216421875
64.4,1712226216437500
42.58,1712226216453125
16.14,1712226216468750
-10.96,1712226216484375
-36.16,1712226216500000
-58.31,1712226216515625
-77.26,1712226216531250
-93.39,1712226216546875
-107.24,1712226216562500
-119.36,1712226216578125
-130.02,1712226216593750
-139.04,1712226216609375
-145.75,1712226216625000
-149.35,1712226216640625
-149.27,1712226216656250
-145.44,1712226216671875
-138.17,1712226216687500
-127.89,1712226216703125
-115.25,1712226216718750
-101.45,1712226216734375
-88.77,1712226216750000
-80.52,1712226216765625
-79.94,1712226216781250
-88.41,1712226216796875
-103.99,1712226216812500
-121.56,1712226216828125
-134.74,1712226216843750
-138.84,1712226216859375
-133.03,1712226216875000
-120.4,1712226216890625
-105.93,1712226216906250
-93.52,1712226216921875
-83.98,1712226216937500
-75.21,1712226216953125
-64.09,1712226216968750
-48.77,1712226216984375
-29.87,1712226217000000
-9.85,1712226217015625
8.74,1712226217031250
24.77,1712226217046875
38.87,1712226217062500
52.43,1712226217078125
66.12,1712226217093750
79.0,1712226217109375
88.93,1712226217125000
93.75,1712226217140625
92.68,1712226217156250
86.86,1712226217171875
78.88,1712226217187500
71.53,1712226217203125
66.56,1712226217218750
63.99,1712226217234375
62.23,1712226217250000
58.84,1712226217265625
51.77,1712226217281250
40.32,1712226217296875
25.93,1712226217312500
12.18,1712226217328125
3.93,1712226217343750
5.72,1712226217359375
19.98,1712226217375000
45.67,1712226217390625
78.29,1712226217406250
111.27,1712226217421875
138.37,1712226217437500
155.78,1712226217453125
163.23,1712226217468750
163.39,1712226217484375
160.18,1712226217500000
156.93,1712226217515625
155.26,1712226217531250
155.26,1712226217546875
156.16,1712226217562500
156.92,1712226217578125
156.29,1712226217593750
152.58,1712226217609375
143.64,1712226217625000
127.66,1712226217640625
104.3,1712226217656250
75.54,1712226217671875
45.46,1712226217687500
18.72,1712226217703125
-1.25,1712226217718750
-13.52,1712226217734375
-19.65,1712226217750000
-22.71,1712226217765625
-25.8,1712226217781250
-30.92,1712226217796875
-38.57,1712226217812500
-47.95,1712226217828125
-57.32,1712226217843750
-64.54,1712226217859375
-67.45,1712226217875000
-64.5,1712226217890625
-55.24,1712226217906250
-40.55,1712226217921875
-22.34,1712226217937500
-2.97,1712226217953125
15.33,1712226217968750
30.99,1712226217984375
43.35,1712226218000000
52.76,1712226218015625
60.62,1712226218031250
69.1,1712226218046875
80.37,1712226218062500
95.41,1712226218078125
113.29,1712226218093750
131.19,1712226218109375
145.57,1712226218125000
153.67,1712226218140625
154.63,1712226218156250
149.45,1712226218171875
140.09,1712226218187500
128.33,1712226218203125
115.08,1712226218218750
100.65,1712226218234375
85.31,1712226218250000
69.78,1712226218265625
54.94,1712226218281250
41.14,1712226218296875
27.83,1712226218312500
13.73,1712226218328125
-2.15,1712226218343750
-19.74,1712226218359375
-37.72,1712226218375000
-54.3,1712226218390625
-68.41,1712226218406250
-80.42,1712226218421875
-91.82,1712226218437500
-104.09,1712226218453125
-117.54,1712226218468750
-130.88,1712226218484375
-141.77,1712226218500000
-148.27,1712226218515625
-150.08,1712226218531250
-148.97,1712226218546875
-148.14,1712226218562500
-150.92,1712226218578125
-159.5,1712226218593750
-174.28,1712226218609375
-193.89,1712226218625000
-215.51,1712226218640625
-235.48,1712226218656250
-249.87,1712226218671875
-255.17,1712226218687500
-249.25,1712226218703125
-232.12,1712226218718750
-206.32,1712226218734375
-176.31,1712226218750000
-147.23,1712226218765625
-123.56,1712226218781250
-107.59,1712226218796875
-98.96,1712226218812500
-94.65,1712226218828125
-90.03,1712226218843750
-80.27,1712226218859375
-62.01,1712226218875000
-34.75,1712226218890625
-1.53,1712226218906250
31.69,1712226218921875
58.04,1712226218937500
72.58,1712226218953125
74.95,1712226218968750
70.01,1712226218984375
66.32,1712226219000000
72.83,1712226219015625
95.11,1712226219031250
132.68,1712226219046875
178.58,1712226219062500
221.55,1712226219078125
249.7,1712226219093750
254.88,1712226219109375
233.98,1712226219125000
188.9,1712226219140625
125.57,1712226219156250
52.9,1712226219171875
-18.44,1712226219187500
-77.56,1712226219203125
-115.54,1712226219218750
-128.23,1712226219234375
-116.84,1712226219250000
-89.86,1712226219265625
-61.34,1712226219281250
-45.7,1712226219296875
-51.32,1712226219312500
-76.65,1712226219328125
-111.37,1712226219343750
-141.03,1712226219359375
-153.01,1712226219375000
-137.98,1712226219390625
-93.69,1712226219406250
-25.1,1712226219421875
57.31,1712226219437500
140.39,1712226219453125
211.02,1712226219468750
258.44,1712226219484375
277.23,1712226219500000
269.72,1712226219515625
249.22,1712226219531250
233.16,1712226219546875
235.46,1712226219562500
260.86,1712226219578125
304.4,1712226219593750
355.14,1712226219609375
401.12,1712226219625000
433.87,1712226219640625
430.49,1712226219656250
380.47,1712226219671875
290.75,1712226219687500
182.13,1712226219703125
75.09,1712226219718750
-19.78,1712226219734375
-100.78,1712226219750000
-169.51,1712226219765625
-226.34,1712226219781250
-270.34,1712226219796875
-298.2,1712226219812500
-309.25,1712226219828125
-307.7,1712226219843750
-301.19,1712226219859375
-296.25,1712226219875000
-294.82,1712226219890625
-294.18,1712226219906250
-290.82,1712226219921875
-279.92,1712226219937500
-258.51,1712226219953125
-228.3,1712226219968750
-194.74,1712226219984375
-164.1,1712226220000000
-139.46,1712226220015625
-119.71,1712226220031250
-101.52,1712226220046875
-80.66,1712226220062500
-54.99,1712226220078125
-23.96,1712226220093750
11.24,1712226220109375
48.46,1712226220125000
85.51,1712226220140625
122.07,1712226220156250
159.42,1712226220171875
190.5,1712226220187500
210.32,1712226220203125
216.24,1712226220218750
209.94,1712226220234375
196.67,1712226220250000
182.34,1712226220265625
170.2,1712226220281250
160.65,1712226220296875
151.51,1712226220312500
139.7,1712226220328125
124.22,1712226220343750
105.67,1712226220359375
85.36,1712226220375000
63.99,1712226220390625
43.24,1712226220406250
20.23,1712226220421875
-6.23,1712226220437500
-34.7,1712226220453125
-61.22,1712226220468750
-79.62,1712226220484375
-84.67,1712226220500000
-74.84,1712226220515625
-53.29,1712226220531250
-26.76,1712226220546875
-3.45,1712226220562500
10.95,1712226220578125
14.34,1712226220593750
7.96,1712226220609375
-5.63,1712226220625000
-23.12,1712226220640625
-42.24,1712226220656250
-61.99,1712226220671875
-81.76,1712226220687500
-100.25,1712226220703125
-114.22,1712226220718750
-119.99,1712226220734375
-115.38,1712226220750000
-100.6,1712226220765625
-78.4,1712226220781250
-53.03,1712226220796875
-28.34,1712226220812500
-6.35,1712226220828125
12.64,1712226220843750
29.62,1712226220859375
45.5,1712226220875000
60.01,1712226220890625
72.23,1712226220906250
81.2,1712226220921875
86.22,1712226220937500
86.92,1712226220953125
82.93,1712226220968750
73.53,1712226220984375
58.4,1712226221000000
38.07,1712226221015625
14.33,1712226221031250
-9.45,1712226221046875
-29.37,1712226221062500
-42.45,1712226221078125
-47.77,1712226221093750
-46.94,1712226221109375
-43.42,1712226221125000
-40.51,1712226221140625
-39.95,1712226221156250
-41.24,1712226221171875
-41.9,1712226221187500
-39.28,1712226221203125
-32.52,1712226221218750
-23.56,1712226221234375
-16.88,1712226221250000
-17.73,1712226221265625
-29.37,1712226221281250
-48.33,1712226221296875
-67.82,1712226221312500
-79.63,1712226221328125
-79.64,1712226221343750
-70.79,1712226221359375
-60.59,1712226221375000
-55.93,1712226221390625
-58.99,1712226221406250
-66.09,1712226221421875
-70.73,1712226221437500
-67.6,1712226221453125
-55.45,1712226221468750
-37.85,1712226221484375
-20.96,1712226221500000
-9.88,1712226221515625
-6.3,1712226221531250
-9.58,1712226221546875
-13.95,1712226221562500
-14.05,1712226221578125
-7.22,1712226221593750
5.99,1712226221609375
22.5,1712226221625000
38.49,1712226221640625
51.22,1712226221656250
59.73,1712226221671875
64.59,1712226221687500
67.31,1712226221703125
68.8,1712226221718750
69.09,1712226221734375
67.63,1712226221750000
63.66,1712226221765625
56.8,1712226221781250
48.47,1712226221796875
40.29,1712226221812500
33.79,1712226221828125
30.05,1712226221843750
29.0,1712226221859375
29.66,1712226221875000
30.62,1712226221890625
30.54,1712226221906250
28.66,1712226221921875
25.08,1712226221937500
20.43,1712226221953125
15.63,1712226221968750
11.67,1712226221984375
8.98,1712226222000000
7.56,1712226222015625
7.07,1712226222031250
7.05,1712226222046875
7.11,1712226222062500
7.13,1712226222078125
7.22,1712226222093750
7.71,1712226222109375
9.09,1712226222125000
11.6,1712226222140625
15.3,1712226222156250
20.04,1712226222171875
25.57,1712226222187500
31.61,1712226222203125
37.88,1712226222218750
43.96,1712226222234375
49.36,1712226222250000
53.66,1712226222265625
56.64,1712226222281250
58.45,1712226222296875
59.64,1712226222312500
60.89,1712226222328125
62.78,1712226222343750
65.42,1712226222359375
68.39,1712226222375000
70.86,1712226222390625
71.82,1712226222406250
70.35,1712226222421875
65.83,1712226222437500
58.09,1712226222453125
47.36,1712226222468750
34.32,1712226222484375
19.98,1712226222500000
5.5,1712226222515625
-7.94,1712226222531250
-19.42,1712226222546875
-28.48,1712226222562500
-35.27,1712226222578125
-40.41,1712226222593750
-44.88,1712226222609375
-49.67,1712226222625000
-55.46,1712226222640625
-62.42,1712226222656250
-70.17,1712226222671875
-77.95,1712226222687500
-84.84,1712226222703125
-90.14,1712226222718750
-93.51,1712226222734375
-95.03,1712226222750000
-95.07,1712226222765625
-94.11,1712226222781250
-92.46,1712226222796875
-90.19,1712226222812500
-87.22,1712226222828125
-83.39,1712226222843750
-78.81,1712226222859375
-73.8,1712226222875000
-68.95,1712226222890625
-64.82,1712226222906250
-61.7,1712226222921875
-59.55,1712226222937500
-57.98,1712226222953125
-56.46,1712226222968750
-54.56,1712226222984375
-52.16,1712226223000000
-49.52,1712226223015625
-47.19,1712226223031250
-45.77,1712226223046875
-45.79,1712226223062500
-47.55,1712226223078125
-51.17,1712226223093750
-56.69,1712226223109375
-64.09,1712226223125000
-73.29,1712226223140625
-83.97,1712226223156250
-95.44,1712226223171875
-106.64,1712226223187500
-116.46,1712226223203125
-124.04,1712226223218750
-129.2,1712226223234375
-132.46,1712226223250000
-134.74,1712226223265625
-136.85,1712226223281250
-139.01,1712226223296875
-140.74,1712226223312500
-141.13,1712226223328125
-139.4,1712226223343750
-135.3,1712226223359375
-129.28,1712226223375000
-122.2,1712226223390625
-114.73,1712226223406250
-106.92,1712226223421875
-98.08,1712226223437500
-87.12,1712226223453125
-73.21,1712226223468750
-56.3,1712226223484375
-37.23,1712226223500000
-17.46,1712226223515625
1.56,1712226223531250
18.88,1712226223546875
34.22,1712226223562500
47.77,1712226223578125
59.63,1712226223593750
69.44,1712226223609375
76.34,1712226223625000
79.19,1712226223640625
77.14,1712226223656250
70.0,1712226223671875
58.39,1712226223687500
43.46,1712226223703125
26.44,1712226223718750
8.21,1712226223734375
-10.79,1712226223750000
-30.34,1712226223765625
-49.95,1712226223781250
-68.51,1712226223796875
-84.23,1712226223812500
-95.13,1712226223828125
-99.7,1712226223843750
-97.48,1712226223859375
-89.14,1712226223875000
-76.06,1712226223890625
-59.59,1712226223906250
-40.51,1712226223921875
-19.04,1712226223937500
4.83,1712226223953125
30.73,1712226223968750
57.62,1712226223984375
84.0,1712226224000000
108.36,1712226224015625
129.76,1712226224031250
147.96,1712226224046875
163.18,1712226224062500
175.61,1712226224078125
185.15,1712226224093750
191.4,1712226224109375
194.06,1712226224125000
193.39,1712226224140625
190.27,1712226224156250
185.98,1712226224171875
181.72,1712226224187500
178.07,1712226224203125
174.81,1712226224218750
171.22,1712226224234375
166.41,1712226224250000
159.79,1712226224265625
151.23,1712226224281250
141.07,1712226224296875
129.9,1712226224312500
118.43,1712226224328125
107.36,1712226224343750
97.16,1712226224359375
87.97,1712226224375000
79.5,1712226224390625
71.06,1712226224406250
61.8,1712226224421875
51.13,1712226224437500
39.09,1712226224453125
26.39,1712226224468750
14.16,1712226224484375
3.48,1712226224500000
-5.02,1712226224515625
-11.33,1712226224531250
-15.83,1712226224546875
-19.02,1712226224562500
-21.25,1712226224578125
-22.69,1712226224593750
-23.36,1712226224609375
-23.44,1712226224625000
-23.17,1712226224640625
-22.92,1712226224656250
-23.0,1712226224671875
-23.5,1712226224687500
-24.24,1712226224703125
-24.91,1712226224718750
-25.13,1712226224734375
-24.65,1712226224750000
-23.48,1712226224765625
-21.85,1712226224781250
-20.2,1712226224796875
-18.97,1712226224812500
-18.43,1712226224828125
-18.59,1712226224843750
-19.14,1712226224859375
-19.62,1712226224875000
-19.53,1712226224890625
-18.56,1712226224906250
-16.69,1712226224921875
-14.11,1712226224937500
-11.14,1712226224953125
-8.1,1712226224968750
-5.21,1712226224984375
-2.56,1712226225000000
-0.2,1712226225015625
1.83,1712226225031250
3.43,1712226225046875
4.46,1712226225062500
4.79,1712226225078125
4.36,1712226225093750
3.16,1712226225109375
1.26,1712226225125000
-1.24,1712226225140625
-4.27,1712226225156250
-7.68,1712226225171875
-11.37,1712226225187500
-15.16,1712226225203125
-18.87,1712226225218750
-22.37,1712226225234375
-25.56,1712226225250000
-28.43,1712226225265625
-30.96,1712226225281250
-33.14,1712226225296875
-34.82,1712226225312500
-35.75,1712226225328125
-35.56,1712226225343750
-33.97,1712226225359375
-30.83,1712226225375000
-26.31,1712226225390625
-20.74,1712226225406250
-14.65,1712226225421875
-8.54,1712226225437500
-2.7,1712226225453125
2.75,1712226225468750
7.8,1712226225484375
12.41,1712226225500000
16.48,1712226225515625
19.8,1712226225531250
22.2,1712226225546875
23.64,1712226225562500
24.19,1712226225578125
24.12,1712226225593750
23.67,1712226225609375
23.08,1712226225625000
22.56,1712226225640625
22.26,1712226225656250
22.28,1712226225671875
22.67,1712226225687500
23.33,1712226225703125
23.97,1712226225718750
24.25,1712226225734375
23.78,1712226225750000
22.31,1712226225765625
19.83,1712226225781250
16.53,1712226225796875
12.75,1712226225812500
8.86,1712226225828125
5.14,1712226225843750
1.7,1712226225859375
-1.41,1712226225875000
-4.29,1712226225890625
-7.0,1712226225906250
-9.63,1712226225921875
-12.3,1712226225937500
-15.14,1712226225953125
-18.23,1712226225968750
-21.57,1712226225984375
-24.98,1712226226000000
-28.11,1712226226015625
-30.49,1712226226031250
-31.68,1712226226046875
-31.37,1712226226062500
-29.55,1712226226078125
-26.45,1712226226093750
-22.52,1712226226109375
-18.27,1712226226125000
-14.1,1712226226140625
-10.28,1712226226156250
-6.98,1712226226171875
-4.25,1712226226187500
-2.1,1712226226203125
-0.5,1712226226218750
0.64,1712226226234375
1.43,1712226226250000
2.02,1712226226265625
2.51,1712226226281250
2.96,1712226226296875
3.36,1712226226312500
3.67,1712226226328125
3.84,1712226226343750
3.82,1712226226359375
3.65,1712226226375000
3.4,1712226226390625
3.19,1712226226406250
3.18,1712226226421875
3.53,1712226226437500
4.26,1712226226453125
5.29,1712226226468750
6.39,1712226226484375
7.27,1712226226500000
7.73,1712226226515625
7.69,1712226226531250
7.23,1712226226546875
6.48,1712226226562500
5.52,1712226226578125
4.43,1712226226593750
3.25,1712226226609375
2.04,1712226226625000
0.88,1712226226640625
-0.27,1712226226656250
-1.56,1712226226671875
-3.31,1712226226687500
-5.82,1712226226703125
-9.2,1712226226718750
-13.25,1712226226734375
-17.41,1712226226750000
-20.96,1712226226765625
-23.22,1712226226781250
-23.77,1712226226796875
-22.55,1712226226812500
-19.83,1712226226828125
-16.06,1712226226843750
-11.74,1712226226859375
-7.25,1712226226875000
-2.81,1712226226890625
1.49,1712226226906250
5.66,1712226226921875
9.67,1712226226937500
13.45,1712226226953125
16.84,1712226226968750
19.64,1712226226984375
21.73,1712226227000000
23.1,1712226227015625
23.88,1712226227031250
24.26,1712226227046875
24.41,1712226227062500
24.39,1712226227078125
24.16,1712226227093750
23.65,1712226227109375
22.82,1712226227125000
21.78,1712226227140625
20.67,1712226227156250
19.72,1712226227171875
19.06,1712226227187500
18.7,1712226227203125
18.53,1712226227218750
18.36,1712226227234375
18.04,1712226227250000
17.46,1712226227265625
16.59,1712226227281250
15.39,1712226227296875
13.84,1712226227312500
11.92,1712226227328125
9.7,1712226227343750
7.33,1712226227359375
5.0,1712226227375000
2.92,1712226227390625
1.18,1712226227406250
-0.25,1712226227421875
-1.55,1712226227437500
-2.9,1712226227453125
-4.48,1712226227468750
-6.47,1712226227484375
-8.99,1712226227500000
-12.13,1712226227515625
-15.79,1712226227531250
-19.72,1712226227546875
-23.41,1712226227562500
-26.32,1712226227578125
-27.94,1712226227593750
-28.07,1712226227609375
-26.78,1712226227625000
-24.36,1712226227640625
-21.16,1712226227656250
-17.49,1712226227671875
-13.58,1712226227687500
-9.58,1712226227703125
-5.66,1712226227718750
-1.93,1712226227734375
1.57,1712226227750000
4.82,1712226227765625
7.89,1712226227781250
10.76,1712226227796875
13.33,1712226227812500
15.39,1712226227828125
16.77,1712226227843750
17.35,1712226227859375
17.19,1712226227875000
16.5,1712226227890625
15.55,1712226227906250
14.6,1712226227921875
13.9,1712226227937500
13.58,1712226227953125
13.72,1712226227968750
14.23,1712226227984375
14.93,1712226228000000
15.5,1712226228015625
15.65,1712226228031250
15.18,1712226228046875
14.11,1712226228062500
12.67,1712226228078125
11.15,1712226228093750
9.82,1712226228109375
8.78,1712226228125000
7.89,1712226228140625
6.89,1712226228156250
5.57,1712226228171875
3.84,1712226228187500
1.86,1712226228203125
-0.14,1712226228218750
-1.94,1712226228234375
-3.47,1712226228250000
-4.88,1712226228265625
-6.39,1712226228281250
-8.23,1712226228296875
-10.45,1712226228312500
-12.93,1712226228328125
-15.39,1712226228343750
-17.47,1712226228359375
-18.85,1712226228375000
-19.26,1712226228390625
-18.52,1712226228406250
-16.63,1712226228421875
-13.81,1712226228437500
-10.48,1712226228453125
-7.16,1712226228468750
-4.3,1712226228484375
-2.05,1712226228500000
-0.27,1712226228515625
1.47,1712226228531250
3.51,1712226228546875
5.94,1712226228562500
8.49,1712226228578125
10.65,1712226228593750
12.01,1712226228609375
12.41,1712226228625000
12.11,1712226228640625
11.56,1712226228656250
11.23,1712226228671875
11.37,1712226228687500
12.0,1712226228703125
12.94,1712226228718750
13.96,1712226228734375
14.95,1712226228750000
15.85,1712226228765625
16.61,1712226228781250
17.15,1712226228796875
17.3,1712226228812500
16.86,1712226228828125
15.8,1712226228843750
14.24,1712226228859375
12.48,1712226228875000
10.89,1712226228890625
9.73,1712226228906250
9.03,1712226228921875
8.63,1712226228937500
8.27,1712226228953125
7.71,1712226228968750
6.85,1712226228984375
5.73,1712226229000000
4.45,1712226229015625
3.11,1712226229031250
1.79,1712226229046875
0.55,1712226229062500
-0.57,1712226229078125
-1.6,1712226229093750
-2.6,1712226229109375
-3.66,1712226229125000
-4.91,1712226229140625
-6.42,1712226229156250
-8.2,1712226229171875
-10.19,1712226229187500
-12.25,1712226229203125
-14.18,1712226229218750
-15.76,1712226229234375
-16.73,1712226229250000
-16.84,1712226229265625
-15.95,1712226229281250
-14.04,1712226229296875
-11.3,1712226229312500
-8.02,1712226229328125
-4.52,1712226229343750
-1.06,1712226229359375
2.15,1712226229375000
4.99,1712226229390625
7.35,1712226229406250
9.16,1712226229421875
10.41,1712226229437500
11.19,1712226229453125
11.71,1712226229468750
12.16,1712226229484375
12.67,1712226229500000
13.24,1712226229515625
13.72,1712226229531250
13.93,1712226229546875
13.74,1712226229562500
13.19,1712226229578125
12.46,1712226229593750
11.77,1712226229609375
11.33,1712226229625000
11.19,1712226229640625
11.28,1712226229656250
11.45,1712226229671875
11.49,1712226229687500
11.26,1712226229703125
10.67,1712226229718750
9.76,1712226229734375
8.62,1712226229750000
7.39,1712226229765625
6.2,1712226229781250
5.11,1712226229796875
4.13,1712226229812500
3.23,1712226229828125
2.32,1712226229843750
1.38,1712226229859375
0.34,1712226229875000
-0.79,1712226229890625
-2.06,1712226229906250
-3.49,1712226229921875
-5.12,1712226229937500
-6.94,1712226229953125
-8.9,1712226229968750
-10.92,1712226229984375
-12.92,1712226230000000
-14.88,1712226230015625
-16.81,1712226230031250
-18.71,1712226230046875
-20.49,1712226230062500
-21.95,1712226230078125
-22.84,1712226230093750
-22.93,1712226230109375
-22.15,1712226230125000
-20.58,1712226230140625
-18.47,1712226230156250
-16.05,1712226230171875
-13.49,1712226230187500
-10.79,1712226230203125
-7.97,1712226230218750
-5.06,1712226230234375
-2.27,1712226230250000
0.11,1712226230265625
1.79,1712226230281250
2.65,1712226230296875
2.84,1712226230312500
2.68,1712226230328125
2.57,1712226230343750
2.82,1712226230359375
3.52,1712226230375000
4.53,1712226230390625
5.6,1712226230406250
6.48,1712226230421875
6.99,1712226230437500
7.1,1712226230453125
6.92,1712226230468750
6.54,1712226230484375
6.03,1712226230500000
5.36,1712226230515625
4.5,1712226230531250
3.43,1712226230546875
2.29,1712226230562500
1.29,1712226230578125
0.65,1712226230593750
0.45,1712226230609375
0.58,1712226230625000
0.77,1712226230640625
0.71,1712226230656250
0.17,1712226230671875
-0.86,1712226230687500
-2.18,1712226230703125
-3.5,1712226230718750
-4.59,1712226230734375
-5.37,1712226230750000
-5.97,1712226230765625
-6.66,1712226230781250
-7.73,1712226230796875
-9.34,1712226230812500
-11.47,1712226230828125
-13.89,1712226230843750
-16.3,1712226230859375
-18.35,1712226230875000
-19.77,1712226230890625
-20.4,1712226230906250
-20.17,1712226230921875
-19.09,1712226230937500
-17.24,1712226230953125
-14.76,1712226230968750
-11.88,1712226230984375
-8.86,1712226231000000
-6.0,1712226231015625
-3.49,1712226231031250
-1.42,1712226231046875
0.26,1712226231062500
1.65,1712226231078125
2.86,1712226231093750
3.96,1712226231109375
4.96,1712226231125000
5.89,1712226231140625
6.78,1712226231156250
7.69,1712226231171875
8.63,1712226231187500
9.55,1712226231203125
10.28,1712226231218750
10.68,1712226231234375
10.63,1712226231250000
10.14,1712226231265625
9.38,1712226231281250
8.52,1712226231296875
7.7,1712226231312500
6.97,1712226231328125
6.24,1712226231343750
5.43,1712226231359375
4.45,1712226231375000
3.32,1712226231390625
2.13,1712226231406250
0.99,1712226231421875
-0.09,1712226231437500
-1.14,1712226231453125
-2.25,1712226231468750
-3.48,1712226231484375
-4.81,1712226231500000
-6.11,1712226231515625
-7.22,1712226231531250
-7.99,1712226231546875
-8.42,1712226231562500
-8.66,1712226231578125
-8.98,1712226231593750
-9.64,1712226231609375
-10.81,1712226231625000
-12.42,1712226231640625
-14.2,1712226231656250
-15.79,1712226231671875
-16.76,1712226231687500
-16.82,1712226231703125
-15.87,1712226231718750
-14.03,1712226231734375
-11.58,1712226231750000
-8.9,1712226231765625
-6.34,1712226231781250
-4.12,1712226231796875
-2.32,1712226231812500
-0.88,1712226231828125
0.32,1712226231843750
1.41,1712226231859375
2.53,1712226231875000
3.74,1712226231890625
5.08,1712226231906250
6.5,1712226231921875
7.88,1712226231937500
9.03,1712226231953125
9.81,1712226231968750
10.14,1712226231984375
10.12,1712226232000000
9.93,1712226232015625
9.79,1712226232031250
9.86,1712226232046875
10.18,1712226232062500
10.66,1712226232078125
11.19,1712226232093750
11.62,1712226232109375
11.84,1712226232125000
11.77,1712226232140625
11.38,1712226232156250
10.68,1712226232171875
9.73,1712226232187500
8.63,1712226232203125
7.5,1712226232218750
6.41,1712226232234375
5.34,1712226232250000
4.24,1712226232265625
3.04,1712226232281250
1.71,1712226232296875
0.28,1712226232312500
-1.12,1712226232328125
-2.38,1712226232343750
-3.45,1712226232359375
-4.35,1712226232375000
-5.26,1712226232390625
-6.43,1712226232406250
-8.1,1712226232421875
-10.35,1712226232437500
-12.99,1712226232453125
-15.57,1712226232468750
-17.59,1712226232484375
-18.55,1712226232500000
-18.24,1712226232515625
-16.73,1712226232531250
-14.36,1712226232546875
-11.6,1712226232562500
-8.92,1712226232578125
-6.64,1712226232593750
-4.86,1712226232609375
-3.48,1712226232625000
-2.28,1712226232640625
-1.06,1712226232656250
0.31,1712226232671875
1.79,1712226232687500
3.29,1712226232703125
4.7,1712226232718750
5.95,1712226232734375
7.05,1712226232750000
8.09,1712226232765625
9.14,1712226232781250
10.24,1712226232796875
11.42,1712226232812500
12.74,1712226232828125
14.24,1712226232843750
15.9,1712226232859375
17.58,1712226232875000
19.08,1712226232890625
20.16,1712226232906250
20.7,1712226232921875
20.76,1712226232937500
20.61,1712226232953125
20.6,1712226232968750
21.02,1712226232984375
21.94,1712226233000000
23.13,1712226233015625
24.14,1712226233031250
24.36,1712226233046875
23.28,1712226233062500
20.64,1712226233078125
16.65,1712226233093750
11.91,1712226233109375
7.3,1712226233125000
3.6,1712226233140625
1.25,1712226233156250
0.12,1712226233171875
-0.4,1712226233187500
-1.12,1712226233203125
-2.7,1712226233218750
-5.43,1712226233234375
-9.05,1712226233250000
-12.95,1712226233265625
-16.28,1712226233281250
-18.24,1712226233296875
-18.33,1712226233312500
-16.42,1712226233328125
-12.92,1712226233343750
-8.69,1712226233359375
-4.9,1712226233375000
-2.71,1712226233390625
-2.99,1712226233406250
-6.04,1712226233421875
-11.45,1712226233437500
-18.19,1712226233453125
-24.84,1712226233468750
-30.01,1712226233484375
-32.75,1712226233500000
-32.81,1712226233515625
-30.68,1712226233531250
-27.34,1712226233546875
-23.9,1712226233562500
-21.15,1712226233578125
-19.41,1712226233593750
-18.34,1712226233609375
-17.28,1712226233625000
-15.44,1712226233640625
-12.17,1712226233656250
-7.13,1712226233671875
-0.44,1712226233687500
7.27,1712226233703125
14.92,1712226233718750
21.23,1712226233734375
25.49,1712226233750000
27.58,1712226233765625
28.15,1712226233781250
28.36,1712226233796875
29.5,1712226233812500
32.5,1712226233828125
37.54,1712226233843750
43.9,1712226233859375
50.22,1712226233875000
55.41,1712226233890625
58.56,1712226233906250
59.15,1712226233921875
57.12,1712226233937500
52.9,1712226233953125
47.47,1712226233968750
42.14,1712226233984375
38.27,1712226234000000
36.62,1712226234015625
37.67,1712226234031250
40.15,1712226234046875
41.06,1712226234062500
36.78,1712226234078125
25.31,1712226234093750
8.23,1712226234109375
-9.02,1712226234125000
-19.32,1712226234140625
-17.23,1712226234156250
-0.72,1712226234171875
26.86,1712226234187500
58.39,1712226234203125
86.31,1712226234218750
105.75,1712226234234375
116.01,1712226234250000
119.7,1712226234265625
120.72,1712226234281250
115.72,1712226234296875
103.59,1712226234312500
86.51,1712226234328125
70.13,1712226234343750
60.22,1712226234359375
58.2,1712226234375000
59.91,1712226234390625
58.44,1712226234406250
48.42,1712226234421875
28.86,1712226234437500
4.32,1712226234453125
-18.8,1712226234468750
-35.74,1712226234484375
-45.26,1712226234500000
-49.67,1712226234515625
-52.7,1712226234531250
-57.33,1712226234546875
-64.57,1712226234562500
-73.45,1712226234578125
-80.7,1712226234593750
-82.79,1712226234609375
-78.01,1712226234625000
-66.34,1712226234640625
-49.91,1712226234656250
-32.26,1712226234671875
-17.27,1712226234687500
-7.94,1712226234703125
-5.47,1712226234718750
-8.49,1712226234734375
-14.28,1712226234750000
-20.16,1712226234765625
-24.57,1712226234781250
-27.74,1712226234796875
-30.73,1712226234812500
-34.46,1712226234828125
-39.09,1712226234843750
-44.03,1712226234859375
-48.37,1712226234875000
-51.92,1712226234890625
-55.78,1712226234906250
-60.07,1712226234921875
-65.79,1712226234937500
-73.36,1712226234953125
-82.11,1712226234968750
-90.36,1712226234984375
-96.12,1712226235000000
-97.76,1712226235015625
-94.8,1712226235031250
-87.96,1712226235046875
-78.63,1712226235062500
-68.49,1712226235078125
-58.53,1712226235093750
-48.82,1712226235109375
-38.82,1712226235125000
-27.95,1712226235140625
-16.1,1712226235156250
-3.83,1712226235171875
7.77,1712226235187500
17.63,1712226235203125
24.85,1712226235218750
29.22,1712226235234375
31.16,1712226235250000
31.44,1712226235265625
30.74,1712226235281250
29.47,1712226235296875
27.67,1712226235312500
25.21,1712226235328125
22.03,1712226235343750
18.13,1712226235359375
13.82,1712226235375000
9.54,1712226235390625
5.75,1712226235406250
2.74,1712226235421875
0.5,1712226235437500
-1.25,1712226235453125
-2.96,1712226235468750
-5.04,1712226235484375
-7.76,1712226235500000
-11.05,1712226235515625
-14.56,1712226235531250
-17.8,1712226235546875
-20.4,1712226235562500
-22.2,1712226235578125
-23.28,1712226235593750
-23.78,1712226235609375
-23.75,1712226235625000
-23.17,1712226235640625
-21.89,1712226235656250
-19.94,1712226235671875
-17.5,1712226235687500
-14.96,1712226235703125
-12.72,1712226235718750
-11.03,1712226235734375
-9.9,1712226235750000
-9.09,1712226235765625
-8.28,1712226235781250
-7.23,1712226235796875
-5.88,1712226235812500
-4.35,1712226235828125
-2.87,1712226235843750
-1.71,1712226235859375
-1.07,1712226235875000
-1.11,1712226235890625
-1.86,1712226235906250
-3.27,1712226235921875
-5.2,1712226235937500
-7.43,1712226235953125
-9.8,1712226235968750
-12.16,1712226235984375
-14.47,1712226236000000
-16.77,1712226236015625
-19.28,1712226236031250
-22.17,1712226236046875
-25.56,1712226236062500
-29.56,1712226236078125
-34.13,1712226236093750
-39.16,1712226236109375
-44.54,1712226236125000
-50.11,1712226236140625
-55.82,1712226236156250
-61.69,1712226236171875
-67.59,1712226236187500
-73.17,1712226236203125
-78.0,1712226236218750
-81.62,1712226236234375
-83.69,1712226236250000
-84.17,1712226236265625
-83.16,1712226236281250
-81.09,1712226236296875
-78.71,1712226236312500
-76.58,1712226236328125
-75.09,1712226236343750
-74.45,1712226236359375
-74.66,1712226236375000
-75.53,1712226236390625
-76.8,1712226236406250
-77.78,1712226236421875
-77.8,1712226236437500
-76.09,1712226236453125
-71.32,1712226236468750
-61.91,1712226236484375
-46.75,1712226236500000
-26.06,1712226236515625
-1.83,1712226236531250
22.45,1712226236546875
43.49,1712226236562500
59.12,1712226236578125
67.28,1712226236593750
67.37,1712226236609375
60.6,1712226236625000
49.17,1712226236640625
35.45,1712226236656250
22.2,1712226236671875
13.2,1712226236687500
13.73,1712226236703125
28.14,1712226236718750
58.17,1712226236734375
101.68,1712226236750000
152.76,1712226236765625
203.93,1712226236781250
249.44,1712226236796875
287.92,1712226236812500
316.94,1712226236828125
337.92,1712226236843750
351.95,1712226236859375
357.76,1712226236875000
352.25,1712226236890625
332.95,1712226236906250
300.37,1712226236921875
257.84,1712226236937500
209.36,1712226236953125
156.6,1712226236968750
98.97,1712226236984375
35.02,1712226237000000
-33.39,1712226237015625
-97.78,1712226237031250
-144.28,1712226237046875
-159.54,1712226237062500
-138.13,1712226237078125
-86.91,1712226237093750
-23.51,1712226237109375
31.53,1712226237125000
62.68,1712226237140625
65.18,1712226237156250
45.15,1712226237171875
14.94,1712226237187500
-13.42,1712226237203125
-32.62,1712226237218750
-41.18,1712226237234375
-41.66,1712226237250000
-37.51,1712226237265625
-31.64,1712226237281250
-26.16,1712226237296875
-22.95,1712226237312500
-23.94,1712226237328125
-30.93,1712226237343750
-44.7,1712226237359375
-64.43,1712226237375000
-87.94,1712226237390625
-112.16,1712226237406250
-134.22,1712226237421875
-152.29,1712226237437500
-165.51,1712226237453125
-173.61,1712226237468750
-176.49,1712226237484375
-174.28,1712226237500000
-167.99,1712226237515625
-159.74,1712226237531250
-152.23,1712226237546875
-147.97,1712226237562500
-148.27,1712226237578125
-152.61,1712226237593750
-158.47,1712226237609375
-162.27,1712226237625000
-160.35,1712226237640625
-150.47,1712226237656250
-132.01,1712226237671875
-105.73,1712226237687500
-73.77,1712226237703125
-39.91,1712226237718750
-9.31,1712226237734375
13.06,1712226237750000
24.29,1712226237765625
25.26,1712226237781250
20.01,1712226237796875
14.79,1712226237812500
15.78,1712226237828125
26.49,1712226237843750
46.08,1712226237859375
69.47,1712226237875000
90.51,1712226237890625
104.91,1712226237906250
111.93,1712226237921875
112.81,1712226237937500
109.7,1712226237953125
104.63,1712226237968750
101.74,1712226237984375
104.03,1712226238000000
110.99,1712226238015625
119.91,1712226238031250
124.77,1712226238046875
125.03,1712226238062500
121.15,1712226238078125
112.72,1712226238093750
99.52,1712226238109375
80.28,1712226238125000
53.88,1712226238140625
18.81,1712226238156250
-24.33,1712226238171875
-72.3,1712226238187500
-120.33,1712226238203125
-165.07,1712226238218750
-205.21,1712226238234375
-240.82,1712226238250000
-272.08,1712226238265625
-286.23,1712226238281250
-274.04,1712226238296875
-233.49,1712226238312500
-171.92,1712226238328125
-102.44,1712226238343750
-38.52,1712226238359375
10.44,1712226238375000
40.67,1712226238390625
53.8,1712226238406250
55.22,1712226238421875
50.04,1712226238437500
41.23,1712226238453125
32.38,1712226238468750
26.36,1712226238484375
24.94,1712226238500000
29.0,1712226238515625
38.71,1712226238531250
53.73,1712226238546875
72.97,1712226238562500
92.88,1712226238578125
109.21,1712226238593750
118.49,1712226238609375
118.46,1712226238625000
108.26,1712226238640625
88.71,1712226238656250
62.04,1712226238671875
31.37,1712226238687500
0.31,1712226238703125
-28.62,1712226238718750
-53.43,1712226238734375
-72.36,1712226238750000
-84.33,1712226238765625
-88.95,1712226238781250
-86.66,1712226238796875
-78.51,1712226238812500
-65.9,1712226238828125
-50.23,1712226238843750
-32.82,1712226238859375
-14.12,1712226238875000
6.6,1712226238890625
30.32,1712226238906250
57.36,1712226238921875
86.46,1712226238937500
114.8,1712226238953125
139.01,1712226238968750
156.65,1712226238984375
167.12,1712226239000000
171.81,1712226239015625
173.17,1712226239031250
173.19,1712226239046875
172.42,1712226239062500
169.96,1712226239078125
164.21,1712226239093750
153.86,1712226239109375
138.6,1712226239125000
119.2,1712226239140625
97.26,1712226239156250
74.68,1712226239171875
53.12,1712226239187500
33.53,1712226239203125
15.84,1712226239218750
-0.92,1712226239234375
-17.83,1712226239250000
-35.31,1712226239265625
-52.47,1712226239281250
-67.4,1712226239296875
-78.04,1712226239312500
