phoneTimestamp,sensorTimestamp,ecg
1712054338677,599616191457880766,15337
1712054338684,599616191465544128,15153
1712054338692,599616191473207490,15071
1712054338699,599616191480870852,14991
1712054338707,599616191488534214,14810
1712054338715,599616191496197576,14709
1712054338721,599616191503860938,14691
1712054338729,599616191511524300,14569
1712054338737,599616191519187662,14313
1712054338745,599616191526851024,14061
1712054338753,599616191534514386,13896
1712054338761,599616191542177748,13777
1712054338768,599616191549841110,13653
1712054338776,599616191557504472,13532
1712054338784,599616191565167834,13449
1712054338791,599616191572831196,13341
1712054338799,599616191580494558,13170
1712054338807,599616191588157920,12998
1712054338814,599616191595821282,12819
1712054338822,599616191603484644,12686
1712054338830,599616191611148006,12643
1712054338837,599616191618811368,12544
1712054338845,599616191626474730,12388
1712054338853,599616191634138092,12285
1712054338860,599616191641801454,12118
1712054338868,599616191649464816,11907
1712054338876,599616191657128178,11823
1712054338883,599616191664791540,11736
1712054338891,599616191672454902,11552
1712054338899,599616191680118264,11433
1712054338905,599616191687781626,11335
1712054338913,599616191695444988,11190
1712054338921,599616191703108350,11261
1712054338929,599616191710771712,11646
1712054338937,599616191718435074,11953
1712054338945,599616191726098436,11426
1712054338952,599616191733761798,10185
1712054338960,599616191741425160,9678
1712054338968,599616191749088522,10162
1712054338975,599616191756751884,10288
1712054338983,599616191764415246,9894
1712054338991,599616191772078608,9846
1712054338998,599616191779741970,9990
1712054339006,599616191787405332,9765
1712054339014,599616191795068694,9502
1712054339021,599616191802732056,9440
1712054339029,599616191810395418,9289
1712054339037,599616191818058780,9147
1712054339044,599616191825722142,9145
1712054339052,599616191833385504,9062
1712054339060,599616191841048866,8911
1712054339067,599616191848712228,8831
1712054339075,599616191856375590,8739
1712054339083,599616191864038952,8631
1712054339089,599616191871702314,8590
1712054339097,599616191879365676,8531
1712054339105,599616191887029038,8402
1712054339113,599616191894692400,8297
1712054339121,599616191902355762,8219
1712054339129,599616191910019124,8160
1712054339136,599616191917682486,8109
1712054339144,599616191925345848,7990
1712054339152,599616191933009210,7846
1712054339159,599616191940672572,7692
1712054339167,599616191948335934,7513
1712054339175,599616191955999296,7413
1712054339182,599616191963662658,7365
1712054339190,599616191971326020,7287
1712054339198,599616191978989382,7202
1712054339205,599616191986652744,7074
1712054339213,599616191994316106,6950
1712054339221,599616192001979468,6916
1712054339228,599616192009642830,6833
1712054339236,599616192017306224,6686
1712054339244,599616192024969586,6636
1712054339251,599616192032632948,6554
1712054339259,599616192040296310,6400
1712054339267,599616192047959672,6357
1712054339273,599616192055623034,6347
1712054339281,599616192063286396,6290
1712054339289,599616192070949758,6254
1712054339297,599616192078613120,6169
1712054339305,599616192086276482,6050
1712054339313,599616192093939844,5997
1712054339320,599616192101603206,5965
1712054339328,599616192109266568,5924
1712054339336,599616192116929930,5914
1712054339343,599616192124593292,5795
1712054339351,599616192132256654,5553
1712054339359,599616192139920016,5504
1712054339366,599616192147583378,5557
1712054339374,599616192155246740,5479
1712054339382,599616192162910102,5417
1712054339389,599616192170573464,5372
1712054339397,599616192178236826,5243
1712054339405,599616192185900188,5163
1712054339412,599616192193563550,5177
1712054339420,599616192201226912,5154
1712054339428,599616192208890274,5085
1712054339435,599616192216553636,5012
1712054339443,599616192224216998,4916
1712054339449,599616192231880360,4863
1712054339457,599616192239543722,4879
1712054339465,599616192247207084,4808
1712054339473,599616192254870446,4625
1712054339481,599616192262533808,4501
1712054339489,599616192270197170,4471
1712054339496,599616192277860532,4460
1712054339504,599616192285523894,4380
1712054339512,599616192293187256,4208
1712054339519,599616192300850618,4157
1712054339527,599616192308513980,4222
1712054339535,599616192316177342,4176
1712054339542,599616192323840704,4118
1712054339550,599616192331504066,4130
1712054339558,599616192339167428,4114
1712054339565,599616192346830790,4100
1712054339573,599616192354494152,4091
1712054339581,599616192362157514,4020
1712054339588,599616192369820876,3924
1712054339596,599616192377484238,3885
1712054339604,599616192385147600,3903
1712054339611,599616192392810962,3926
1712054339619,599616192400474324,3896
1712054339627,599616192408137686,3795
1712054339633,599616192415801048,3720
1712054339641,599616192423464410,3718
1712054339649,599616192431127772,3727
1712054339657,599616192438791134,3669
1712054339665,599616192446454496,3587
1712054339673,599616192454117858,3569
1712054339680,599616192461781220,3525
1712054339688,599616192469444582,3392
1712054339696,599616192477107944,3346
1712054339703,599616192484771306,3417
1712054339711,599616192492434668,3383
1712054339719,599616192500098030,3259
1712054339726,599616192507761392,3207
1712054339734,599616192515424754,3216
1712054339742,599616192523088116,3358
1712054339749,599616192530751478,3823
1712054339757,599616192538414840,4226
1712054339765,599616192546078202,3738
1712054339772,599616192553741564,2655
1712054339780,599616192561404926,2341
1712054339788,599616192569068288,2776
1712054339795,599616192576731682,2826
1712054339803,599616192584395044,2584
1712054339811,599616192592058406,2629
1712054339817,599616192599721768,2742
1712054339825,599616192607385130,2691
1712054339833,599616192615048492,2661
1712054339841,599616192622711854,2721
1712054339849,599616192630375216,2712
1712054339857,599616192638038578,2604
1712054339864,599616192645701940,2556
1712054339872,599616192653365302,2618
1712054339880,599616192661028664,2588
1712054339887,599616192668692026,2462
1712054339895,599616192676355388,2448
1712054339903,599616192684018750,2490
1712054339910,599616192691682112,2458
1712054339918,599616192699345474,2471
1712054339926,599616192707008836,2542
1712054339933,599616192714672198,2522
1712054339941,599616192722335560,2467
1712054339949,599616192729998922,2494
1712054339956,599616192737662284,2490
1712054339964,599616192745325646,2393
1712054339972,599616192752989008,2334
1712054339979,599616192760652370,2304
1712054339987,599616192768315732,2254
1712054339995,599616192775979094,2238
1712054340001,599616192783642456,2203
1712054340009,599616192791305818,2093
1712054340017,599616192798969180,2054
1712054340025,599616192806632542,2086
1712054340033,599616192814295904,2036
1712054340041,599616192821959266,1999
1712054340048,599616192829622628,2031
1712054340056,599616192837285990,2038
1712054340064,599616192844949352,2054
1712054340071,599616192852612714,2045
1712054340079,599616192860276076,1993
1712054340087,599616192867939438,2006
1712054340094,599616192875602800,2050
1712054340102,599616192883266162,2045
1712054340110,599616192890929524,2029
1712054340117,599616192898592886,2020
1712054340125,599616192906256248,1993
1712054340133,599616192913919610,1974
1712054340140,599616192921582972,1974
1712054340148,599616192929246334,1970
1712054340156,599616192936909696,1981
1712054340163,599616192944573058,2020
1712054340171,599616192952236420,1995
1712054340179,599616192959899782,1922
1712054340185,599616192967563144,1935
1712054340193,599616192975226506,1949
1712054340201,599616192982889868,1896
1712054340209,599616192990553230,1812
1712054340217,599616192998216592,1713
1712054340224,599616193005879954,1686
1712054340232,599616193013543316,1725
1712054340240,599616193021206678,1761
1712054340247,599616193028870040,1786
1712054340255,599616193036533402,1761
1712054340263,599616193044196764,1674
1712054340270,599616193051860126,1649
1712054340278,599616193059523488,1688
1712054340286,599616193067186850,1692
1712054340293,599616193074850212,1679
1712054340301,599616193082513574,1692
1712054340309,599616193090176936,1729
1712054340316,599616193097840298,1681
1712054340324,599616193105503660,1592
1712054340332,599616193113167022,1560
1712054340339,599616193120830384,1511
1712054340347,599616193128493746,1521
1712054340355,599616193136157140,1576
1712054340361,599616193143820502,1523
1712054340369,599616193151483864,1491
1712054340377,599616193159147226,1505
1712054340385,599616193166810588,1438
1712054340393,599616193174473950,1413
1712054340401,599616193182137312,1440
1712054340408,599616193189800674,1422
1712054340416,599616193197464036,1411
1712054340424,599616193205127398,1383
1712054340431,599616193212790760,1335
1712054340439,599616193220454122,1347
1712054340447,599616193228117484,1324
1712054340454,599616193235780846,1170
1712054340462,599616193243444208,1053
1712054340470,599616193251107570,1033
1712054340477,599616193258770932,1012
1712054340485,599616193266434294,1014
1712054340493,599616193274097656,1042
1712054340500,599616193281761018,1090
1712054340508,599616193289424380,1280
1712054340516,599616193297087742,1679
1712054340523,599616193304751104,1885
1712054340531,599616193312414466,1237
1712054340539,599616193320077828,341
1712054340545,599616193327741190,419
1712054340553,599616193335404552,870
1712054340561,599616193343067914,790
1712054340569,599616193350731276,721
1712054340577,599616193358394638,920
1712054340585,599616193366058000,966
1712054340592,599616193373721362,902
1712054340600,599616193381384724,964
1712054340608,599616193389048086,1021
1712054340615,599616193396711448,975
1712054340623,599616193404374810,943
1712054340631,599616193412038172,966
1712054340638,599616193419701534,987
1712054340646,599616193427364896,985
1712054340654,599616193435028258,996
1712054340661,599616193442691620,1026
1712054340669,599616193450354982,1019
1712054340677,599616193458018344,991
1712054340684,599616193465681706,1005
1712054340692,599616193473345068,1035
1712054340700,599616193481008430,982
1712054340707,599616193488671792,902
1712054340715,599616193496335154,895
1712054340723,599616193503998516,904
1712054340729,599616193511661878,879
1712054340737,599616193519325240,891
1712054340745,599616193526988602,955
1712054340753,599616193534651964,939
1712054340761,599616193542315326,875
1712054340769,599616193549978688,877
1712054340776,599616193557642050,881
1712054340784,599616193565305412,886
1712054340792,599616193572968774,943
1712054340799,599616193580632136,969
1712054340807,599616193588295498,909
1712054340815,599616193595958860,861
1712054340822,599616193603622222,875
1712054340830,599616193611285584,914
1712054340838,599616193618948946,932
1712054340845,599616193626612308,962
1712054340853,599616193634275670,952
1712054340861,599616193641939032,877
1712054340868,599616193649602394,891
1712054340876,599616193657265756,962
1712054340884,599616193664929118,957
1712054340891,599616193672592480,966
1712054340899,599616193680255842,1005
1712054340907,599616193687919204,966
1712054340913,599616193695552502,911
1712054340921,599616193703216282,930
1712054340929,599616193710880062,973
1712054340937,599616193718543842,971
1712054340945,599616193726207622,918
1712054340952,599616193733871402,843
1712054340960,599616193741535182,813
1712054340968,599616193749198962,879
1712054340975,599616193756862742,925
1712054340983,599616193764526522,891
1712054340991,599616193772190302,863
1712054340998,599616193779854082,815
1712054341006,599616193787517862,712
1712054341014,599616193795181642,646
1712054341021,599616193802845422,620
1712054341029,599616193810509202,611
1712054341037,599616193818172982,616
1712054341044,599616193825836762,572
1712054341052,599616193833500542,494
1712054341060,599616193841164322,494
1712054341067,599616193848828102,552
1712054341075,599616193856491882,545
1712054341083,599616193864155662,494
1712054341089,599616193871819442,483
1712054341097,599616193879483222,487
1712054341105,599616193887147002,499
1712054341113,599616193894810782,575
1712054341121,599616193902474562,657
1712054341129,599616193910138342,629
1712054341136,599616193917802122,570
1712054341144,599616193925465902,568
1712054341152,599616193933129682,604
1712054341159,599616193940793462,629
1712054341167,599616193948457242,597
1712054341175,599616193956121022,597
1712054341182,599616193963784802,641
1712054341190,599616193971448582,611
1712054341198,599616193979112362,554
1712054341205,599616193986776142,758
1712054341213,599616193994439922,1278
1712054341221,599616194002103702,1445
1712054341228,599616194009767482,659
1712054341236,599616194017431262,-245
1712054341244,599616194025095042,-121
1712054341251,599616194032758822,320
1712054341259,599616194040422602,268
1712054341267,599616194048086382,233
1712054341273,599616194055750162,389
1712054341281,599616194063413942,414
1712054341289,599616194071077722,382
1712054341297,599616194078741502,419
1712054341305,599616194086405282,451
1712054341313,599616194094069062,449
1712054341320,599616194101732842,465
1712054341328,599616194109396622,501
1712054341336,599616194117060402,520
1712054341343,599616194124724182,517
1712054341351,599616194132387962,515
1712054341359,599616194140051742,529
1712054341366,599616194147715522,554
1712054341374,599616194155379302,575
1712054341382,599616194163043082,593
1712054341389,599616194170706862,591
1712054341397,599616194178370642,600
1712054341405,599616194186034422,607
1712054341412,599616194193698202,604
1712054341420,599616194201361982,618
1712054341428,599616194209025762,634
1712054341435,599616194216689542,625
1712054341443,599616194224353322,577
1712054341451,599616194232017102,524
1712054341457,599616194239680882,508
1712054341465,599616194247344662,517
1712054341473,599616194255063628,549
1712054341481,599616194262726642,575
1712054341489,599616194270389656,549
1712054341497,599616194278052670,513
1712054341504,599616194285715684,520
1712054341512,599616194293378698,552
1712054341520,599616194301041712,503
1712054341527,599616194308704726,380
1712054341535,599616194316367740,297
1712054341543,599616194324030754,265
1712054341550,599616194331693768,286
1712054341558,599616194339356782,341
1712054341566,599616194347019796,375
1712054341573,599616194354682810,414
1712054341581,599616194362345824,462
1712054341589,599616194370008838,421
1712054341596,599616194377671852,364
1712054341604,599616194385334866,432
1712054341612,599616194392997880,510
1712054341619,599616194400660894,490
1712054341627,599616194408323908,483
1712054341635,599616194415986922,503
1712054341641,599616194423649936,469
1712054341649,599616194431312950,471
1712054341657,599616194438975964,533
1712054341665,599616194446638978,542
1712054341673,599616194454301992,552
1712054341681,599616194461965006,572
1712054341688,599616194469628020,510
1712054341696,599616194477291034,453
1712054341704,599616194484954048,487
1712054341711,599616194492617062,542
1712054341719,599616194500280076,563
1712054341727,599616194507943090,556
1712054341734,599616194515606104,515
1712054341742,599616194523269118,497
1712054341750,599616194530932132,520
1712054341757,599616194538595146,536
1712054341765,599616194546258160,565
1712054341773,599616194553921174,568
1712054341780,599616194561584188,545
1712054341788,599616194569247202,575
1712054341796,599616194576910216,602
1712054341803,599616194584573230,595
1712054341811,599616194592236244,588
1712054341819,599616194599899258,526
1712054341825,599616194607562272,439
1712054341833,599616194615225286,430
1712054341841,599616194622888300,465
1712054341849,599616194630551314,471
1712054341857,599616194638214328,478
1712054341864,599616194645877342,503
1712054341872,599616194653540356,577
1712054341880,599616194661203370,829
1712054341887,599616194668866384,1305
1712054341895,599616194676529398,1385
1712054341903,599616194684192412,531
1712054341910,599616194691855426,-180
1712054341918,599616194699518440,123
1712054341926,599616194707181454,421
1712054341933,599616194714844468,224
1712054341941,599616194722507482,197
1712054341949,599616194730170496,332
1712054341956,599616194737833510,288
1712054341964,599616194745496524,210
1712054341972,599616194753159538,210
1712054341979,599616194760822552,224
1712054341987,599616194768485566,238
1712054341995,599616194776148580,265
1712054342001,599616194783811594,302
1712054342009,599616194791474608,302
1712054342017,599616194799137622,268
1712054342025,599616194806800636,233
1712054342033,599616194814433560,185
1712054342041,599616194822096992,169
1712054342048,599616194829760424,229
1712054342056,599616194837423856,251
1712054342064,599616194845087288,210
1712054342071,599616194852750720,164
1712054342079,599616194860414152,125
1712054342087,599616194868077584,158
1712054342094,599616194875741016,222
1712054342102,599616194883404448,201
1712054342110,599616194891067880,187
1712054342117,599616194898731312,245
1712054342125,599616194906394744,240
1712054342133,599616194914058176,210
1712054342140,599616194921721608,256
1712054342148,599616194929385040,288
1712054342156,599616194937048472,261
1712054342163,599616194944711904,272
1712054342171,599616194952375336,295
1712054342179,599616194960038768,254
1712054342185,599616194967702200,201
1712054342193,599616194975365632,208
1712054342201,599616194983029064,240
1712054342209,599616194990692496,270
1712054342217,599616194998355928,295
1712054342225,599616195006019360,313
1712054342232,599616195013682792,316
1712054342240,599616195021346224,327
1712054342248,599616195029009656,341
1712054342255,599616195036673088,339
1712054342263,599616195044336520,364
1712054342271,599616195051999952,377
1712054342278,599616195059663384,341
1712054342286,599616195067326816,339
1712054342294,599616195074990248,389
1712054342301,599616195082653680,428
1712054342309,599616195090317112,421
1712054342317,599616195097980544,380
1712054342324,599616195105643976,371
1712054342332,599616195113307408,400
1712054342340,599616195120970840,416
1712054342347,599616195128634272,430
1712054342355,599616195136297704,453
1712054342363,599616195143961136,462
1712054342369,599616195151624568,442
1712054342377,599616195159288000,432
1712054342385,599616195166951432,449
1712054342393,599616195174614864,481
1712054342401,599616195182278296,501
1712054342409,599616195189941728,487
1712054342416,599616195197605160,462
1712054342424,599616195205268592,387
1712054342432,599616195212932024,300
1712054342439,599616195220595456,329
1712054342447,599616195228258888,394
1712054342455,599616195235922320,414
1712054342462,599616195243585752,435
1712054342470,599616195251249184,449
1712054342478,599616195258912616,426
1712054342485,599616195266576048,414
1712054342493,599616195274239480,453
1712054342501,599616195281902912,476
1712054342508,599616195289566344,432
1712054342516,599616195297229776,400
1712054342524,599616195304893208,419
1712054342531,599616195312556640,403
1712054342539,599616195320220072,313
1712054342547,599616195327883504,313
1712054342553,599616195335546936,597
1712054342561,599616195343210368,1076
1712054342569,599616195350873800,1177
1712054342577,599616195358537232,432
1712054342585,599616195366200664,-345
1712054342592,599616195373849056,-171
1712054342600,599616195381512697,217
1712054342608,599616195389176338,80
1712054342615,599616195396839979,-6
1712054342623,599616195404503620,192
1712054342631,599616195412167261,284
1712054342638,599616195419830902,251
1712054342646,599616195427494543,268
1712054342654,599616195435158184,219
1712054342661,599616195442821825,93
1712054342669,599616195450485466,57
1712054342677,599616195458149107,82
1712054342684,599616195465812748,98
1712054342692,599616195473476389,112
1712054342700,599616195481140030,96
1712054342707,599616195488803671,48
1712054342715,599616195496467312,22
1712054342723,599616195504130953,9
1712054342729,599616195511794594,-20
1712054342737,599616195519458235,-20
1712054342745,599616195527121876,-9
1712054342753,599616195534785517,-16
1712054342761,599616195542449158,-20
1712054342769,599616195550112799,-13
1712054342776,599616195557776440,4
1712054342784,599616195565440081,27
1712054342792,599616195573103722,0
1712054342799,599616195580767363,-57
1712054342807,599616195588431004,-45
1712054342815,599616195596094645,-4
1712054342822,599616195603758286,25
1712054342830,599616195611421927,45
1712054342838,599616195619085568,27
1712054342845,599616195626749209,11
1712054342853,599616195634412850,48
1712054342861,599616195642076491,59
1712054342868,599616195649740132,32
1712054342876,599616195657403773,45
1712054342884,599616195665067414,75
1712054342891,599616195672731055,75
1712054342899,599616195680394696,82
1712054342907,599616195688058337,71
1712054342913,599616195695721978,34
1712054342921,599616195703385619,0
1712054342929,599616195711049260,-20
1712054342937,599616195718712901,-9
1712054342945,599616195726376542,6
1712054342953,599616195734040183,-4
1712054342960,599616195741703824,0
1712054342968,599616195749367465,27
1712054342976,599616195757031106,27
1712054342983,599616195764694747,36
1712054342991,599616195772358388,61
1712054342999,599616195780022029,45
1712054343006,599616195787685670,32
1712054343014,599616195795349311,50
1712054343022,599616195803012952,48
1712054343029,599616195810676593,54
1712054343037,599616195818340234,32
1712054343045,599616195826003875,-80
1712054343052,599616195833667516,-139
1712054343060,599616195841331157,-84
1712054343068,599616195848994798,-54
1712054343075,599616195856658439,-54
1712054343083,599616195864322080,-4
1712054343091,599616195871985721,25
1712054343097,599616195879649362,-11
1712054343105,599616195887313003,-4
1712054343113,599616195894976644,25
1712054343121,599616195902640285,0
1712054343129,599616195910303926,0
1712054343137,599616195917967567,36
1712054343144,599616195925631208,29
1712054343152,599616195933324956,16
1712054343160,599616195940988179,11
1712054343167,599616195948651402,-18
1712054343175,599616195956314625,-22
1712054343183,599616195963977848,4
1712054343190,599616195971641071,-2
1712054343198,599616195979304294,-48
1712054343206,599616195986967517,-77
1712054343213,599616195994630740,-25
1712054343221,599616196002293963,41
1712054343229,599616196009957186,34
1712054343236,599616196017620409,11
1712054343244,599616196025283632,-50
1712054343252,599616196032946855,-34
1712054343259,599616196040610078,352
1712054343267,599616196048273301,815
1712054343275,599616196055936524,529
1712054343281,599616196063599747,-366
1712054343289,599616196071262970,-652
1712054343297,599616196078926193,-249
1712054343305,599616196086589416,-139
1712054343313,599616196094252639,-238
1712054343321,599616196101915862,-96
1712054343328,599616196109579085,32
1712054343336,599616196117242308,-16
1712054343344,599616196124905531,-66
1712054343351,599616196132568754,-52
1712054343359,599616196140231977,-9
1712054343367,599616196147895200,18
1712054343374,599616196155558423,48
1712054343382,599616196163221646,73
1712054343390,599616196170884869,22
1712054343397,599616196178548092,-11
1712054343405,599616196186211315,-4
1712054343412,599616196193874538,-87
1712054343420,599616196201537761,-137
1712054343428,599616196209200984,-82
1712054343435,599616196216864207,-103
1712054343443,599616196224527430,-155
1712054343451,599616196232190653,-96
1712054343457,599616196239853876,-38
1712054343465,599616196247517099,-57
1712054343473,599616196255180322,-61
1712054343481,599616196262843545,-84
1712054343489,599616196270506768,-128
1712054343497,599616196278169991,-105
1712054343504,599616196285833214,-61
1712054343512,599616196293496437,-52
1712054343520,599616196301159660,-57
1712054343527,599616196308822883,-100
1712054343535,599616196316486106,-160
1712054343543,599616196324149329,-233
1712054343550,599616196331812552,-343
1712054343558,599616196339475775,-380
1712054343566,599616196347138998,-325
1712054343573,599616196354802221,-304
1712054343581,599616196362465444,-327
1712054343589,599616196370128667,-325
1712054343596,599616196377791890,-290
1712054343604,599616196385455113,-263
1712054343612,599616196393118336,-254
1712054343619,599616196400781559,-245
1712054343627,599616196408444782,-224
1712054343635,599616196416108005,-231
1712054343641,599616196423771228,-233
1712054343649,599616196431434451,-219
1712054343657,599616196439097674,-256
1712054343665,599616196446760897,-304
1712054343673,599616196454424120,-286
1712054343681,599616196462087343,-258
1712054343688,599616196469750566,-251
1712054343696,599616196477413789,-213
1712054343704,599616196485077012,-171
1712054343711,599616196492725192,-178
1712054343719,599616196500388624,-171
1712054343727,599616196508052056,-144
1712054343734,599616196515715488,-142
1712054343742,599616196523378920,-135
1712054343750,599616196531042352,-109
1712054343757,599616196538705784,-103
1712054343765,599616196546369216,-105
1712054343773,599616196554032648,-119
1712054343780,599616196561696080,-180
1712054343788,599616196569359512,-208
1712054343796,599616196577022944,-162
1712054343803,599616196584686376,-139
1712054343811,599616196592349808,-132
1712054343819,599616196600013240,-116
1712054343825,599616196607676672,-142
1712054343833,599616196615340104,-183
1712054343841,599616196623003536,-174
1712054343849,599616196630666968,-132
1712054343857,599616196638330400,-91
1712054343865,599616196645993832,-32
1712054343872,599616196653657264,-13
1712054343880,599616196661320696,-43
1712054343888,599616196668984128,-68
1712054343895,599616196676647560,-98
1712054343903,599616196684310992,-155
1712054343911,599616196691974424,-180
1712054343918,599616196699637856,-167
1712054343926,599616196707301288,-171
1712054343934,599616196714964720,-187
1712054343941,599616196722628152,-167
1712054343949,599616196730291584,-18
1712054343957,599616196737955016,382
1712054343964,599616196745618448,801
1712054343972,599616196753281880,531
1712054343980,599616196760945312,-350
1712054343987,599616196768608744,-650
1712054343995,599616196776272176,-240
1712054344003,599616196783935608,-93
1712054344009,599616196791599040,-201
1712054344017,599616196799262472,-109
1712054344025,599616196806925904,-13
1712054344033,599616196814589336,-41
1712054344041,599616196822252768,-27
1712054344049,599616196829916200,-29
1712054344056,599616196837579632,-130
1712054344064,599616196845243064,-151
1712054344072,599616196852906496,-96
1712054344079,599616196860569928,-109
1712054344087,599616196868233360,-119
1712054344095,599616196875896792,-66
1712054344102,599616196883560224,-18
1712054344110,599616196891223656,0
1712054344118,599616196898887088,-2
1712054344125,599616196906550520,-20
1712054344133,599616196914213952,-16
1712054344140,599616196921877384,27
1712054344148,599616196929540816,22
1712054344156,599616196937204248,-32
1712054344163,599616196944867680,-64
1712054344171,599616196952531112,-119
1712054344179,599616196960194544,-164
1712054344185,599616196967857976,-137
1712054344193,599616196975521408,-98
1712054344201,599616196983184840,-89
1712054344209,599616196990848272,-89
1712054344217,599616196998511704,-93
1712054344225,599616197006175136,-100
1712054344232,599616197013838568,-87
1712054344240,599616197021502000,-52
1712054344248,599616197029165432,-34
1712054344255,599616197036828864,-50
1712054344263,599616197044492296,-105
1712054344271,599616197052155736,-132
1712054344278,599616197059819168,-96
1712054344286,599616197067482600,-93
1712054344294,599616197075146032,-144
1712054344301,599616197082809464,-158
1712054344309,599616197090472896,-222
1712054344317,599616197098136328,-373
1712054344324,599616197105799760,-389
1712054344332,599616197113463192,-290
1712054344340,599616197121126624,-265
1712054344347,599616197128790056,-268
1712054344355,599616197136453488,-254
1712054344363,599616197144116920,-249
1712054344369,599616197151780352,-235
1712054344377,599616197159443784,-203
1712054344385,599616197167107216,-176
1712054344393,599616197174770648,-210
1712054344401,599616197182434080,-281
1712054344409,599616197190097512,-288
1712054344416,599616197197760944,-254
1712054344424,599616197205424376,-233
1712054344432,599616197213087808,-187
1712054344439,599616197220751240,-139
1712054344447,599616197228414672,-142
1712054344455,599616197236078104,-146
1712054344462,599616197243741536,-119
1712054344470,599616197251404968,-96
1712054344478,599616197259068400,-59
1712054344485,599616197266731832,-25
1712054344493,599616197274395264,-34
1712054344501,599616197282058696,-50
1712054344508,599616197289722128,-48
1712054344516,599616197297385560,-36
1712054344524,599616197305048992,6
1712054344531,599616197312712424,48
1712054344539,599616197320375856,59
1712054344547,599616197328039288,68
1712054344553,599616197335702720,9
1712054344561,599616197343366152,-105
1712054344569,599616197351029584,-103
1712054344577,599616197358693016,-61
1712054344585,599616197366356448,-75
1712054344593,599616197374019880,-43
1712054344600,599616197381683312,-6
1712054344608,599616197389346744,-16
1712054344616,599616197397010176,0
1712054344623,599616197404673608,41
1712054344631,599616197412337040,162
1712054344639,599616197420000472,487
1712054344646,599616197427663904,833
1712054344654,599616197435327336,540
1712054344662,599616197442990768,-366
1712054344669,599616197450654200,-662
1712054344677,599616197458317632,-183
1712054344685,599616197465981064,-13
1712054344692,599616197473644496,-135
1712054344700,599616197481307928,-20
1712054344708,599616197488971360,80
1712054344715,599616197496634792,41
1712054344723,599616197504298224,61
1712054344731,599616197511961656,116
1712054344737,599616197519625088,139
1712054344745,599616197527288520,169
1712054344753,599616197534951952,176
1712054344761,599616197542615384,164
1712054344769,599616197550278816,178
1712054344777,599616197557942248,199
1712054344784,599616197565605680,224
1712054344792,599616197573269112,254
1712054344800,599616197580932544,251
1712054344807,599616197588595976,217
1712054344815,599616197596259408,208
1712054344823,599616197603922840,235
1712054344830,599616197611586282,263
1712054344838,599616197619249714,263
1712054344846,599616197626913146,238
1712054344853,599616197634576578,199
1712054344861,599616197642240010,139
1712054344869,599616197649903442,75
1712054344876,599616197657566874,43
1712054344884,599616197665230306,34
1712054344892,599616197672893738,-38
1712054344899,599616197680557170,-153
1712054344907,599616197688220602,-213
1712054344915,599616197695884034,-194
1712054344921,599616197703547466,-128
1712054344929,599616197711210898,-68
1712054344937,599616197718874330,-59
1712054344945,599616197726537762,-98
1712054344953,599616197734201194,-125
1712054344960,599616197741864626,-96
1712054344968,599616197749528058,-57
1712054344976,599616197757191490,-34
1712054344983,599616197764854922,-41
1712054344991,599616197772518354,-100
1712054344999,599616197780181786,-167
1712054345006,599616197787845218,-206
1712054345014,599616197795508650,-215
1712054345022,599616197803172082,-190
1712054345029,599616197810835514,-153
1712054345037,599616197818498946,-151
1712054345045,599616197826162378,-199
1712054345052,599616197833825810,-249
1712054345060,599616197841489242,-297
1712054345068,599616197849152674,-325
1712054345075,599616197856816106,-272
1712054345083,599616197864479538,-231
1712054345091,599616197872142970,-263
1712054345097,599616197879806402,-279
1712054345105,599616197887469834,-229
1712054345113,599616197895133266,-164
1712054345121,599616197902796698,-132
1712054345129,599616197910460130,-160
1712054345137,599616197918123562,-247
1712054345144,599616197925786994,-279
1712054345152,599616197933450426,-194
1712054345160,599616197941113858,-123
1712054345167,599616197948777290,-114
1712054345175,599616197956440722,-98
1712054345183,599616197964104154,-73
1712054345190,599616197971767586,-87
1712054345198,599616197979431018,-89
1712054345206,599616197987094450,-41
1712054345213,599616197994757882,-9
1712054345221,599616198002421314,6
1712054345229,599616198010084746,61
1712054345236,599616198017748178,109
1712054345244,599616198025411610,96
1712054345252,599616198033075042,87
1712054345259,599616198040738474,105
1712054345267,599616198048401906,91
1712054345275,599616198056065338,80
1712054345281,599616198063728770,112
1712054345289,599616198071392202,116
1712054345297,599616198079055634,103
1712054345305,599616198086719066,121
1712054345313,599616198094382498,185
1712054345321,599616198102045930,377
1712054345328,599616198109709362,801
1712054345336,599616198117372794,1090
1712054345344,599616198125036226,536
1712054345351,599616198132699658,-345
1712054345359,599616198140363090,-341
1712054345367,599616198148026522,116
1712054345374,599616198155689954,87
1712054345382,599616198163353386,-71
1712054345390,599616198171016826,11
1712054345397,599616198178680258,107
1712054345405,599616198186343690,135
1712054345413,599616198194007122,135
1712054345420,599616198201670554,130
1712054345428,599616198209333986,132
1712054345436,599616198216997418,114
1712054345443,599616198224660850,80
1712054345451,599616198232324282,91
1712054345459,599616198239987714,125
1712054345465,599616198247651146,155
1712054345473,599616198255314578,190
1712054345481,599616198262978010,185
1712054345489,599616198270641442,162
1712054345497,599616198278304874,199
1712054345505,599616198285968306,249
1712054345512,599616198293631738,238
1712054345520,599616198301295170,231
1712054345528,599616198308958602,261
1712054345535,599616198316622034,233
1712054345543,599616198324285466,125
1712054345551,599616198331948898,73
1712054345558,599616198339612330,54
1712054345566,599616198347275762,-45
1712054345574,599616198354939194,-89
1712054345581,599616198362602626,-9
1712054345589,599616198370266058,16
1712054345597,599616198377929490,-16
1712054345604,599616198385592922,16
1712054345612,599616198393256354,80
1712054345620,599616198400919786,80
1712054345627,599616198408583218,18
1712054345635,599616198416246650,-32
1712054345643,599616198423910082,-43
1712054345649,599616198431573514,-32
1712054345657,599616198439236946,-32
1712054345665,599616198446900378,-45
1712054345673,599616198454563810,-48
1712054345681,599616198462227242,-93
1712054345689,599616198469890674,-158
1712054345696,599616198477554106,-121
1712054345704,599616198485217538,-61
1712054345712,599616198492880970,-57
1712054345719,599616198500544402,-59
1712054345727,599616198508207834,-61
1712054345734,599616198515871266,-73
1712054345742,599616198523534698,-43
1712054345750,599616198531198130,22
1712054345757,599616198538861562,54
1712054345765,599616198546524994,54
1712054345773,599616198554188426,43
1712054345780,599616198561851858,13
1712054345788,599616198569515290,4
1712054345796,599616198577178722,57
1712054345803,599616198584842154,130
1712054345811,599616198592505586,139
1712054345819,599616198600169018,112
1712054345825,599616198607832450,125
1712054345833,599616198615495882,146
1712054345841,599616198623159314,132
1712054345849,599616198630822746,160
1712054345857,599616198638486178,217
1712054345865,599616198646149610,199
1712054345872,599616198653813042,114
1712054345880,599616198661476474,75
1712054345888,599616198669139906,109
1712054345895,599616198676803338,139
1712054345903,599616198684466770,180
1712054345911,599616198692130202,233
1712054345918,599616198699793634,213
1712054345926,599616198707457066,162
1712054345934,599616198715120498,185
1712054345941,599616198722783930,238
1712054345949,599616198730447370,233
1712054345957,599616198738110802,210
1712054345964,599616198745774234,208
1712054345972,599616198753437666,217
1712054345980,599616198761101098,215
1712054345987,599616198768764530,208
1712054345995,599616198776427962,251
1712054346003,599616198784091394,309
1712054346009,599616198791754826,394
1712054346017,599616198799418258,657
1712054346025,599616198807081690,1019
1712054346033,599616198814745122,861
1712054346041,599616198822408554,2
1712054346049,599616198830071986,-394
1712054346056,599616198837735418,34
1712054346064,599616198845398850,153
1712054346072,599616198853062282,-91
1712054346079,599616198860725714,-13
1712054346087,599616198868389146,171
1712054346095,599616198876052578,190
1712054346102,599616198883716010,190
1712054346110,599616198891379442,197
1712054346118,599616198899042874,162
1712054346125,599616198906706306,137
1712054346133,599616198914369738,164
1712054346141,599616198922033170,201
1712054346148,599616198929696602,203
1712054346156,599616198937360034,206
1712054346164,599616198945023466,233
1712054346171,599616198952686898,256
1712054346179,599616198960350330,268
1712054346187,599616198968013762,279
1712054346193,599616198975677194,284
1712054346201,599616198983340626,288
1712054346209,599616198991004058,272
1712054346217,599616198998667490,217
1712054346225,599616199006330922,199
1712054346233,599616199013994354,219
1712054346240,599616199021657786,206
1712054346248,599616199029321218,185
1712054346256,599616199036984650,197
1712054346263,599616199044648082,192
1712054346271,599616199052311514,178
1712054346279,599616199059974946,199
1712054346286,599616199067638378,215
1712054346294,599616199075301810,213
1712054346302,599616199082965242,231
1712054346309,599616199090628674,231
1712054346317,599616199098292106,199
1712054346325,599616199105955538,176
1712054346332,599616199113618970,130
1712054346340,599616199121282402,75
1712054346348,599616199128945834,59
1712054346355,599616199136609266,34
1712054346363,599616199144272698,-22
1712054346371,599616199151936130,-75
1712054346377,599616199159599562,-87
1712054346385,599616199167262994,-52
1712054346393,599616199174926426,-11
1712054346401,599616199182589858,9
1712054346409,599616199190253290,6
1712054346417,599616199197916722,-4
1712054346424,599616199205580154,-4
1712054346432,599616199213243586,16
1712054346440,599616199220907018,43
1712054346447,599616199228570450,61
1712054346455,599616199236233882,59
1712054346463,599616199243897314,38
1712054346470,599616199251560746,27
1712054346478,599616199259224178,50
1712054346486,599616199266887610,84
1712054346493,599616199274551042,112
1712054346501,599616199282214474,128
1712054346509,599616199289908010,116
1712054346516,599616199297571024,91
1712054346524,599616199305234038,109
1712054346532,599616199312897052,155
1712054346539,599616199320560066,183
1712054346547,599616199328223080,197
1712054346555,599616199335886094,178
1712054346561,599616199343549108,116
1712054346569,599616199351212122,45
1712054346577,599616199358875136,-13
1712054346585,599616199366538150,9
1712054346593,599616199374201164,112
1712054346600,599616199381864178,151
1712054346608,599616199389527192,93
1712054346616,599616199397190206,29
1712054346623,599616199404853220,18
1712054346631,599616199412516234,48
1712054346639,599616199420179248,87
1712054346646,599616199427842262,96
1712054346654,599616199435505276,20
1712054346662,599616199443168290,-54
1712054346669,599616199450831304,-16
1712054346677,599616199458494318,103
1712054346685,599616199466157332,394
1712054346692,599616199473820346,925
1712054346700,599616199481483360,1017
1712054346708,599616199489146374,29
1712054346715,599616199496809388,-861
1712054346723,599616199504472402,-471
1712054346731,599616199512135416,98
1712054346737,599616199519798430,22
1712054346745,599616199527461444,-18
1712054346753,599616199535124458,128
1712054346761,599616199542787472,153
1712054346769,599616199550450486,176
1712054346777,599616199558113500,251
1712054346784,599616199565776514,263
1712054346792,599616199573439528,231
1712054346800,599616199581102542,217
1712054346807,599616199588765556,224
1712054346815,599616199596428570,254
1712054346823,599616199604091584,288
1712054346830,599616199611754598,304
1712054346838,599616199619417612,300
1712054346846,599616199627080626,309
1712054346853,599616199634743640,316
1712054346861,599616199642406654,274
1712054346869,599616199650069668,256
1712054346876,599616199657732682,293
1712054346884,599616199665395696,302
1712054346892,599616199673058710,290
1712054346899,599616199680721724,288
1712054346907,599616199688384738,261
1712054346915,599616199696047752,208
1712054346921,599616199703710766,180
1712054346929,599616199711373780,171
1712054346937,599616199719036794,160
1712054346945,599616199726699808,153
1712054346953,599616199734362822,146
1712054346961,599616199742025836,153
1712054346968,599616199749688850,164
1712054346976,599616199757351864,148
1712054346984,599616199765014878,139
1712054346991,599616199772677892,158
1712054346999,599616199780340906,158
1712054347007,599616199788003920,148
1712054347014,599616199795666934,162
1712054347022,599616199803329948,162
1712054347030,599616199810992962,125
1712054347037,599616199818655976,75
1712054347045,599616199826318990,29
1712054347053,599616199833982004,-13
1712054347060,599616199841645018,-45
1712054347068,599616199849277940,-71
1712054347076,599616199856941372,-135
1712054347083,599616199864604804,-206
1712054347091,599616199872268236,-201
1712054347099,599616199879931668,-192
1712054347105,599616199887595100,-254
1712054347113,599616199895258532,-290
1712054347121,599616199902921964,-245
1712054347129,599616199910585396,-192
1712054347137,599616199918248828,-210
1712054347145,599616199925912260,-270
1712054347152,599616199933575692,-281
1712054347160,599616199941239124,-242
1712054347168,599616199948902556,-203
1712054347175,599616199956565988,-169
1712054347183,599616199964229420,-144
1712054347191,599616199971892852,-153
1712054347198,599616199979556284,-158
1712054347206,599616199987219716,-130
1712054347214,599616199994883148,-84
1712054347221,599616200002546580,-22
1712054347229,599616200010210012,34
1712054347236,599616200017873444,45
1712054347244,599616200025536876,16
1712054347252,599616200033200308,-25
1712054347259,599616200040863740,-27
1712054347267,599616200048527172,18
1712054347275,599616200056190604,59
1712054347281,599616200063854036,66
1712054347289,599616200071517468,48
1712054347297,599616200079180900,29
1712054347305,599616200086844332,75
1712054347313,599616200094507764,313
1712054347321,599616200102171196,824
1712054347328,599616200109834628,1168
1712054347336,599616200117498060,451
1712054347344,599616200125161492,-758
1712054347351,599616200132824924,-804
1712054347359,599616200140488356,-139
1712054347367,599616200148151788,-38
1712054347374,599616200155815220,-100
1712054347382,599616200163478652,66
1712054347390,599616200171142084,109
1712054347397,599616200178805516,87
1712054347405,599616200186468948,180
1712054347413,599616200194132380,238
1712054347420,599616200201795812,229
1712054347428,599616200209459244,242
1712054347436,599616200217122676,231
1712054347443,599616200224786108,210
1712054347451,599616200232449540,247
1712054347459,599616200240112972,293
1712054347465,599616200247776404,311
1712054347473,599616200255439836,325
1712054347481,599616200263103268,304
1712054347489,599616200270766700,281
1712054347497,599616200278430132,316
1712054347505,599616200286093564,361
1712054347512,599616200293756996,380
1712054347520,599616200301420428,389
1712054347528,599616200309083860,368
1712054347535,599616200316747292,320
1712054347543,599616200324410724,316
1712054347551,599616200332074156,343
1712054347558,599616200339737588,348
1712054347566,599616200347401020,336
1712054347574,599616200355064452,284
1712054347581,599616200362727884,169
1712054347589,599616200370391316,98
1712054347597,599616200378054748,89
1712054347604,599616200385718180,32
1712054347612,599616200393381612,-36
1712054347620,599616200401045044,-52
1712054347627,599616200408708484,-57
1712054347635,599616200416371916,-61
1712054347643,599616200424035348,-34
1712054347649,599616200431698780,9
1712054347657,599616200439362212,22
1712054347665,599616200447025644,11
1712054347673,599616200454689076,-22
1712054347681,599616200462352508,-80
1712054347689,599616200470015940,-89
1712054347696,599616200477679372,-27
1712054347704,599616200485342804,9
1712054347712,599616200493006236,4
1712054347719,599616200500669668,6
1712054347727,599616200508333100,-13
1712054347735,599616200515996532,-57
1712054347742,599616200523659964,-61
1712054347750,599616200531323396,-77
1712054347758,599616200538986828,-123
1712054347765,599616200546650260,-114
1712054347773,599616200554313692,-91
1712054347781,599616200561977124,-103
1712054347788,599616200569640556,-84
1712054347796,599616200577303988,-50
1712054347804,599616200584967420,-57
1712054347811,599616200592630852,-59
1712054347819,599616200600294284,-38
1712054347827,599616200607957716,-41
1712054347833,599616200615621148,-43
1712054347841,599616200623284580,-50
1712054347849,599616200630948012,-82
1712054347857,599616200638611444,-52
1712054347865,599616200646274876,22
1712054347873,599616200653938308,29
1712054347880,599616200661601740,-2
1712054347888,599616200669265172,2
1712054347896,599616200676928604,20
1712054347903,599616200684592036,45
1712054347911,599616200692255468,84
1712054347919,599616200699918900,98
1712054347926,599616200707582332,80
1712054347934,599616200715245764,91
1712054347942,599616200722909196,217
1712054347949,599616200730572628,625
1712054347957,599616200738236060,1177
1712054347965,599616200745899492,985
1712054347972,599616200753562924,-201
1712054347980,599616200761226356,-808
1712054347988,599616200768889788,-242
1712054347995,599616200776553220,103
1712054348003,599616200784216652,-22
1712054348009,599616200791880084,87
1712054348017,599616200799543516,240
1712054348025,599616200807206948,199
1712054348033,599616200814870380,208
1712054348041,599616200822533812,272
1712054348049,599616200830197244,284
1712054348056,599616200837860676,297
1712054348064,599616200845524108,318
1712054348072,599616200853187540,286
1712054348079,599616200860850972,190
1712054348087,599616200868514404,71
1712054348095,599616200876177836,32
1712054348102,599616200883841268,93
1712054348110,599616200891504700,151
1712054348118,599616200899168132,148
1712054348125,599616200906831564,139
1712054348133,599616200914494996,171
1712054348141,599616200922158428,224
1712054348148,599616200929821860,256
1712054348156,599616200937485292,277
1712054348164,599616200945148724,268
1712054348171,599616200952812156,226
1712054348179,599616200960475588,213
1712054348187,599616200968169124,238
1712054348193,599616200975832138,247
1712054348201,599616200983495152,238
1712054348209,599616200991158166,217
1712054348217,599616200998821180,169
1712054348225,599616201006484194,144
1712054348233,599616201014147208,180
1712054348240,599616201021810222,213
1712054348248,599616201029473236,210
1712054348256,599616201037136250,178
1712054348263,599616201044799264,77
1712054348271,599616201052462278,-6
1712054348279,599616201060125292,41
1712054348286,599616201067788306,75
1712054348294,599616201075451320,32
1712054348302,599616201083114334,22
1712054348309,599616201090777348,22
1712054348317,599616201098440362,-6
1712054348325,599616201106103376,16
1712054348332,599616201113766390,34
1712054348340,599616201121429404,-20
1712054348348,599616201129092418,-45
1712054348355,599616201136755432,-22
1712054348363,599616201144418446,-27
1712054348371,599616201152081460,-16
1712054348377,599616201159744474,34
1712054348385,599616201167407488,66
1712054348393,599616201175070502,73
1712054348401,599616201182733516,54
1712054348409,599616201190396530,4
1712054348417,599616201198059544,-36
1712054348424,599616201205722558,-36
1712054348432,599616201213385572,-50
1712054348440,599616201221048586,-80
1712054348447,599616201228711600,-87
1712054348455,599616201236374614,-96
1712054348463,599616201244037628,-107
1712054348470,599616201251700642,-93
1712054348478,599616201259363656,-57
1712054348486,599616201267026670,-41
1712054348493,599616201274689684,-36
1712054348501,599616201282352698,-4
1712054348509,599616201290015712,27
1712054348516,599616201297678726,38
1712054348524,599616201305341740,61
1712054348532,599616201313004754,68
1712054348539,599616201320667768,38
1712054348547,599616201328330782,36
1712054348555,599616201335993796,59
1712054348561,599616201343656810,64
1712054348569,599616201351319824,80
1712054348577,599616201358982838,80
1712054348585,599616201366645852,16
1712054348593,599616201374308866,142
1712054348601,599616201381971880,689
1712054348608,599616201389634894,1133
1712054348616,599616201397297908,552
1712054348624,599616201404960922,-616
1712054348631,599616201412623936,-769
1712054348639,599616201420286950,-119
1712054348647,599616201427949964,2
1712054348654,599616201435612978,-144
1712054348662,599616201443275992,29
1712054348670,599616201450939006,158
1712054348677,599616201458602020,103
1712054348685,599616201466265034,139
1712054348693,599616201473928048,213
1712054348700,599616201481591062,187
1712054348708,599616201489254076,160
1712054348716,599616201496917090,201
1712054348723,599616201504580104,249
1712054348731,599616201512243118,256
1712054348739,599616201519906132,229
1712054348745,599616201527539056,231
1712054348753,599616201535202488,281
1712054348761,599616201542865920,295
1712054348769,599616201550529352,270
1712054348777,599616201558192784,295
1712054348784,599616201565856216,345
1712054348792,599616201573519648,352
1712054348800,599616201581183080,295
1712054348807,599616201588846512,222
1712054348815,599616201596509944,210
1712054348823,599616201604173376,231
1712054348830,599616201611836808,197
1712054348838,599616201619500240,155
1712054348846,599616201627163672,158
1712054348853,599616201634827104,137
1712054348861,599616201642490536,100
1712054348869,599616201650153968,109
1712054348876,599616201657817400,144
1712054348884,599616201665480832,160
1712054348892,599616201673144264,164
1712054348899,599616201680807696,162
1712054348907,599616201688471128,153
1712054348915,599616201696134560,155
1712054348921,599616201703797992,171
1712054348929,599616201711461424,201
1712054348937,599616201719124856,215
1712054348945,599616201726788288,199
1712054348953,599616201734451720,194
1712054348961,599616201742115152,203
1712054348968,599616201749778584,215
1712054348976,599616201757442016,203
1712054348984,599616201765105448,180
1712054348991,599616201772768880,167
1712054348999,599616201780432312,112
1712054349007,599616201788095744,82
1712054349014,599616201795759176,148
1712054349022,599616201803422608,197
1712054349030,599616201811086040,183
1712054349037,599616201818749472,176
1712054349045,599616201826412904,160
1712054349053,599616201834076336,135
1712054349060,599616201841739768,160
1712054349068,599616201849403200,183
1712054349076,599616201857066632,132
1712054349083,599616201864730064,50
1712054349091,599616201872393496,-43
1712054349099,599616201880056928,-125
1712054349105,599616201887720360,-130
1712054349113,599616201895383792,-96
1712054349121,599616201903047224,-112
1712054349129,599616201910710656,-128
1712054349137,599616201918374088,-130
1712054349145,599616201926037520,-146
1712054349152,599616201933700952,-128
1712054349160,599616201941364384,-93
1712054349168,599616201949027816,-82
1712054349175,599616201956691248,-64
1712054349183,599616201964354680,-71
1712054349191,599616201972018112,-100
1712054349198,599616201979681544,-64
1712054349206,599616201987344976,18
1712054349214,599616201995008408,64
1712054349221,599616202002671840,77
1712054349229,599616202010335272,71
1712054349237,599616202017998704,43
1712054349244,599616202025662136,13
1712054349252,599616202033325568,9
1712054349260,599616202040989000,48
1712054349267,599616202048652432,82
1712054349275,599616202056315864,77
1712054349283,599616202063979296,54
1712054349289,599616202071642728,73
1712054349297,599616202079306160,272
1712054349305,599616202086969600,797
1712054349313,599616202094633032,1276
1712054349321,599616202102296464,751
1712054349329,599616202109959896,-552
1712054349336,599616202117623328,-872
1712054349344,599616202125286760,-183
1712054349352,599616202132950192,27
1712054349359,599616202140613624,-114
1712054349367,599616202148277056,22
1712054349375,599616202155940488,119
1712054349382,599616202163603920,34
1712054349390,599616202171267352,4
1712054349398,599616202178930784,59
1712054349405,599616202186594216,93
1712054349413,599616202194257648,84
1712054349421,599616202201921080,116
1712054349428,599616202209584512,160
1712054349436,599616202217247944,158
1712054349444,599616202224911376,167
1712054349451,599616202232574808,201
1712054349459,599616202240238240,203
1712054349467,599616202247901672,215
1712054349473,599616202255565104,261
1712054349481,599616202263228536,277
1712054349489,599616202270891968,279
1712054349497,599616202278555400,300
1712054349505,599616202286218832,302
1712054349513,599616202293882264,306
1712054349520,599616202301545696,341
1712054349528,599616202309209128,339
1712054349535,599616202316872560,306
1712054349543,599616202324535992,302
1712054349551,599616202332199424,302
1712054349558,599616202339862856,290
1712054349566,599616202347526288,256
1712054349574,599616202355189720,183
1712054349581,599616202362853152,151
1712054349589,599616202370516584,139
1712054349597,599616202378180016,27
1712054349604,599616202385843448,-43
1712054349612,599616202393506880,45
1712054349620,599616202401170312,89
1712054349627,599616202408833744,45
1712054349635,599616202416497176,57
1712054349643,599616202424160608,91
1712054349649,599616202431824040,107
1712054349657,599616202439487472,139
1712054349665,599616202447150904,148
1712054349673,599616202454814336,91
1712054349681,599616202462477768,54
1712054349689,599616202470141200,59
1712054349696,599616202477804632,43
1712054349704,599616202485468064,73
1712054349712,599616202493131496,137
1712054349719,599616202500794928,137
1712054349727,599616202508458360,103
1712054349735,599616202516121792,89
1712054349742,599616202523785224,103
1712054349750,599616202531448656,144
1712054349758,599616202539112088,187
1712054349765,599616202546775520,192
1712054349773,599616202554438952,160
1712054349781,599616202562102384,130
1712054349788,599616202569765816,107
1712054349796,599616202577429248,84
1712054349804,599616202585092680,71
1712054349811,599616202592756112,6
1712054349819,599616202600419544,-103
1712054349827,599616202608082976,-153
1712054349833,599616202615746408,-123
1712054349841,599616202623409840,-77
1712054349849,599616202631073272,-32
1712054349857,599616202638736704,0
1712054349865,599616202646400144,2
1712054349873,599616202654063576,-27
1712054349880,599616202661727008,-48
1712054349888,599616202669390440,-16
1712054349896,599616202677053872,34
1712054349903,599616202684717304,73
1712054349911,599616202692380736,84
1712054349919,599616202700044168,13
1712054349926,599616202707707600,-84
1712054349934,599616202715371032,-52
1712054349942,599616202723034464,38
1712054349949,599616202730697896,59
1712054349957,599616202738361328,71
1712054349965,599616202746024760,77
1712054349972,599616202753688192,50
1712054349980,599616202761351624,61
1712054349988,599616202769015056,121
1712054349995,599616202776678488,151
1712054350003,599616202784341920,153
1712054350011,599616202792005352,144
1712054350017,599616202799668784,128
1712054350025,599616202807332216,125
1712054350033,599616202814995648,164
1712054350041,599616202822659080,210
1712054350049,599616202830322512,215
1712054350057,599616202837985944,164
1712054350064,599616202845649376,89
1712054350072,599616202853312808,57
1712054350080,599616202860976240,82
1712054350087,599616202868639672,128
1712054350095,599616202876303104,132
1712054350103,599616202883966536,71
1712054350110,599616202891629968,45
1712054350118,599616202899293400,68
1712054350126,599616202906956832,82
1712054350133,599616202914620264,103
1712054350141,599616202922283696,119
1712054350149,599616202929947128,130
1712054350156,599616202937610560,160
1712054350164,599616202945273992,162
1712054350172,599616202952937424,158
1712054350179,599616202960600856,288
1712054350187,599616202968264288,687
1712054350195,599616202975927720,1259
1712054350201,599616202983591152,1255
1712054350209,599616202991254584,185
1712054350217,599616202998918016,-597
1712054350225,599616203006581448,-139
1712054350233,599616203014244880,268
1712054350241,599616203021908312,77
1712054350248,599616203029571744,109
1712054350256,599616203037235176,288
1712054350264,599616203044898608,249
1712054350271,599616203052562040,217
1712054350279,599616203060225472,293
1712054350287,599616203067888904,304
1712054350294,599616203075552336,279
1712054350302,599616203083215768,286
1712054350309,599616203090879200,247
1712054350317,599616203098542632,197
1712054350325,599616203106206064,222
1712054350332,599616203113869496,240
1712054350340,599616203121532928,194
1712054350348,599616203129196360,176
1712054350355,599616203136859792,199
1712054350363,599616203144523224,210
1712054350371,599616203152186656,217
1712054350377,599616203159850088,222
1712054350385,599616203167513520,231
1712054350393,599616203175176952,261
1712054350401,599616203182840384,274
1712054350409,599616203190503816,249
1712054350417,599616203198167248,235
1712054350424,599616203205855816,245
1712054350432,599616203213518899,247
1712054350440,599616203221181982,249
1712054350447,599616203228845065,258
1712054350455,599616203236508148,219
1712054350463,599616203244171231,132
1712054350470,599616203251834314,64
1712054350478,599616203259497397,36
1712054350486,599616203267160480,20
1712054350493,599616203274823563,25
1712054350501,599616203282486646,11
1712054350509,599616203290149729,-61
1712054350516,599616203297812812,-121
1712054350524,599616203305475895,-87
1712054350532,599616203313138978,-27
1712054350539,599616203320802061,0
1712054350547,599616203328465144,4
1712054350555,599616203336128227,-34
1712054350561,599616203343791310,-68
1712054350569,599616203351454393,-32
1712054350577,599616203359117476,18
1712054350585,599616203366780559,29
1712054350593,599616203374443642,54
1712054350601,599616203382106725,45
1712054350608,599616203389769808,-59
1712054350616,599616203397432891,-91
1712054350624,599616203405095974,0
1712054350631,599616203412759057,52
1712054350639,599616203420422140,57
1712054350647,599616203428085223,77
1712054350654,599616203435748306,64
1712054350662,599616203443411389,34
1712054350670,599616203451074472,77
1712054350677,599616203458737555,135
1712054350685,599616203466400638,146
1712054350693,599616203474063721,151
1712054350700,599616203481726804,139
1712054350708,599616203489389887,123
1712054350716,599616203497052970,158
1712054350723,599616203504716053,203
1712054350731,599616203512379136,219
1712054350739,599616203520042219,235
1712054350745,599616203527705302,219
1712054350753,599616203535368385,180
1712054350761,599616203543031468,206
1712054350769,599616203550694551,251
1712054350777,599616203558357634,256
1712054350785,599616203566020717,272
1712054350792,599616203573683800,261
1712054350800,599616203581346883,192
1712054350808,599616203589009966,164
1712054350815,599616203596673049,208
1712054350823,599616203604336132,242
1712054350831,599616203611999215,249
1712054350838,599616203619662298,249
1712054350846,599616203627325381,235
1712054350854,599616203634988464,231
1712054350861,599616203642651547,258
1712054350869,599616203650314630,286
1712054350877,599616203657977713,293
1712054350884,599616203665640796,281
1712054350892,599616203673303879,263
1712054350900,599616203680966962,247
1712054350907,599616203688630045,265
1712054350915,599616203696293128,327
1712054350923,599616203703956211,371
1712054350929,599616203711619294,373
1712054350937,599616203719282377,380
1712054350945,599616203726945460,366
1712054350953,599616203734608543,332
1712054350961,599616203742271626,316
1712054350969,599616203749934709,290
1712054350976,599616203757597792,233
1712054350984,599616203765240842,210
1712054350992,599616203772904204,215
1712054350999,599616203780567566,199
1712054351007,599616203788230928,245
1712054351015,599616203795894290,515
1712054351022,599616203803557652,1049
1712054351030,599616203811221014,1365
1712054351038,599616203818884376,643
1712054351045,599616203826547738,-510
1712054351053,599616203834211100,-533
1712054351060,599616203841874462,71
1712054351068,599616203849537824,61
1712054351076,599616203857201186,-52
1712054351083,599616203864864548,119
1712054351091,599616203872527910,89
1712054351099,599616203880191272,-52
1712054351105,599616203887854634,-71
1712054351113,599616203895517996,-135
1712054351121,599616203903181358,-185
1712054351129,599616203910844720,-103
1712054351137,599616203918508082,-66
1712054351145,599616203926171444,-103
1712054351152,599616203933834806,-82
1712054351160,599616203941498168,-45
1712054351168,599616203949161530,-38
1712054351175,599616203956824892,0
1712054351183,599616203964488254,32
1712054351191,599616203972151616,32
1712054351198,599616203979814978,43
1712054351206,599616203987478340,52
1712054351214,599616203995141702,68
1712054351221,599616204002805064,116
1712054351229,599616204010468426,148
1712054351237,599616204018131788,142
1712054351244,599616204025795150,121
1712054351252,599616204033458512,96
1712054351260,599616204041121874,84
1712054351267,599616204048785236,109
1712054351275,599616204056448598,146
1712054351283,599616204064111960,142
1712054351289,599616204071775322,71
1712054351297,599616204079438684,-2
1712054351305,599616204087102046,9
1712054351313,599616204094765408,64
1712054351321,599616204102428770,84
1712054351329,599616204110092132,84
1712054351336,599616204117755494,68
1712054351344,599616204125418856,48
1712054351352,599616204133082218,75
1712054351359,599616204140745580,119
1712054351367,599616204148408942,146
1712054351375,599616204156072304,160
1712054351382,599616204163735666,148
1712054351390,599616204171399028,123
1712054351398,599616204179062390,137
1712054351405,599616204186725752,176
1712054351413,599616204194389114,199
1712054351421,599616204202052476,217
1712054351428,599616204209715838,217
1712054351436,599616204217379200,183
1712054351444,599616204225042562,174
1712054351451,599616204232705924,213
1712054351459,599616204240369286,238
1712054351467,599616204248032648,249
1712054351473,599616204255696010,254
1712054351481,599616204263359372,219
1712054351489,599616204271022734,201
1712054351497,599616204278686096,235
1712054351505,599616204286349458,261
1712054351513,599616204294012820,270
1712054351520,599616204301676182,277
1712054351528,599616204309339544,268
1712054351536,599616204317002906,226
1712054351543,599616204324661260,183
1712054351551,599616204332324692,183
1712054351559,599616204339988124,210
1712054351566,599616204347651556,215
1712054351574,599616204355314988,146
1712054351582,599616204362978420,43
1712054351589,599616204370641852,36
1712054351597,599616204378305284,82
1712054351605,599616204385968716,50
1712054351612,599616204393632148,-25
1712054351620,599616204401295580,-116
1712054351628,599616204408959012,-201
1712054351635,599616204416622444,-174
1712054351643,599616204424285876,-96
1712054351651,599616204431949308,-68
1712054351657,599616204439612740,-59
1712054351665,599616204447276172,-57
1712054351673,599616204454939604,-73
1712054351681,599616204462603036,-68
1712054351689,599616204470266468,-22
1712054351697,599616204477929900,18
1712054351704,599616204485593332,34
1712054351712,599616204493256764,25
1712054351720,599616204500920196,-16
1712054351727,599616204508583628,-64
1712054351735,599616204516247060,-80
1712054351743,599616204523910492,-91
1712054351750,599616204531573924,-128
1712054351758,599616204539237356,-142
1712054351766,599616204546900788,-132
1712054351773,599616204554564220,-144
1712054351781,599616204562227652,-185
1712054351789,599616204569891084,-219
1712054351796,599616204577554516,-208
1712054351804,599616204585217948,-174
1712054351812,599616204592881380,-123
1712054351819,599616204600544812,-68
1712054351827,599616204608208244,-38
1712054351833,599616204615871676,-6
1712054351841,599616204623535108,34
1712054351849,599616204631198540,27
1712054351857,599616204638861972,11
1712054351865,599616204646525404,45
1712054351873,599616204654188836,80
1712054351880,599616204661852268,98
1712054351888,599616204669515700,112
1712054351896,599616204677179132,96
1712054351903,599616204684842564,148
1712054351911,599616204692505996,446
1712054351919,599616204700169428,982
1712054351926,599616204707832860,1262
1712054351934,599616204715496292,545
1712054351942,599616204723159724,-531
1712054351949,599616204730823156,-492
1712054351957,599616204738486588,109
1712054351965,599616204746150020,96
1712054351972,599616204753813452,-32
1712054351980,599616204761476884,137
1712054351988,599616204769140316,201
1712054351995,599616204776803748,176
1712054352003,599616204784467180,247
1712054352011,599616204792130612,277
1712054352017,599616204799794044,245
1712054352025,599616204807457476,233
1712054352033,599616204815120908,190
1712054352041,599616204822784340,153
1712054352049,599616204830447772,213
1712054352057,599616204838111204,268
1712054352064,599616204845774636,249
1712054352072,599616204853438068,235
1712054352080,599616204861101500,261
1712054352087,599616204868764932,293
1712054352095,599616204876428364,318
1712054352103,599616204884091804,355
1712054352110,599616204891755236,389
1712054352118,599616204899418668,332
1712054352126,599616204907082100,206
1712054352133,599616204914745532,192
1712054352141,599616204922408964,261
1712054352149,599616204930072396,279
1712054352156,599616204937735828,256
1712054352164,599616204945399260,176
1712054352172,599616204953062692,66
1712054352179,599616204960726124,64
1712054352187,599616204968389556,142
1712054352195,599616204976052988,187
1712054352201,599616204983716420,192
1712054352209,599616204991379852,192
1712054352217,599616204999043284,171
1712054352225,599616205006706716,135
1712054352233,599616205014370148,144
1712054352241,599616205022033580,199
1712054352248,599616205029697012,208
1712054352256,599616205037360444,114
1712054352264,599616205045023876,52
1712054352271,599616205052687308,57
1712054352279,599616205060350740,4
1712054352287,599616205068014172,0
1712054352294,599616205075677604,73
1712054352302,599616205083341036,64
1712054352310,599616205091004468,13
1712054352317,599616205098667900,25
1712054352325,599616205106331332,50
1712054352333,599616205113994764,77
1712054352340,599616205121658196,146
1712054352348,599616205129321628,180
1712054352356,599616205136985060,121
1712054352363,599616205144648492,61
1712054352371,599616205152311924,61
1712054352379,599616205159975356,54
1712054352385,599616205167638788,18
1712054352393,599616205175302220,-22
1712054352401,599616205182965652,-59
1712054352409,599616205190629084,-89
1712054352417,599616205198292516,-75
1712054352425,599616205205955948,-18
1712054352432,599616205213619380,-4
1712054352440,599616205221282812,-22
1712054352448,599616205228946244,-11
1712054352455,599616205236609676,-25
1712054352463,599616205244273108,-48
1712054352471,599616205251936540,-11
1712054352478,599616205259599972,34
1712054352486,599616205267263404,45
1712054352494,599616205274926836,43
1712054352501,599616205282590268,32
1712054352509,599616205290253700,20
1712054352517,599616205297917132,6
1712054352524,599616205305580564,-9
1712054352532,599616205313243996,-6
1712054352540,599616205320907428,6
1712054352547,599616205328570860,2
1712054352555,599616205336234292,2
1712054352563,599616205343897724,13
1712054352569,599616205351561156,50
1712054352577,599616205359224588,75
1712054352585,599616205366888020,54
1712054352593,599616205374551452,59
1712054352601,599616205382214884,96
1712054352608,599616205389878316,114
1712054352616,599616205397541748,103
1712054352624,599616205405205180,25
1712054352631,599616205412868612,-52
1712054352639,599616205420532044,2
1712054352647,599616205428195476,87
1712054352654,599616205435858908,57
1712054352662,599616205443522348,41
1712054352670,599616205451185780,89
1712054352677,599616205458849212,109
1712054352685,599616205466512644,153
1712054352693,599616205474176076,222
1712054352700,599616205481839508,233
1712054352708,599616205489502940,238
1712054352716,599616205497166372,247
1712054352723,599616205504829804,201
1712054352731,599616205512493236,185
1712054352739,599616205520156668,240
1712054352745,599616205527820100,199
1712054352753,599616205535483532,84
1712054352761,599616205543146964,82
1712054352769,599616205550810396,105
1712054352777,599616205558473828,226
1712054352785,599616205566137260,776
1712054352792,599616205573800692,1333
1712054352800,599616205581464124,810
1712054352808,599616205589127556,-432
1712054352815,599616205596790988,-664
1712054352823,599616205604454420,-18
1712054352831,599616205612117852,125
1712054352838,599616205619781284,-9
1712054352846,599616205627444716,125
1712054352854,599616205635108148,213
1712054352861,599616205642771580,178
1712054352869,599616205650435012,206
1712054352877,599616205658098444,263
1712054352884,599616205665761876,309
1712054352892,599616205673425308,306
1712054352900,599616205681088740,261
1712054352907,599616205688752172,249
1712054352915,599616205696415604,286
1712054352923,599616205704079036,332
1712054352929,599616205711742468,350
1712054352937,599616205719405900,343
1712054352945,599616205727069332,336
1712054352953,599616205734732764,313
1712054352961,599616205742396196,265
1712054352969,599616205750059628,263
1712054352976,599616205757723060,306
1712054352984,599616205765386492,323
1712054352992,599616205773049924,316
1712054352999,599616205780713356,302
1712054353007,599616205788376788,270
1712054353015,599616205796040220,219
1712054353022,599616205803703652,167
1712054353030,599616205811367084,167
1712054353038,599616205819030516,178
1712054353045,599616205826693948,114
1712054353053,599616205834357380,87
1712054353061,599616205842020812,153
1712054353068,599616205849684244,169
1712054353076,599616205857347676,112
1712054353084,599616205865011108,54
1712054353091,599616205872674540,-9
1712054353099,599616205880337972,-64
1712054353107,599616205888001404,-57
1712054353113,599616205895664836,-20
1712054353121,599616205903328268,-48
1712054353129,599616205910991700,-153
1712054353137,599616205918655132,-222
1712054353145,599616205926318564,-190
1712054353153,599616205933981996,-128
1712054353160,599616205941645428,-91
1712054353168,599616205949308860,-54
1712054353176,599616205956972292,-29
1712054353183,599616205964635724,-48
1712054353191,599616205972299156,-61
1712054353199,599616205979962588,-27
1712054353206,599616205987626020,18
1712054353214,599616205995289452,50
1712054353222,599616206002972980,71
1712054353229,599616206010636133,64
1712054353237,599616206018299286,43
1712054353245,599616206025962439,57
1712054353252,599616206033625592,80
1712054353260,599616206041288745,52
1712054353268,599616206048951898,-4
1712054353275,599616206056615051,-18
1712054353283,599616206064278204,-2
1712054353291,599616206071941357,6
1712054353297,599616206079604510,38
1712054353305,599616206087267663,89
1712054353313,599616206094930816,109
1712054353321,599616206102593969,107
1712054353329,599616206110257122,75
1712054353337,599616206117920275,0
1712054353344,599616206125583428,-16
1712054353352,599616206133246581,54
1712054353360,599616206140909734,89
1712054353367,599616206148572887,82
1712054353375,599616206156236040,98
1712054353383,599616206163899193,109
1712054353390,599616206171562346,109
1712054353398,599616206179225499,144
1712054353406,599616206186888652,180
1712054353413,599616206194551805,178
1712054353421,599616206202214958,183
1712054353428,599616206209878111,199
1712054353436,599616206217541264,201
1712054353444,599616206225204417,217
1712054353451,599616206232867570,247
1712054353459,599616206240530723,245
1712054353467,599616206248193876,240
1712054353473,599616206255857029,256
1712054353481,599616206263520182,258
1712054353489,599616206271183335,261
1712054353497,599616206278846488,274
1712054353505,599616206286509641,229
1712054353513,599616206294172794,155
1712054353520,599616206301835947,160
1712054353528,599616206309499100,190
1712054353536,599616206317162253,183
1712054353543,599616206324825406,192
1712054353551,599616206332488559,206
1712054353559,599616206340151712,206
1712054353566,599616206347814865,231
1712054353574,599616206355478018,256
1712054353582,599616206363141171,279
1712054353589,599616206370804324,316
1712054353597,599616206378467477,325
1712054353605,599616206386130630,313
1712054353612,599616206393793783,323
1712054353620,599616206401456936,318
1712054353628,599616206409120089,281
1712054353635,599616206416783242,201
1712054353643,599616206424446395,132
1712054353651,599616206432109548,146
1712054353657,599616206439772701,190
1712054353665,599616206447435854,263
1712054353673,599616206455099007,556
1712054353681,599616206462762160,1097
1712054353689,599616206470425313,1298
1712054353697,599616206478088466,487
1712054353704,599616206485751619,-458
1712054353712,599616206493414772,-274
1712054353720,599616206501077925,206
1712054353727,599616206508741078,84
1712054353735,599616206516404231,0
1712054353743,599616206524067384,183
1712054353750,599616206531730537,208
1712054353758,599616206539393690,130
1712054353766,599616206547056843,151
1712054353773,599616206554719996,167
1712054353781,599616206562373172,128
1712054353789,599616206570036464,142
1712054353796,599616206577699756,203
1712054353804,599616206585363048,235
1712054353812,599616206593026340,249
1712054353819,599616206600689632,242
1712054353827,599616206608352924,203
1712054353835,599616206616016216,190
1712054353841,599616206623679508,190
1712054353849,599616206631342800,171
1712054353857,599616206639006092,180
1712054353865,599616206646669384,167
1712054353873,599616206654332676,75
1712054353881,599616206661995968,45
1712054353888,599616206669659260,114
1712054353896,599616206677322552,153
1712054353904,599616206684985844,148
1712054353911,599616206692649136,151
1712054353919,599616206700312428,114
1712054353927,599616206707975720,71
1712054353934,599616206715639012,96
1712054353942,599616206723302304,130
1712054353950,599616206730965596,128
1712054353957,599616206738628888,105
1712054353965,599616206746292180,25
1712054353973,599616206753955472,-48
1712054353980,599616206761618764,-61
1712054353988,599616206769282056,-82
1712054353996,599616206776945348,-123
1712054354003,599616206784608640,-167
1712054354011,599616206792271932,-213
1712054354019,599616206799935224,-217
1712054354025,599616206807598516,-183
1712054354033,599616206815261808,-144
1712054354041,599616206822925100,-109
1712054354049,599616206830588392,-91
1712054354057,599616206838251684,-100
1712054354065,599616206845914976,-114
1712054354072,599616206853578268,-100
1712054354080,599616206861241560,-59
1712054354088,599616206868904852,-25
1712054354095,599616206876568144,-13
1712054354103,599616206884231436,-18
1712054354111,599616206891894728,-22
1712054354118,599616206899558020,-18
1712054354126,599616206907221312,4
1712054354134,599616206914884604,27
1712054354141,599616206922547896,-34
1712054354149,599616206930211188,-142
1712054354156,599616206937874480,-144
1712054354164,599616206945537772,-89
1712054354172,599616206953201064,-75
1712054354179,599616206960864356,-50
1712054354187,599616206968527648,-9
1712054354195,599616206976190940,-9
1712054354201,599616206983854232,-9
1712054354209,599616206991517524,9
1712054354217,599616206999180816,18
1712054354225,599616207006844108,38
1712054354233,599616207014507400,68
1712054354241,599616207022170692,45
1712054354248,599616207029833984,-22
1712054354256,599616207037497276,-64
1712054354264,599616207045160568,-48
1712054354271,599616207052823860,-11
1712054354279,599616207060487152,11
1712054354287,599616207068150444,22
1712054354294,599616207075813736,36
1712054354302,599616207083477028,54
1712054354310,599616207091140320,50
1712054354317,599616207098803612,48
1712054354325,599616207106466904,68
1712054354333,599616207114130196,82
1712054354340,599616207121813558,89
1712054354348,599616207129476572,128
1712054354356,599616207137139586,158
1712054354363,599616207144802600,162
1712054354371,599616207152465614,180
1712054354379,599616207160128628,183
1712054354385,599616207167791642,162
1712054354393,599616207175454656,169
1712054354401,599616207183117670,151
1712054354409,599616207190780684,80
1712054354417,599616207198443698,54
1712054354425,599616207206106712,87
1712054354432,599616207213769726,103
1712054354440,599616207221432740,167
1712054354448,599616207229095754,446
1712054354455,599616207236758768,969
1712054354463,599616207244421782,1221
1712054354471,599616207252084796,481
1712054354478,599616207259747810,-533
1712054354486,599616207267410824,-458
1712054354494,599616207275073838,36
1712054354501,599616207282736852,-64
1712054354509,599616207290399866,-160
1712054354517,599616207298062880,34
1712054354524,599616207305725894,98
1712054354532,599616207313388908,98
1712054354540,599616207321051922,183
1712054354547,599616207328714936,210
1712054354555,599616207336377950,167
1712054354563,599616207344040964,158
1712054354569,599616207351703978,190
1712054354577,599616207359366992,222
1712054354585,599616207367030006,249
1712054354593,599616207374693020,270
1712054354601,599616207382356034,258
1712054354609,599616207390019048,233
1712054354616,599616207397682062,245
1712054354624,599616207405345076,295
1712054354632,599616207413008090,332
1712054354639,599616207420671104,332
1712054354647,599616207428334118,247
1712054354655,599616207435997132,137
1712054354662,599616207443660146,153
1712054354670,599616207451323160,208
1712054354678,599616207458986174,164
1712054354685,599616207466649188,144
1712054354693,599616207474312202,162
1712054354701,599616207481975216,112
1712054354708,599616207489638230,71
1712054354716,599616207497301244,103
1712054354724,599616207504964258,121
1712054354731,599616207512627272,96
1712054354739,599616207520290286,29
1712054354747,599616207527953300,-66
1712054354753,599616207535616314,-91
1712054354761,599616207543279328,-32
1712054354769,599616207550942342,6
1712054354777,599616207558605356,22
1712054354785,599616207566268370,38
1712054354793,599616207573931384,-9
1712054354800,599616207581594398,-77
1712054354808,599616207589257412,-80
1712054354816,599616207596920426,-77
1712054354823,599616207604583440,-100
1712054354831,599616207612246454,-91
1712054354839,599616207619909468,-93
1712054354846,599616207627572482,-123
1712054354854,599616207635235496,-109
1712054354862,599616207642898510,-61
1712054354869,599616207650561524,-36
1712054354877,599616207658224538,-29
1712054354885,599616207665887552,-32
1712054354892,599616207673550566,-45
1712054354900,599616207681188530,-41
1712054354907,599616207688851892,-6
1712054354915,599616207696515254,27
1712054354923,599616207704178616,36
1712054354929,599616207711841978,25
1712054354937,599616207719505340,-22
1712054354945,599616207727168702,-91
1712054354953,599616207734832064,-91
1712054354961,599616207742495426,-27
1712054354969,599616207750158788,0
1712054354976,599616207757822150,-20
1712054354984,599616207765485512,-61
1712054354992,599616207773148874,-114
1712054354999,599616207780812236,-112
1712054355007,599616207788475598,-50
1712054355015,599616207796138960,-16
1712054355022,599616207803802322,-16
1712054355030,599616207811465684,0
1712054355038,599616207819129046,11
1712054355045,599616207826792408,6
1712054355053,599616207834455770,22
1712054355061,599616207842119132,48
1712054355068,599616207849782494,43
1712054355076,599616207857445856,50
1712054355084,599616207865109218,82
1712054355091,599616207872772580,105
1712054355099,599616207880435942,137
1712054355107,599616207888099304,176
1712054355113,599616207895762666,174
1712054355121,599616207903426028,162
1712054355129,599616207911089390,162
1712054355137,599616207918752752,137
1712054355145,599616207926416114,66
1712054355153,599616207934079476,-16
1712054355160,599616207941742838,-32
1712054355168,599616207949406200,11
1712054355176,599616207957069562,50
1712054355183,599616207964732924,160
1712054355191,599616207972396286,547
1712054355199,599616207980059648,1108
1712054355206,599616207987723010,1021
1712054355214,599616207995386372,-32
1712054355222,599616208003049734,-675
1712054355229,599616208010713096,-242
1712054355237,599616208018376458,34
1712054355245,599616208026039820,-132
1712054355252,599616208033703182,-61
1712054355260,599616208041366544,100
1712054355268,599616208049029906,119
1712054355275,599616208056693268,151
1712054355283,599616208064356630,183
1712054355291,599616208072019992,148
1712054355297,599616208079683354,142
1712054355305,599616208087346716,178
1712054355313,599616208095010078,210
1712054355321,599616208102673440,235
1712054355329,599616208110336802,245
1712054355337,599616208118000164,224
1712054355344,599616208125663526,213
1712054355352,599616208133326888,240
1712054355360,599616208140990250,279
1712054355367,599616208148653612,311
1712054355375,599616208156316974,332
1712054355383,599616208163980336,325
1712054355390,599616208171643698,306
1712054355398,599616208179307060,320
1712054355406,599616208186970422,357
1712054355413,599616208194633784,382
1712054355421,599616208202297146,391
1712054355429,599616208209960508,364
1712054355436,599616208217623870,306
1712054355444,599616208225287232,290
1712054355452,599616208232950594,313
1712054355459,599616208240634076,316
1712054355467,599616208248297159,304
1712054355475,599616208255960242,265
1712054355481,599616208263623325,174
1712054355489,599616208271286408,135
1712054355497,599616208278949491,183
1712054355505,599616208286612574,213
1712054355513,599616208294275657,217
1712054355521,599616208301938740,203
1712054355528,599616208309601823,116
1712054355536,599616208317264906,48
1712054355544,599616208324927989,96
1712054355551,599616208332591072,155
1712054355559,599616208340254155,160
1712054355567,599616208347917238,139
1712054355574,599616208355580321,75
1712054355582,599616208363243404,25
1712054355590,599616208370906487,57
1712054355597,599616208378569570,98
1712054355605,599616208386232653,103
1712054355613,599616208393895736,109
1712054355620,599616208401558819,93
1712054355628,599616208409221902,59
1712054355636,599616208416884985,71
1712054355643,599616208424548068,112
1712054355651,599616208432211151,105
1712054355657,599616208439874234,13
1712054355665,599616208447537317,-82
1712054355673,599616208455200400,-89
1712054355681,599616208462863483,-64
1712054355689,599616208470526566,-82
1712054355697,599616208478189649,-103
1712054355704,599616208485852732,-105
1712054355712,599616208493515815,-146
1712054355720,599616208501178898,-206
1712054355727,599616208508841981,-231
1712054355735,599616208516505064,-217
1712054355743,599616208524168147,-178
1712054355750,599616208531831230,-153
1712054355758,599616208539494313,-155
1712054355766,599616208547157396,-158
1712054355773,599616208554820479,-153
1712054355781,599616208562483562,-137
1712054355789,599616208570146645,-105
1712054355796,599616208577809728,-80
1712054355804,599616208585472811,-80
1712054355812,599616208593135894,-75
1712054355819,599616208600798977,-71
1712054355827,599616208608462060,-75
1712054355835,599616208616125143,-54
1712054355841,599616208623788226,-27
1712054355849,599616208631451309,-22
1712054355857,599616208639114392,0
1712054355865,599616208646777475,45
1712054355873,599616208654440558,64
1712054355881,599616208662103641,80
1712054355888,599616208669766724,98
1712054355896,599616208677429807,80
1712054355904,599616208685092890,54
1712054355911,599616208692755973,61
1712054355919,599616208700419056,73
1712054355927,599616208708082139,80
1712054355934,599616208715745222,93
1712054355942,599616208723408305,89
1712054355950,599616208731071388,121
1712054355957,599616208738734471,377
1712054355965,599616208746397554,916
1712054355973,599616208754060637,1241
1712054355980,599616208761723720,577
1712054355988,599616208769386803,-531
1712054355996,599616208777049886,-602
1712054356003,599616208784712969,-16
1712054356011,599616208792376052,11
1712054356019,599616208800014060,-123
1712054356025,599616208807677492,45
1712054356033,599616208815340924,132
1712054356041,599616208823004356,100
1712054356049,599616208830667788,162
1712054356057,599616208838331220,208
1712054356065,599616208845994652,176
1712054356072,599616208853658084,167
1712054356080,599616208861321516,178
1712054356088,599616208868984948,185
1712054356095,599616208876648380,213
1712054356103,599616208884311812,238
1712054356111,599616208891975244,190
1712054356118,599616208899638676,103
1712054356126,599616208907302108,93
1712054356134,599616208914965540,146
1712054356141,599616208922628972,183
1712054356149,599616208930292404,217
1712054356157,599616208937955836,245
1712054356164,599616208945619268,187
1712054356172,599616208953282700,80
1712054356180,599616208960946132,84
1712054356187,599616208968609564,158
1712054356195,599616208976272996,178
1712054356203,599616208983936428,180
1712054356209,599616208991599860,178
1712054356217,599616208999263292,103
1712054356225,599616209006926724,38
1712054356233,599616209014590156,75
1712054356241,599616209022253588,107
1712054356249,599616209029917020,91
1712054356256,599616209037580452,61
1712054356264,599616209045243884,18
1712054356272,599616209052907316,13
1712054356279,599616209060570748,64
1712054356287,599616209068234180,100
1712054356295,599616209075897612,119
1712054356302,599616209083561044,123
1712054356310,599616209091224476,91
1712054356318,599616209098887908,80
1712054356325,599616209106551340,123
1712054356333,599616209114214772,164
1712054356340,599616209121878204,183
1712054356348,599616209129541636,187
1712054356356,599616209137205068,160
1712054356363,599616209144868500,135
1712054356371,599616209152531932,169
1712054356379,599616209160195364,206
1712054356385,599616209167858796,217
1712054356393,599616209175522228,224
1712054356401,599616209183185660,201
1712054356409,599616209190849092,164
1712054356417,599616209198512524,183
1712054356425,599616209206175956,226
1712054356432,599616209213839388,222
1712054356440,599616209221502820,167
1712054356448,599616209229166252,98
1712054356455,599616209236829684,54
1712054356463,599616209244493116,11
1712054356471,599616209252156548,-22
1712054356478,599616209259819980,0
1712054356486,599616209267483412,34
1712054356494,599616209275146844,20
1712054356501,599616209282810276,2
1712054356509,599616209290473708,13
1712054356517,599616209298137140,45
1712054356524,599616209305800572,73
1712054356532,599616209313464004,84
1712054356540,599616209321127436,75
1712054356547,599616209328790868,54
1712054356555,599616209336454300,20
1712054356563,599616209344117732,-16
1712054356569,599616209351781164,-25
1712054356577,599616209359444604,-54
1712054356585,599616209367108036,-114
1712054356593,599616209374771468,-125
1712054356601,599616209382434900,-109
1712054356609,599616209390098332,-103
1712054356616,599616209397761764,-82
1712054356624,599616209405425196,-68
1712054356632,599616209413088628,-87
1712054356639,599616209420752060,-107
1712054356647,599616209428415492,-153
1712054356655,599616209436078924,-217
1712054356662,599616209443742356,-194
1712054356670,599616209451405788,-180
1712054356678,599616209459069220,-251
1712054356685,599616209466732652,-238
1712054356693,599616209474396084,-158
1712054356701,599616209482059516,-180
1712054356708,599616209489722948,-254
1712054356716,599616209497386380,-286
1712054356724,599616209505049812,-270
1712054356731,599616209512713244,-217
1712054356739,599616209520376676,-176
1712054356747,599616209528040108,-171
1712054356753,599616209535703540,-160
1712054356761,599616209543366972,-61
1712054356769,599616209551030404,251
1712054356777,599616209558693836,822
1712054356785,599616209566357268,1065
1712054356793,599616209574020700,231
1712054356800,599616209581684132,-774
1712054356808,599616209589347564,-588
1712054356816,599616209597010996,-59
1712054356823,599616209604674428,-137
1712054356831,599616209612337860,-160
1712054356839,599616209620001292,43
1712054356846,599616209627664724,59
1712054356854,599616209635328156,20
1712054356862,599616209642991588,71
1712054356869,599616209650655020,98
1712054356877,599616209658318452,114
1712054356885,599616209665981884,151
1712054356892,599616209673645316,155
1712054356900,599616209681308748,139
1712054356908,599616209688972180,148
1712054356915,599616209696635612,169
1712054356923,599616209704299044,201
1712054356931,599616209711962476,235
1712054356937,599616209719625908,242
1712054356945,599616209727289340,217
1712054356953,599616209734952772,169
1712054356961,599616209742616204,128
1712054356969,599616209750279636,151
1712054356977,599616209757943068,210
1712054356984,599616209765606500,229
1712054356992,599616209773269932,201
1712054357000,599616209780933364,183
1712054357007,599616209788596796,192
1712054357015,599616209796260228,215
1712054357023,599616209803923660,233
1712054357030,599616209811587092,238
1712054357038,599616209819250524,206
1712054357046,599616209826913956,153
1712054357053,599616209834577388,151
1712054357061,599616209842240820,185
1712054357069,599616209849904252,203
1712054357076,599616209857567684,217
1712054357084,599616209865231116,210
1712054357092,599616209872894548,162
1712054357099,599616209880557980,151
1712054357107,599616209888221412,197
1712054357115,599616209895884844,229
1712054357121,599616209903548276,240
1712054357129,599616209911211708,242
1712054357137,599616209918900276,213
1712054357145,599616209926563359,192
1712054357153,599616209934226442,226
1712054357161,599616209941889525,258
1712054357168,599616209949552608,268
1712054357176,599616209957215691,217
1712054357183,599616209964878774,52
1712054357191,599616209972541857,-73
1712054357199,599616209980204940,-45
1712054357206,599616209987868023,-34
1712054357214,599616209995531106,-48
1712054357222,599616210003194189,-2
1712054357229,599616210010857272,0
1712054357237,599616210018520355,-41
1712054357245,599616210026183438,-13
1712054357252,599616210033846521,38
1712054357260,599616210041509604,57
1712054357268,599616210049172687,73
1712054357275,599616210056835770,68
1712054357283,599616210064498853,43
1712054357291,599616210072161936,50
1712054357297,599616210079825019,91
1712054357305,599616210087488102,123
1712054357313,599616210095151185,132
1712054357321,599616210102814268,121
1712054357329,599616210110477351,75
1712054357337,599616210118140434,22
1712054357344,599616210125803517,29
1712054357352,599616210133466600,71
1712054357360,599616210141129683,77
1712054357367,599616210148792766,59
1712054357375,599616210156455849,52
1712054357383,599616210164118932,52
1712054357390,599616210171782015,59
1712054357398,599616210179445098,89
1712054357406,599616210187108181,107
1712054357413,599616210194771264,98
1712054357421,599616210202434347,91
1712054357429,599616210210097430,93
1712054357436,599616210217760513,89
1712054357444,599616210225423596,68
1712054357452,599616210233086679,-16
1712054357459,599616210240749762,-103
1712054357467,599616210248412845,-114
1712054357475,599616210256075928,-146
1712054357481,599616210263739011,-197
1712054357489,599616210271402094,-167
1712054357497,599616210279065177,-119
1712054357505,599616210286728260,-103
1712054357513,599616210294391343,-68
1712054357521,599616210302054426,-29
1712054357528,599616210309717509,-36
1712054357536,599616210317380592,-54
1712054357544,599616210325043675,-52
1712054357551,599616210332706758,-64
1712054357559,599616210340369841,-61
1712054357567,599616210348032924,-22
1712054357574,599616210355696007,-20
1712054357582,599616210363359090,-41
1712054357590,599616210371022173,-20
1712054357597,599616210378685256,73
1712054357605,599616210386348339,412
1712054357613,599616210394011422,1012
1712054357620,599616210401674505,1120
1712054357628,599616210409337588,128
1712054357636,599616210417000671,-767
1712054357643,599616210424663754,-439
1712054357651,599616210432326837,22
1712054357659,599616210439989920,-89
1712054357665,599616210447653003,-77
1712054357673,599616210455316086,89
1712054357681,599616210462979169,52
1712054357689,599616210470642252,-77
1712054357697,599616210478285302,-158
1712054357705,599616210485948664,-135
1712054357712,599616210493612026,-61
1712054357720,599616210501275388,-43
1712054357728,599616210508938750,-57
1712054357735,599616210516602112,-38
1712054357743,599616210524265474,-2
1712054357751,599616210531928836,38
1712054357758,599616210539592198,80
1712054357766,599616210547255560,66
1712054357774,599616210554918922,-13
1712054357781,599616210562582284,-38
1712054357789,599616210570245646,27
1712054357797,599616210577909008,84
1712054357804,599616210585572370,112
1712054357812,599616210593235732,144
1712054357820,599616210600899094,137
1712054357827,599616210608562456,105
1712054357835,599616210616225818,121
1712054357843,599616210623889180,164
1712054357849,599616210631552542,180
1712054357857,599616210639215904,180
1712054357865,599616210646879266,162
1712054357873,599616210654542628,119
1712054357881,599616210662205990,107
1712054357888,599616210669869352,139
1712054357896,599616210677532714,164
1712054357904,599616210685196076,178
1712054357911,599616210692859438,171
1712054357919,599616210700522800,132
1712054357927,599616210708186162,119
1712054357934,599616210715849524,139
1712054357942,599616210723512886,109
1712054357950,599616210731176248,71
1712054357957,599616210738839610,89
1712054357965,599616210746502972,82
1712054357973,599616210754166334,61
1712054357980,599616210761829696,107
1712054357988,599616210769493058,158
1712054357996,599616210777156420,171
1712054358003,599616210784819782,183
1712054358011,599616210792483144,167
1712054358019,599616210800146506,137
1712054358025,599616210807809868,153
1712054358033,599616210815473230,197
1712054358041,599616210823136592,217
1712054358049,599616210830799954,217
1712054358057,599616210838463316,197
1712054358065,599616210846126678,169
1712054358072,599616210853790040,180
1712054358080,599616210861453402,217
1712054358088,599616210869116764,233
1712054358095,599616210876780126,229
1712054358103,599616210884443488,183
1712054358111,599616210892106850,107
1712054358118,599616210899770212,82
1712054358126,599616210907433574,119
1712054358134,599616210915096936,142
1712054358141,599616210922760298,139
1712054358149,599616210930423660,130
1712054358157,599616210938087022,109
1712054358164,599616210945750384,96
1712054358172,599616210953413746,112
1712054358180,599616210961077108,128
1712054358187,599616210968740470,57
1712054358195,599616210976403832,-89
1712054358203,599616210984067194,-171
1712054358209,599616210991730556,-146
1712054358217,599616210999393918,-114
1712054358225,599616211007057280,-128
1712054358233,599616211014720642,-148
1712054358241,599616211022384004,-171
1712054358249,599616211030047366,-224
1712054358256,599616211037735814,-263
1712054358264,599616211045398828,-245
1712054358272,599616211053061842,-201
1712054358279,599616211060724856,-185
1712054358287,599616211068387870,-194
1712054358295,599616211076050884,-192
1712054358302,599616211083713898,-215
1712054358310,599616211091376912,-286
1712054358318,599616211099039926,-279
1712054358325,599616211106702940,-194
1712054358333,599616211114365954,-151
1712054358341,599616211122028968,-125
1712054358348,599616211129691982,-84
1712054358356,599616211137354996,-91
1712054358364,599616211145018010,-114
1712054358371,599616211152681024,-100
1712054358379,599616211160344038,-89
1712054358387,599616211168007052,-66
1712054358393,599616211175670066,-22
1712054358401,599616211183333080,-16
1712054358409,599616211190996094,-32
1712054358417,599616211198659108,18
1712054358425,599616211206322122,251
1712054358433,599616211213985136,730
1712054358440,599616211221648150,1046
1712054358448,599616211229311164,421
1712054358456,599616211236974178,-666
1712054358463,599616211244637192,-726
1712054358471,599616211252300206,-146
1712054358479,599616211259963220,-114
1712054358486,599616211267626234,-199
1712054358494,599616211275289248,2
1712054358502,599616211282952262,75
1712054358509,599616211290615276,18
1712054358517,599616211298278290,59
1712054358525,599616211305941304,105
1712054358532,599616211313604318,119
1712054358540,599616211321267332,153
1712054358548,599616211328930346,169
1712054358555,599616211336593360,146
1712054358563,599616211344256374,144
1712054358571,599616211351919388,174
1712054358577,599616211359582402,206
1712054358585,599616211367245416,238
1712054358593,599616211374908430,256
1712054358601,599616211382571444,242
1712054358609,599616211390234458,229
1712054358617,599616211397897472,251
1712054358624,599616211405560486,293
1712054358632,599616211413223500,318
1712054358640,599616211420886514,329
1712054358647,599616211428549528,313
1712054358655,599616211436212542,274
1712054358662,599616211443875556,261
1712054358670,599616211451538570,281
1712054358678,599616211459201584,249
1712054358685,599616211466864598,178
1712054358693,599616211474527612,132
1712054358701,599616211482190626,52
1712054358708,599616211489853640,-29
1712054358716,599616211497516654,11
1712054358724,599616211505179668,82
1712054358731,599616211512842682,91
1712054358739,599616211520505696,87
1712054358747,599616211528168710,66
1712054358753,599616211535831724,59
1712054358761,599616211543494738,103
1712054358769,599616211551157752,144
1712054358777,599616211558820766,158
1712054358785,599616211566483780,169
1712054358793,599616211574146794,148
1712054358800,599616211581809808,128
1712054358808,599616211589472822,155
1712054358816,599616211597115826,197
1712054358823,599616211604779118,215
1712054358831,599616211612442410,215
1712054358839,599616211620105702,139
1712054358846,599616211627768994,0
1712054358854,599616211635432286,-45
1712054358862,599616211643095578,18
1712054358869,599616211650758870,57
1712054358877,599616211658422162,50
1712054358885,599616211666085454,32
1712054358892,599616211673748746,6
1712054358900,599616211681412038,11
1712054358908,599616211689075330,50
1712054358915,599616211696738622,75
1712054358923,599616211704401914,43
1712054358931,599616211712065206,-25
1712054358937,599616211719728498,-59
1712054358945,599616211727391790,-38
1712054358953,599616211735055082,-2
1712054358961,599616211742718374,13
1712054358969,599616211750381666,-27
1712054358977,599616211758044958,-80
1712054358984,599616211765708250,-112
1712054358992,599616211773371542,-148
1712054359000,599616211781034834,-155
1712054359007,599616211788698126,-112
1712054359015,599616211796361418,-96
1712054359023,599616211804024710,-123
1712054359030,599616211811688002,-121
1712054359038,599616211819351294,-105
1712054359046,599616211827014586,-98
1712054359053,599616211834677878,-54
1712054359061,599616211842341170,-2
1712054359069,599616211850004462,2
1712054359076,599616211857667754,-6
1712054359084,599616211865331046,-9
1712054359092,599616211872994338,-29
1712054359099,599616211880657630,-27
1712054359107,599616211888320922,2
1712054359115,599616211895984214,6
1712054359121,599616211903647506,13
1712054359129,599616211911310798,32
1712054359137,599616211918974090,22
1712054359145,599616211926637382,107
1712054359153,599616211934300674,487
1712054359161,599616211941963966,1021
1712054359168,599616211949627258,941
1712054359176,599616211957290550,-128
1712054359184,599616211964953842,-863
1712054359191,599616211972617134,-419
1712054359199,599616211980280426,-82
1712054359207,599616211987943718,-341
1712054359214,599616211995607010,-316
1712054359222,599616212003270302,-66
1712054359230,599616212010933594,-54
1712054359237,599616212018596886,-82
1712054359245,599616212026260178,-9
1712054359253,599616212033923470,4
1712054359260,599616212041586762,-2
1712054359268,599616212049250054,54
1712054359276,599616212056913346,89
1712054359283,599616212064576638,68
1712054359291,599616212072239930,71
1712054359299,599616212079903222,96
1712054359305,599616212087566514,116
1712054359313,599616212095229806,151
1712054359321,599616212102893098,183
1712054359329,599616212110556390,185
1712054359337,599616212118219682,176
1712054359345,599616212125882974,187
1712054359352,599616212133546266,210
1712054359360,599616212141209558,245
1712054359367,599616212148872850,281
1712054359375,599616212156576302,284
1712054359383,599616212164239037,249
1712054359391,599616212171901772,222
1712054359398,599616212179564507,224
1712054359406,599616212187227242,240
1712054359414,599616212194889977,222
1712054359421,599616212202552712,139
1712054359429,599616212210215447,50
1712054359436,599616212217878182,20
1712054359444,599616212225540917,36
1712054359452,599616212233203652,66
1712054359459,599616212240866387,100
1712054359467,599616212248529122,112
1712054359475,599616212256191857,52
1712054359481,599616212263854592,-38
1712054359489,599616212271517327,-34
1712054359497,599616212279180062,27
1712054359505,599616212286842797,59
1712054359513,599616212294505532,84
1712054359521,599616212302168267,93
1712054359528,599616212309831002,66
1712054359536,599616212317493737,68
1712054359544,599616212325156472,114
1712054359551,599616212332819207,151
1712054359559,599616212340481942,171
1712054359567,599616212348144677,174
1712054359574,599616212355807412,139
1712054359582,599616212363470147,130
1712054359590,599616212371132882,169
1712054359597,599616212378795617,199
1712054359605,599616212386458352,213
1712054359613,599616212394121087,197
1712054359620,599616212401783822,116
1712054359628,599616212409446557,64
1712054359636,599616212417109292,96
1712054359643,599616212424772027,130
1712054359651,599616212432434762,132
1712054359659,599616212440097497,112
1712054359665,599616212447760232,36
1712054359673,599616212455422967,-38
1712054359681,599616212463085702,-11
1712054359689,599616212470748437,52
1712054359697,599616212478411172,45
1712054359705,599616212486073907,-50
1712054359712,599616212493736642,-153
1712054359720,599616212501399377,-155
1712054359728,599616212509062112,-109
1712054359735,599616212516724847,-116
1712054359743,599616212524387582,-125
1712054359751,599616212532050317,-98
1712054359758,599616212539713052,-114
1712054359766,599616212547375787,-162
1712054359774,599616212555038522,-171
1712054359781,599616212562701257,-148
1712054359789,599616212570363992,-137
1712054359797,599616212578026727,-132
1712054359804,599616212585689462,-125
1712054359812,599616212593352197,-125
1712054359820,599616212601014932,-130
1712054359827,599616212608677667,-121
1712054359835,599616212616340402,-66
1712054359843,599616212624003137,142
1712054359849,599616212631665872,577
1712054359857,599616212639328607,895
1712054359865,599616212646991342,377
1712054359873,599616212654654077,-597
1712054359881,599616212662316812,-659
1712054359889,599616212669979547,-114
1712054359896,599616212677642282,-77
1712054359904,599616212685305017,-197
1712054359912,599616212692967752,-96
1712054359919,599616212700630487,-77
1712054359927,599616212708293222,-82
1712054359935,599616212715925886,-2
1712054359942,599616212723589039,20
1712054359950,599616212731252192,20
1712054359958,599616212738915345,57
1712054359965,599616212746578498,66
1712054359973,599616212754241651,71
1712054359981,599616212761904804,96
1712054359988,599616212769567957,100
1712054359996,599616212777231110,107
1712054360004,599616212784894263,130
1712054360011,599616212792557416,98
1712054360019,599616212800220569,34
1712054360027,599616212807883722,48
1712054360033,599616212815546875,98
1712054360041,599616212823210028,123
1712054360049,599616212830873181,162
1712054360057,599616212838536334,185
1712054360065,599616212846199487,169
1712054360072,599616212853862640,158
1712054360080,599616212861525793,162
1712054360088,599616212869188946,171
1712054360095,599616212876852099,185
1712054360103,599616212884515252,185
1712054360111,599616212892178405,162
1712054360118,599616212899841558,128
1712054360126,599616212907504711,105
1712054360134,599616212915167864,105
1712054360141,599616212922831017,130
1712054360149,599616212930494170,142
1712054360157,599616212938157323,100
1712054360164,599616212945820476,41
1712054360172,599616212953483629,38
1712054360180,599616212961146782,73
1712054360187,599616212968809935,98
1712054360195,599616212976473088,123
1712054360203,599616212984136241,146
1712054360209,599616212991799394,103
1712054360217,599616212999462547,0
1712054360225,599616213007125700,-20
1712054360233,599616213014788853,54
1712054360241,599616213022452006,96
1712054360249,599616213030115159,93
1712054360256,599616213037778312,75
1712054360264,599616213045441465,45
1712054360272,599616213053104618,61
1712054360279,599616213060767771,112
1712054360287,599616213068430924,144
1712054360295,599616213076094077,169
1712054360302,599616213083757230,164
1712054360310,599616213091420383,116
1712054360318,599616213099083536,114
1712054360325,599616213106746689,162
1712054360333,599616213114409842,192
1712054360341,599616213122072995,201
1712054360348,599616213129736148,201
1712054360356,599616213137399301,162
1712054360364,599616213145062454,144
1712054360371,599616213152725607,185
1712054360379,599616213160388760,213
1712054360387,599616213168051913,217
1712054360393,599616213175715066,219
1712054360401,599616213183378219,160
1712054360409,599616213191041372,84
1712054360417,599616213198704525,93
1712054360425,599616213206367678,128
1712054360433,599616213214030831,116
1712054360440,599616213221693984,105
1712054360448,599616213229357137,84
1712054360456,599616213237020290,52
1712054360463,599616213244683443,59
1712054360471,599616213252346596,75
1712054360479,599616213260009749,80
1712054360486,599616213267672902,98
1712054360494,599616213275351134,93
1712054360502,599616213283014078,57
1712054360509,599616213290677022,43
1712054360517,599616213298339966,96
1712054360525,599616213306002910,286
1712054360532,599616213313665854,696
1712054360540,599616213321328798,1019
1712054360548,599616213328991742,490
1712054360555,599616213336654686,-586
1712054360563,599616213344317630,-781
1712054360571,599616213351980574,-288
1712054360577,599616213359643518,-238
1712054360585,599616213367306462,-352
1712054360593,599616213374969406,-217
1712054360601,599616213382632350,-148
1712054360609,599616213390295294,-155
1712054360617,599616213397958238,-91
1712054360624,599616213405621182,-59
1712054360632,599616213413284126,-75
1712054360640,599616213420947070,-61
1712054360647,599616213428610014,-61
1712054360655,599616213436272958,-109
1712054360663,599616213443935902,-105
1712054360670,599616213451598846,-48
1712054360678,599616213459261790,-38
1712054360686,599616213466924734,-38
1712054360693,599616213474587678,-18
1712054360701,599616213482250622,-4
1712054360709,599616213489913566,11
1712054360716,599616213497576510,-36
1712054360724,599616213505239454,-125
1712054360732,599616213512902398,-98
1712054360739,599616213520565342,-20
1712054360747,599616213528228286,-22
1712054360755,599616213535891230,-11
1712054360761,599616213543554174,32
1712054360769,599616213551217118,25
1712054360777,599616213558880062,16
1712054360785,599616213566543006,41
1712054360793,599616213574205950,32
1712054360800,599616213581868894,11
1712054360808,599616213589531838,25
1712054360816,599616213597194782,13
1712054360823,599616213604857726,-2
1712054360831,599616213612520670,27
1712054360839,599616213620183614,45
1712054360846,599616213627846558,25
1712054360854,599616213635509502,27
1712054360862,599616213643172446,48
1712054360869,599616213650835390,64
1712054360877,599616213658498334,96
1712054360885,599616213666161278,125
1712054360892,599616213673824222,112
1712054360900,599616213681487166,50
1712054360908,599616213689150110,20
1712054360915,599616213696813054,61
1712054360923,599616213704475998,107
1712054360931,599616213712138942,123
1712054360937,599616213719801886,128
1712054360945,599616213727464830,119
1712054360953,599616213735127774,112
1712054360961,599616213742790718,125
1712054360969,599616213750453662,162
1712054360977,599616213758116606,190
1712054360984,599616213765779550,187
1712054360992,599616213773442494,164
1712054361000,599616213781105438,155
1712054361007,599616213788768382,160
1712054361015,599616213796431326,180
1712054361023,599616213804094270,206
1712054361030,599616213811757214,219
1712054361038,599616213819420158,194
1712054361046,599616213827083102,153
1712054361053,599616213834746074,167
1712054361061,599616213842409018,208
1712054361069,599616213850071962,215
1712054361076,599616213857734906,217
1712054361084,599616213865397850,210
1712054361092,599616213873060794,176
1712054361099,599616213880723738,187
1712054361107,599616213888386682,247
1712054361115,599616213896049626,277
1712054361121,599616213903712570,281
1712054361129,599616213911375514,279
1712054361137,599616213919038458,224
1712054361145,599616213926701402,132
1712054361153,599616213934364346,114
1712054361161,599616213942027290,171
1712054361168,599616213949690234,201
1712054361176,599616213957353178,160
1712054361184,599616213965016122,59
1712054361191,599616213972679066,66
1712054361199,599616213980342010,387
1712054361207,599616213988004954,886
1712054361214,599616213995667898,932
1712054361222,599616214003330842,48
1712054361230,599616214010993786,-776
1712054361237,599616214018656730,-510
1712054361245,599616214026319674,-82
1712054361253,599616214033982618,-176
1712054361260,599616214041645562,-197
1712054361268,599616214049308506,-71
1712054361276,599616214056971450,-89
1712054361283,599616214064634394,-123
1712054361291,599616214072297338,-61
1712054361299,599616214079960282,-16
1712054361305,599616214087623226,0
1712054361313,599616214095286170,22
1712054361321,599616214102949114,25
1712054361329,599616214110612058,-2
1712054361337,599616214118275002,4
1712054361345,599616214125937946,52
1712054361352,599616214133600890,89
1712054361360,599616214141263834,100
1712054361368,599616214148926778,96
1712054361375,599616214156589722,61
1712054361383,599616214164252666,-11
1712054361391,599616214171915610,-82
1712054361398,599616214179578554,-116
1712054361406,599616214187241498,-130
1712054361414,599616214194904442,-132
1712054361421,599616214202567386,-125
1712054361429,599616214210230330,-130
1712054361437,599616214217893274,-121
1712054361444,599616214225556218,-93
1712054361452,599616214233219162,-89
1712054361460,599616214240882106,-107
1712054361467,599616214248545050,-114
1712054361475,599616214256207994,-125
1712054361481,599616214263870938,-135
1712054361489,599616214271533882,-116
1712054361497,599616214279196826,-98
1712054361505,599616214286859770,-109
1712054361513,599616214294522714,-109
1712054361521,599616214302185658,-91
1712054361528,599616214309848602,-84
1712054361536,599616214317511546,-68
1712054361544,599616214325174490,-43
1712054361551,599616214332837434,-36
1712054361559,599616214340500378,-20
1712054361567,599616214348163322,9
1712054361574,599616214355826266,6
1712054361582,599616214363489210,6
1712054361590,599616214371152154,34
1712054361597,599616214378815098,48
1712054361605,599616214386478042,59
1712054361613,599616214394135974,89
1712054361620,599616214401798988,93
1712054361628,599616214409462002,64
1712054361636,599616214417125016,16
1712054361643,599616214424788030,-29
1712054361651,599616214432451044,-13
1712054361659,599616214440114058,38
1712054361665,599616214447777072,11
1712054361673,599616214455440086,-71
1712054361681,599616214463103100,-82
1712054361689,599616214470766114,-41
1712054361697,599616214478429128,-16
1712054361705,599616214486092142,18
1712054361712,599616214493755156,41
1712054361720,599616214501418170,-29
1712054361728,599616214509081184,-123
1712054361735,599616214516744198,-96
1712054361743,599616214524407212,-9
1712054361751,599616214532070226,41
1712054361758,599616214539733240,68
1712054361766,599616214547396254,75
1712054361774,599616214555059268,54
1712054361781,599616214562722282,34
1712054361789,599616214570385296,43
1712054361797,599616214578048310,80
1712054361804,599616214585711324,119
1712054361812,599616214593374338,123
1712054361820,599616214601037352,96
1712054361827,599616214608700366,77
1712054361835,599616214616363380,119
1712054361843,599616214624026394,300
1712054361849,599616214631689408,691
1712054361857,599616214639352422,1024
1712054361865,599616214647015436,607
1712054361873,599616214654678450,-343
1712054361881,599616214662341464,-561
1712054361889,599616214670004478,-123
1712054361896,599616214677667492,-9
1712054361904,599616214685330506,-57
1712054361912,599616214692993520,61
1712054361919,599616214700656534,114
1712054361927,599616214708319548,93
1712054361935,599616214715982562,148
1712054361942,599616214723645576,197
1712054361950,599616214731308590,203
1712054361958,599616214738971604,208
1712054361965,599616214746634618,190
1712054361973,599616214754297632,176
1712054361981,599616214761960646,215
1712054361988,599616214769623660,258
1712054361996,599616214777286674,274
1712054362004,599616214784949688,277
1712054362011,599616214792612702,251
1712054362019,599616214800275716,231
1712054362027,599616214807938730,265
1712054362033,599616214815601744,318
1712054362041,599616214823264758,341
1712054362049,599616214830927772,345
1712054362057,599616214838590786,318
1712054362065,599616214846253800,279
1712054362073,599616214853916814,295
1712054362080,599616214861579828,297
1712054362088,599616214869242842,235
1712054362096,599616214876905856,201
1712054362103,599616214884568870,185
1712054362111,599616214892231884,142
1712054362119,599616214899894898,112
1712054362126,599616214907557912,73
1712054362134,599616214915220926,0
1712054362142,599616214922883940,-16
1712054362149,599616214930546954,4
1712054362157,599616214938209968,-16
1712054362164,599616214945872982,-25
1712054362172,599616214953536000,13
1712054362180,599616214961199014,52
1712054362187,599616214968862028,71
1712054362195,599616214976525042,50
1712054362203,599616214984188056,-41
1712054362209,599616214991851070,-162
1712054362217,599616214999514084,-231
1712054362225,599616215007177098,-284
1712054362233,599616215014840112,-306
1712054362241,599616215022503126,-279
1712054362249,599616215030166140,-279
1712054362256,599616215037829154,-297
1712054362264,599616215045492168,-261
1712054362272,599616215053155182,-199
1712054362279,599616215060818196,-178
1712054362287,599616215068481210,-187
1712054362295,599616215076144224,-180
1712054362302,599616215083807238,-148
1712054362310,599616215091470252,-144
1712054362318,599616215099133266,-137
1712054362325,599616215106796280,-96
1712054362333,599616215114459294,-82
1712054362341,599616215122122308,-82
1712054362348,599616215129785322,-61
1712054362356,599616215137448336,-50
1712054362364,599616215145111350,-52
1712054362371,599616215152774364,-77
1712054362379,599616215160437378,-125
1712054362387,599616215168100392,-107
1712054362393,599616215175763406,-25
1712054362401,599616215183426420,-4
1712054362409,599616215191089434,-18
1712054362417,599616215198752448,2
1712054362425,599616215206415462,6
1712054362433,599616215214078476,0
1712054362440,599616215221741490,29
1712054362448,599616215229404504,50
1712054362456,599616215237067518,38
1712054362463,599616215244730532,43
1712054362471,599616215252393546,50
1712054362479,599616215260056560,96
1712054362486,599616215267719574,311
1712054362494,599616215275382588,680
1712054362502,599616215283045602,806
1712054362509,599616215290708616,215
1712054362517,599616215298371630,-492
1712054362525,599616215306034644,-343
1712054362532,599616215313697658,59
1712054362540,599616215321360672,25
1712054362548,599616215329023686,27
1712054362555,599616215336686700,180
1712054362563,599616215344349714,183
1712054362571,599616215352012728,160
1712054362577,599616215359675742,240
1712054362585,599616215367338756,274
1712054362593,599616215375001770,247
1712054362601,599616215382664784,245
1712054362609,599616215390327798,242
1712054362617,599616215397990812,194
1712054362624,599616215405653826,153
1712054362632,599616215413316840,167
1712054362640,599616215420979854,194
1712054362647,599616215428642868,176
1712054362655,599616215436305882,151
1712054362663,599616215443968896,183
1712054362670,599616215451631910,242
1712054362678,599616215459294924,274
1712054362686,599616215466957938,288
1712054362693,599616215474620952,277
1712054362701,599616215482283966,245
1712054362709,599616215489946980,249
1712054362716,599616215497609994,279
1712054362724,599616215505273008,238
1712054362732,599616215512936026,130
1712054362739,599616215520599040,71
1712054362747,599616215528262054,61
1712054362755,599616215535925068,57
1712054362761,599616215543588082,80
1712054362769,599616215551251096,119
1712054362777,599616215558914110,142
1712054362785,599616215566577124,114
1712054362793,599616215574240138,11
1712054362801,599616215581903152,-64
1712054362808,599616215589566166,-48
1712054362816,599616215597229180,-34
1712054362824,599616215604892194,-32
1712054362831,599616215612555208,-9
1712054362839,599616215620218222,-29
1712054362847,599616215627881236,-61
1712054362854,599616215635544250,-22
1712054362862,599616215643207264,11
1712054362869,599616215650870278,-45
1712054362877,599616215658533292,-84
1712054362885,599616215666196306,-68
1712054362892,599616215673859320,-75
1712054362900,599616215681522334,-61
1712054362908,599616215689185348,6
1712054362915,599616215696848362,45
1712054362923,599616215704511376,32
1712054362931,599616215712174390,-25
1712054362937,599616215719837404,-82
1712054362945,599616215727500418,-112
1712054362953,599616215735163432,-132
1712054362961,599616215742826446,-114
1712054362969,599616215750489460,-87
1712054362977,599616215758152474,-103
1712054362984,599616215765815488,-128
1712054362992,599616215773478502,-121
1712054363000,599616215781141516,-87
1712054363007,599616215788804530,-54
1712054363015,599616215796467544,-38
1712054363023,599616215804130558,-18
1712054363030,599616215811793572,-6
1712054363038,599616215819456586,-6
1712054363046,599616215827119600,2
1712054363053,599616215834782614,25
1712054363061,599616215842445628,32
1712054363069,599616215850108642,13
1712054363076,599616215857771656,6
1712054363084,599616215865434670,18
1712054363092,599616215873097684,27
1712054363099,599616215880760698,43
1712054363107,599616215888423712,45
1712054363115,599616215896086726,34
1712054363121,599616215903749740,199
1712054363129,599616215911412754,575
1712054363137,599616215919075768,625
1712054363145,599616215926738782,-57
1712054363153,599616215934401796,-609
1712054363161,599616215942064810,-311
1712054363168,599616215949727824,-2
1712054363176,599616215957390838,-71
1712054363184,599616215965053852,-16
1712054363191,599616215972716866,123
1712054363199,599616215980379880,142
1712054363207,599616215988042894,135
1712054363214,599616215995705908,171
1712054363222,599616216003368922,192
1712054363230,599616216011031936,137
1712054363237,599616216018694950,59
1712054363245,599616216026357964,61
1712054363253,599616216034020978,87
1712054363260,599616216041683992,93
1712054363268,599616216049347006,130
1712054363276,599616216057010020,153
1712054363283,599616216064673034,144
1712054363291,599616216072326044,151
1712054363299,599616216079989197,162
1712054363305,599616216087652350,183
1712054363313,599616216095315503,229
1712054363321,599616216102978656,254
1712054363329,599616216110641809,231
1712054363337,599616216118304962,215
1712054363345,599616216125968115,219
1712054363352,599616216133631268,199
1712054363360,599616216141294421,148
1712054363368,599616216148957574,98
1712054363375,599616216156620727,36
1712054363383,599616216164283880,-38
1712054363391,599616216171947033,-52
1712054363398,599616216179610186,-11
1712054363406,599616216187273339,22
1712054363414,599616216194936492,61
1712054363421,599616216202599645,77
1712054363429,599616216210262798,52
1712054363437,599616216217925951,36
1712054363444,599616216225589104,61
1712054363452,599616216233252257,98
1712054363460,599616216240915410,130
1712054363467,599616216248578563,153
1712054363475,599616216256241716,142
1712054363483,599616216263904869,116
1712054363489,599616216271568022,130
1712054363497,599616216279231175,137
1712054363505,599616216286894328,98
1712054363513,599616216294557481,93
1712054363521,599616216302220634,103
1712054363529,599616216309883787,64
