phoneTimestamp,sensorTimestamp,ecg
1712258505640,599616047848932744,927
1712258505647,599616047856597430,963
1712258505655,599616047864262116,998
1712258505662,599616047871926802,993
1712258505670,599616047879591488,966
1712258505678,599616047887256174,950
1712258505685,599616047894920860,973
1712258505693,599616047902585546,1021
1712258505701,599616047910250232,1048
1712258505708,599616047917914918,1051
1712258505716,599616047925579604,1044
1712258505724,599616047933244290,998
1712258505731,599616047940908976,963
1712258505739,599616047948573662,1009
1712258505747,599616047956238348,1060
1712258505753,599616047963903034,1046
1712258505761,599616047971567720,1048
1712258505769,599616047979232406,1090
1712258505777,599616047986897092,1113
1712258505785,599616047994561778,1119
1712258505793,599616048002226464,1124
1712258505800,599616048009891150,1076
1712258505808,599616048017555836,1007
1712258505816,599616048025220522,1007
1712258505823,599616048032885208,1016
1712258505831,599616048040549894,993
1712258505839,599616048048214580,982
1712258505846,599616048055879266,945
1712258505854,599616048063543952,878
1712258505862,599616048071208638,872
1712258505869,599616048078873324,911
1712258505877,599616048086538010,924
1712258505885,599616048094202696,913
1712258505892,599616048101867382,867
1712258505900,599616048109532068,787
1712258505908,599616048117196754,771
1712258505915,599616048124861440,830
1712258505923,599616048132526126,862
1712258505931,599616048140190812,858
1712258505937,599616048147855498,846
1712258505945,599616048155520184,805
1712258505953,599616048163184870,759
1712258505961,599616048170849556,745
1712258505969,599616048178514242,702
1712258505977,599616048186178928,637
1712258505984,599616048193843614,633
1712258505992,599616048201508300,642
1712258506000,599616048209172986,626
1712258506007,599616048216837672,647
1712258506015,599616048224502358,690
1712258506023,599616048232167044,704
1712258506030,599616048239831730,693
1712258506038,599616048247496416,699
1712258506046,599616048255161102,706
1712258506053,599616048262825788,709
1712258506061,599616048270490474,743
1712258506069,599616048278155160,780
1712258506076,599616048285819846,782
1712258506084,599616048293484532,794
1712258506092,599616048301149218,819
1712258506099,599616048308813904,803
1712258506107,599616048316478590,734
1712258506115,599616048324143276,658
1712258506121,599616048331807962,674
1712258506129,599616048339472648,741
1712258506137,599616048347137334,759
1712258506145,599616048354802020,755
1712258506153,599616048362466706,784
1712258506161,599616048370131392,828
1712258506168,599616048377796078,839
1712258506176,599616048385460764,853
1712258506184,599616048393125450,895
1712258506191,599616048400790136,917
1712258506199,599616048408454842,945
1712258506207,599616048416119528,1039
1712258506214,599616048423784214,1131
1712258506222,599616048431448900,1149
1712258506230,599616048439113586,1115
1712258506237,599616048446778272,982
1712258506245,599616048454442958,892
1712258506253,599616048462107644,995
1712258506260,599616048469772330,1064
1712258506268,599616048477437016,1046
1712258506276,599616048485101702,1110
1712258506283,599616048492766388,1154
1712258506291,599616048500431074,1078
1712258506299,599616048508095760,1041
1712258506305,599616048515760446,1106
1712258506313,599616048523425132,1145
1712258506321,599616048531089818,1170
1712258506329,599616048538754504,1230
1712258506337,599616048546419190,1248
1712258506345,599616048554083876,1236
1712258506352,599616048561748562,1273
1712258506360,599616048569413248,1337
1712258506368,599616048577077934,1402
1712258506375,599616048584742620,1464
1712258506383,599616048592407306,1482
1712258506391,599616048600071992,1464
1712258506398,599616048607736678,1468
1712258506406,599616048615401364,1507
1712258506414,599616048623066050,1551
1712258506421,599616048630730736,1594
1712258506429,599616048638395422,1636
1712258506437,599616048646060108,1643
1712258506444,599616048653724794,1627
1712258506452,599616048661389480,1645
1712258506460,599616048669054166,1656
1712258506467,599616048676718852,1606
1712258506475,599616048684383538,1601
1712258506483,599616048692048224,1624
1712258506489,599616048699712910,1565
1712258506497,599616048707377596,1530
1712258506505,599616048715042282,1574
1712258506513,599616048722706968,1606
1712258506521,599616048730371654,1622
1712258506529,599616048738036340,1638
1712258506536,599616048745701026,1613
1712258506544,599616048753365712,1604
1712258506552,599616048761030398,1666
1712258506559,599616048768695084,1732
1712258506567,599616048776359770,1778
1712258506575,599616048784024456,1829
1712258506582,599616048791689142,1845
1712258506590,599616048799353828,1856
1712258506598,599616048807018514,1923
1712258506605,599616048814683200,1982
1712258506613,599616048822347886,1932
1712258506621,599616048830012572,1852
1712258506628,599616048837677258,1865
1712258506636,599616048845341944,1913
1712258506644,599616048853006630,1978
1712258506651,599616048860671316,2081
1712258506659,599616048868336002,2164
1712258506667,599616048876000688,2237
1712258506673,599616048883665374,2313
1712258506681,599616048891330060,2416
1712258506689,599616048898994746,2689
1712258506697,599616048906659432,3111
1712258506705,599616048914324118,3387
1712258506713,599616048921988804,3412
1712258506720,599616048929653490,3419
1712258506728,599616048937318176,3476
1712258506736,599616048944982862,3499
1712258506743,599616048952647548,3527
1712258506751,599616048960312234,3580
1712258506759,599616048967946844,3619
1712258506766,599616048975611948,3616
1712258506774,599616048983277052,3568
1712258506782,599616048990942156,3511
1712258506789,599616048998607260,3488
1712258506797,599616049006272364,3513
1712258506805,599616049013937468,3593
1712258506812,599616049021602572,3729
1712258506820,599616049029267676,3841
1712258506828,599616049036932780,3862
1712258506835,599616049044597884,3924
1712258506843,599616049052262988,4146
1712258506849,599616049059928092,4325
1712258506857,599616049067593196,4254
1712258506865,599616049075258300,4064
1712258506873,599616049082923404,3901
1712258506881,599616049090588508,3765
1712258506889,599616049098253612,3747
1712258506896,599616049105918716,3864
1712258506904,599616049113583820,3933
1712258506912,599616049121248924,3837
1712258506919,599616049128914028,3738
1712258506927,599616049136579132,3880
1712258506935,599616049144244236,4162
1712258506942,599616049151909340,4394
1712258506950,599616049159574444,4578
1712258506958,599616049167239548,4640
1712258506965,599616049174904652,4578
1712258506973,599616049182569756,4511
1712258506981,599616049190234860,4587
1712258506988,599616049197899964,4796
1712258506996,599616049205565068,4879
1712258507004,599616049213230172,4821
1712258507011,599616049220895276,4856
1712258507019,599616049228560380,4911
1712258507027,599616049236225484,4892
1712258507033,599616049243890588,4865
1712258507041,599616049251555692,4766
1712258507049,599616049259220796,4716
1712258507057,599616049266885900,4922
1712258507065,599616049274551004,5069
1712258507073,599616049282216108,4888
1712258507080,599616049289881212,4420
1712258507088,599616049297546316,3961
1712258507096,599616049305211420,4009
1712258507103,599616049312876524,4367
1712258507111,599616049320541628,5168
1712258507119,599616049328206732,7024
1712258507126,599616049335871836,8576
1712258507134,599616049343536940,8254
1712258507142,599616049351202044,7476
1712258507149,599616049358867148,7713
1712258507157,599616049366532252,7912
1712258507165,599616049374197356,7313
1712258507172,599616049381862460,7010
1712258507180,599616049389527564,7451
1712258507188,599616049397192668,7694
1712258507195,599616049404857772,7690
1712258507203,599616049412522876,7782
1712258507211,599616049420187980,7639
1712258507217,599616049427853084,7352
1712258507225,599616049435518188,6994
1712258507233,599616049443183292,6416
1712258507241,599616049450848396,5930
1712258507249,599616049458513500,5390
1712258507257,599616049466178604,4449
1712258507264,599616049473843708,3715
1712258507272,599616049481508812,3648
1712258507280,599616049489173916,3809
1712258507287,599616049496839020,3862
1712258507295,599616049504504124,3860
1712258507303,599616049512169228,3866
1712258507310,599616049519834332,3876
1712258507318,599616049527474404,3855
1712258507326,599616049535139856,3843
1712258507333,599616049542805308,3841
1712258507341,599616049550470760,3765
1712258507349,599616049558136212,3685
1712258507356,599616049565801664,3644
1712258507364,599616049573467116,3527
1712258507372,599616049581132568,3385
1712258507379,599616049588798020,3348
1712258507387,599616049596463472,3327
1712258507395,599616049604128924,3247
1712258507401,599616049611794376,3183
1712258507409,599616049619459828,3088
1712258507417,599616049627125280,2937
1712258507425,599616049634790732,2861
1712258507433,599616049642456184,2854
1712258507441,599616049650121636,2790
1712258507448,599616049657787088,2652
1712258507456,599616049665452540,2409
1712258507464,599616049673117992,2145
1712258507471,599616049680783444,2024
1712258507479,599616049688448896,1881
1712258507487,599616049696114348,1597
1712258507494,599616049703779800,1450
1712258507502,599616049711445252,1411
1712258507510,599616049719110704,1287
1712258507517,599616049726776156,1241
1712258507525,599616049734441608,1321
1712258507533,599616049742107060,1360
1712258507540,599616049749772512,1367
1712258507548,599616049757437964,1397
1712258507556,599616049765103416,1411
1712258507563,599616049772768868,1450
1712258507571,599616049780434320,1560
1712258507579,599616049788099772,1700
1712258507585,599616049795765224,1799
1712258507593,599616049803430676,1780
1712258507601,599616049811096128,1594
1712258507609,599616049818761580,1409
1712258507617,599616049826427032,1404
1712258507625,599616049834092484,1448
1712258507632,599616049841757936,1464
1712258507640,599616049849423388,1493
1712258507648,599616049857088840,1498
1712258507655,599616049864754292,1466
1712258507663,599616049872419744,1461
1712258507671,599616049880085196,1549
1712258507678,599616049887750648,1691
1712258507686,599616049895416100,1806
1712258507694,599616049903081552,1812
1712258507701,599616049910747004,1776
1712258507709,599616049918412456,1879
1712258507717,599616049926077908,2115
1712258507724,599616049933743360,2304
1712258507732,599616049941408812,2395
1712258507740,599616049949074264,2457
1712258507747,599616049956739716,2441
1712258507755,599616049964405168,2322
1712258507763,599616049972070620,2267
1712258507769,599616049979736072,2262
1712258507777,599616049987401524,2152
1712258507785,599616049995066976,2051
1712258507793,599616050002732428,2099
1712258507801,599616050010397880,2148
1712258507809,599616050018063332,2173
1712258507816,599616050025728784,2306
1712258507824,599616050033394236,2418
1712258507832,599616050041059688,2377
1712258507839,599616050048725140,2308
1712258507847,599616050056390592,2281
1712258507855,599616050064056044,2299
1712258507862,599616050071721496,2409
1712258507870,599616050079386948,2526
1712258507878,599616050087072466,2572
1712258507885,599616050094737640,2616
1712258507893,599616050102402814,2689
1712258507901,599616050110067988,2769
1712258507908,599616050117733162,2831
1712258507916,599616050125398336,2845
1712258507924,599616050133063510,2852
1712258507931,599616050140728684,2909
1712258507939,599616050148393858,2921
1712258507947,599616050156059032,2797
1712258507953,599616050163724206,2728
1712258507961,599616050171389380,2818
1712258507969,599616050179054554,2873
1712258507977,599616050186719728,2868
1712258507985,599616050194384902,2921
1712258507993,599616050202050076,2926
1712258508000,599616050209715250,2815
1712258508008,599616050217380424,2788
1712258508016,599616050225045598,2861
1712258508023,599616050232710772,2884
1712258508031,599616050240375946,2898
1712258508039,599616050248041120,2946
1712258508046,599616050255706294,2944
1712258508054,599616050263371468,2903
1712258508062,599616050271036642,2921
1712258508069,599616050278701816,2965
1712258508077,599616050286366990,2983
1712258508085,599616050294032164,3015
1712258508092,599616050301697338,3045
1712258508100,599616050309362512,3004
1712258508108,599616050317027686,2978
1712258508115,599616050324692860,3052
1712258508123,599616050332358034,3072
1712258508131,599616050340023208,2985
1712258508137,599616050347688382,2965
1712258508145,599616050355353556,2978
1712258508153,599616050363018730,2932
1712258508161,599616050370683904,2953
1712258508169,599616050378349078,3027
1712258508177,599616050386014252,3066
1712258508184,599616050393679426,3054
1712258508192,599616050401344600,2930
1712258508200,599616050409009774,2841
1712258508207,599616050416674948,2914
1712258508215,599616050424340122,2960
1712258508223,599616050432005296,2944
1712258508230,599616050439670470,2969
1712258508238,599616050447335644,2967
1712258508246,599616050455000818,2900
1712258508253,599616050462665992,2903
1712258508261,599616050470331166,2999
1712258508269,599616050477996340,3072
1712258508276,599616050485661514,3029
1712258508284,599616050493326688,2852
1712258508292,599616050500991862,2724
1712258508299,599616050508657036,2804
1712258508307,599616050516322210,2900
1712258508315,599616050523987384,2919
1712258508321,599616050531652558,2978
1712258508329,599616050539317732,3022
1712258508337,599616050546982906,2992
1712258508345,599616050554648080,2987
1712258508353,599616050562313254,3054
1712258508361,599616050569978428,3088
1712258508368,599616050577643602,3068
1712258508376,599616050585308776,3082
1712258508384,599616050592973950,3056
1712258508391,599616050600639124,2960
1712258508399,599616050608304298,2969
1712258508407,599616050615969472,3061
1712258508414,599616050623634646,3095
1712258508422,599616050631299820,3109
1712258508430,599616050638964994,3114
1712258508437,599616050646605114,3084
1712258508445,599616050654270636,3095
1712258508453,599616050661936158,3160
1712258508460,599616050669601680,3192
1712258508468,599616050677267202,3203
1712258508475,599616050684932724,3238
1712258508483,599616050692598246,3231
1712258508491,599616050700263768,3215
1712258508497,599616050707929290,3332
1712258508505,599616050715594812,3453
1712258508513,599616050723260334,3440
1712258508521,599616050730925856,3433
1712258508529,599616050738591378,3449
1712258508537,599616050746256900,3380
1712258508544,599616050753922422,3348
1712258508552,599616050761587944,3405
1712258508560,599616050769253466,3412
1712258508567,599616050776918988,3410
1712258508575,599616050784584510,3472
1712258508583,599616050792250032,3476
1712258508590,599616050799915554,3417
1712258508598,599616050807581076,3398
1712258508606,599616050815246598,3380
1712258508613,599616050822912120,3339
1712258508621,599616050830577642,3359
1712258508629,599616050838243164,3359
1712258508636,599616050845908686,3235
1712258508644,599616050853574208,3164
1712258508652,599616050861239730,3203
1712258508659,599616050868905252,3189
1712258508667,599616050876570774,3176
1712258508675,599616050884236296,3192
1712258508681,599616050891901818,3118
1712258508689,599616050899567340,3045
1712258508697,599616050907232862,3070
1712258508705,599616050914898384,3093
1712258508713,599616050922563906,3107
1712258508721,599616050930229428,3134
1712258508728,599616050937894950,3084
1712258508736,599616050945560472,3010
1712258508744,599616050953225994,3022
1712258508751,599616050960891516,3020
1712258508759,599616050968557038,3004
1712258508767,599616050976222560,3031
1712258508774,599616050983888082,3020
1712258508782,599616050991553604,2958
1712258508790,599616050999219126,2900
1712258508797,599616051006884648,2857
1712258508805,599616051014550170,2857
1712258508813,599616051022215692,2889
1712258508820,599616051029881214,2887
1712258508828,599616051037546736,2852
1712258508836,599616051045212258,2838
1712258508843,599616051052877780,2852
1712258508851,599616051060543302,2875
1712258508859,599616051068208824,2887
1712258508865,599616051075874346,2889
1712258508873,599616051083539868,2843
1712258508881,599616051091205390,2767
1712258508889,599616051098870912,2788
1712258508897,599616051106536434,2866
1712258508905,599616051114201956,2893
1712258508912,599616051121867478,2896
1712258508920,599616051129533000,2852
1712258508928,599616051137198522,2760
1712258508935,599616051144864044,2744
1712258508943,599616051152529566,2804
1712258508951,599616051160195088,2781
1712258508958,599616051167860610,2648
1712258508966,599616051175526132,2675
1712258508974,599616051183191654,2909
1712258508981,599616051190857176,2900
1712258508989,599616051198522698,2719
1712258508997,599616051206188250,2802
1712258509004,599616051213853772,2909
1712258509012,599616051221519294,2831
1712258509020,599616051229184816,2756
1712258509027,599616051236850338,2735
1712258509035,599616051244515860,2776
1712258509043,599616051252181382,2864
1712258509049,599616051259846904,2909
1712258509057,599616051267512426,2930
1712258509065,599616051275177948,2887
1712258509073,599616051282843470,2769
1712258509081,599616051290508992,2758
1712258509089,599616051298174514,2834
1712258509096,599616051305840036,2864
1712258509104,599616051313505558,2889
1712258509112,599616051321171080,2909
1712258509119,599616051328836602,2896
1712258509127,599616051336502124,2887
1712258509135,599616051344167646,2857
1712258509142,599616051351833168,2818
1712258509150,599616051359498690,2866
1712258509158,599616051367164212,2907
1712258509165,599616051374829734,2875
1712258509173,599616051382495256,2843
1712258509181,599616051390160778,2850
1712258509188,599616051397826300,2898
1712258509196,599616051405491822,2937
1712258509204,599616051413157344,2935
1712258509211,599616051420822866,2889
1712258509219,599616051428488388,2836
1712258509227,599616051436153910,2850
1712258509233,599616051443819432,2893
1712258509241,599616051451484954,2889
1712258509249,599616051459150476,2859
1712258509257,599616051466815998,2815
1712258509265,599616051474481520,2728
1712258509273,599616051482147042,2664
1712258509280,599616051489812564,2705
1712258509288,599616051497478086,2747
1712258509296,599616051505143608,2705
1712258509303,599616051512809130,2671
1712258509311,599616051520474652,2668
1712258509319,599616051528140174,2641
1712258509326,599616051535805696,2634
1712258509334,599616051543471218,2643
1712258509342,599616051551136740,2602
1712258509349,599616051558802262,2556
1712258509357,599616051566467784,2531
1712258509365,599616051574133306,2453
1712258509372,599616051581798828,2375
1712258509380,599616051589464350,2359
1712258509388,599616051597129872,2320
1712258509395,599616051604795394,2253
1712258509403,599616051612460916,2258
1712258509411,599616051620126438,2274
1712258509417,599616051627791960,2198
1712258509425,599616051635457482,2120
1712258509433,599616051643123004,2125
1712258509441,599616051650788526,2127
1712258509449,599616051658454048,2106
1712258509457,599616051666119570,2042
1712258509464,599616051673785092,1930
1712258509472,599616051681450614,1904
1712258509480,599616051689116136,1927
1712258509487,599616051696781658,1904
1712258509495,599616051704447180,1907
1712258509503,599616051712112702,1913
1712258509510,599616051719778224,1868
1712258509518,599616051727443746,1829
1712258509526,599616051735109268,1794
1712258509533,599616051742774790,1746
1712258509541,599616051750440312,1746
1712258509549,599616051758105834,1748
1712258509556,599616051765771384,1705
1712258509564,599616051773436906,1668
1712258509572,599616051781102428,1638
1712258509579,599616051788767950,1613
1712258509587,599616051796433472,1594
1712258509595,599616051804098994,1560
1712258509601,599616051811764516,1489
1712258509609,599616051819430038,1415
1712258509617,599616051827095560,1393
1712258509625,599616051834761082,1399
1712258509633,599616051842426604,1321
1712258509641,599616051850092126,1202
1712258509648,599616051857757648,1149
1712258509656,599616051865423170,1060
1712258509664,599616051873088692,938
1712258509671,599616051880754214,973
1712258509679,599616051888419736,1087
1712258509687,599616051896085258,1119
1712258509694,599616051903750780,1055
1712258509702,599616051911416302,858
1712258509710,599616051919081824,688
1712258509717,599616051926747346,773
1712258509725,599616051934412868,872
1712258509733,599616051942078390,846
1712258509740,599616051949743912,869
1712258509748,599616051957409434,865
1712258509756,599616051965074956,775
1712258509763,599616051972740478,805
1712258509771,599616051980406000,904
1712258509779,599616051988071522,897
1712258509785,599616051995737044,869
1712258509793,599616052003402566,835
1712258509801,599616052011068088,656
1712258509809,599616052018733610,481
1712258509817,599616052026399132,479
1712258509825,599616052034064654,500
1712258509832,599616052041730176,477
1712258509840,599616052049395698,486
1712258509848,599616052057061220,463
1712258509855,599616052064726742,424
1712258509863,599616052072392264,477
1712258509871,599616052080057786,543
1712258509878,599616052087723308,557
1712258509886,599616052095388830,573
1712258509894,599616052103054352,576
1712258509901,599616052110719874,548
1712258509909,599616052118385396,534
1712258509917,599616052126050918,527
1712258509924,599616052133716440,543
1712258509932,599616052141381962,555
1712258509940,599616052149047484,504
1712258509947,599616052156713006,413
1712258509955,599616052164378528,408
1712258509963,599616052172044050,491
1712258509969,599616052179709572,530
1712258509977,599616052187375094,520
1712258509985,599616052195040616,497
1712258509993,599616052202706138,468
1712258510001,599616052210371660,472
1712258510009,599616052218037182,504
1712258510016,599616052225702704,502
1712258510024,599616052233368226,470
1712258510032,599616052241033748,436
1712258510039,599616052248699270,397
1712258510047,599616052256364792,376
1712258510055,599616052264030314,394
1712258510062,599616052271695836,431
1712258510070,599616052279361358,449
1712258510078,599616052287026880,440
1712258510085,599616052294692402,442
1712258510093,599616052302357924,456
1712258510101,599616052310023446,465
1712258510108,599616052317688968,484
1712258510116,599616052325384614,520
1712258510124,599616052333049718,546
1712258510131,599616052340714822,559
1712258510139,599616052348379926,532
1712258510147,599616052356045030,477
1712258510153,599616052363710134,491
1712258510161,599616052371375238,523
1712258510169,599616052379040342,539
1712258510177,599616052386705446,592
1712258510185,599616052394370550,592
1712258510193,599616052402035654,481
1712258510200,599616052409700758,481
1712258510208,599616052417365862,615
1712258510216,599616052425030966,651
1712258510223,599616052432696070,644
1712258510231,599616052440361174,711
1712258510239,599616052448026278,752
1712258510246,599616052455691382,764
1712258510254,599616052463356486,791
1712258510262,599616052471021590,773
1712258510269,599616052478686694,771
1712258510277,599616052486351798,839
1712258510285,599616052494016902,816
1712258510292,599616052501682006,741
1712258510300,599616052509347110,794
1712258510308,599616052517012214,867
1712258510315,599616052524677318,878
1712258510323,599616052532342422,936
1712258510331,599616052540007526,1000
1712258510337,599616052547672630,1000
1712258510345,599616052555337734,995
1712258510353,599616052563002838,1002
1712258510361,599616052570667942,1039
1712258510369,599616052578333046,1122
1712258510377,599616052585998150,1225
1712258510384,599616052593663254,1301
1712258510392,599616052601328358,1257
1712258510400,599616052608993462,1080
1712258510407,599616052616658566,1005
1712258510415,599616052624323670,1175
1712258510423,599616052631988774,1354
1712258510430,599616052639653878,1413
1712258510438,599616052647318982,1500
1712258510446,599616052654984086,1647
1712258510453,599616052662649190,1767
1712258510461,599616052670314294,1817
1712258510469,599616052677979398,1861
1712258510476,599616052685644502,1911
1712258510484,599616052693309606,1877
1712258510492,599616052700974710,1822
1712258510499,599616052708639814,1877
1712258510507,599616052716304918,1955
1712258510515,599616052723970022,1978
1712258510521,599616052731635126,2019
1712258510529,599616052739300230,2060
1712258510537,599616052746965334,2040
1712258510545,599616052754630438,2040
1712258510553,599616052762295542,2092
1712258510561,599616052769960646,2127
1712258510568,599616052777625750,2136
1712258510576,599616052785290854,2134
1712258510584,599616052792955958,2109
1712258510591,599616052800621062,2111
1712258510599,599616052808286166,2161
1712258510607,599616052815951270,2205
1712258510614,599616052823616374,2226
1712258510622,599616052831281478,2242
1712258510630,599616052838946582,2219
1712258510637,599616052846611686,2189
1712258510645,599616052854276790,2196
1712258510653,599616052861941894,2150
1712258510660,599616052869606998,2106
1712258510668,599616052877272102,2177
1712258510675,599616052884907134,2166
1712258510683,599616052892572656,2051
1712258510691,599616052900238178,2090
1712258510697,599616052907903700,2184
1712258510705,599616052915569222,2173
1712258510713,599616052923234744,2168
1712258510721,599616052930900266,2152
1712258510729,599616052938565788,2042
1712258510737,599616052946231310,1996
1712258510744,599616052953896832,2056
1712258510752,599616052961562354,2079
1712258510760,599616052969227876,2063
1712258510767,599616052976893398,2031
1712258510775,599616052984558920,1966
1712258510783,599616052992224442,1943
1712258510790,599616052999889964,1978
1712258510798,599616053007555486,1987
1712258510806,599616053015221008,1971
1712258510813,599616053022886530,1946
1712258510821,599616053030552052,1845
1712258510829,599616053038217574,1744
1712258510836,599616053045883096,1794
1712258510844,599616053053548618,1881
1712258510852,599616053061214140,1879
1712258510859,599616053068879662,1865
1712258510867,599616053076545184,1870
1712258510875,599616053084210706,1863
1712258510881,599616053091876228,1872
1712258510889,599616053099541750,1888
1712258510897,599616053107207272,1847
1712258510905,599616053114872794,1812
1712258510913,599616053122538316,1842
1712258510921,599616053130203838,1854
1712258510928,599616053137869360,1838
1712258510936,599616053145534882,1872
1712258510944,599616053153200404,1909
1712258510951,599616053160865926,1888
1712258510959,599616053168531448,1870
1712258510967,599616053176196970,1870
1712258510974,599616053183862492,1858
1712258510982,599616053191528014,1870
1712258510990,599616053199193536,1900
1712258510997,599616053206859058,1870
1712258511005,599616053214524580,1847
1712258511013,599616053222190102,1865
1712258511020,599616053229855624,1817
1712258511028,599616053237521146,1767
1712258511036,599616053245186668,1826
1712258511043,599616053252852190,1863
1712258511051,599616053260517712,1840
1712258511059,599616053268183234,1881
1712258511065,599616053275848756,1936
1712258511073,599616053283514278,1982
1712258511081,599616053291179800,2081
1712258511089,599616053298845322,2145
1712258511097,599616053306510844,2042
1712258511105,599616053314176366,1888
1712258511112,599616053321841888,1888
1712258511120,599616053329507410,1964
1712258511128,599616053337172932,1982
1712258511135,599616053344838454,1980
1712258511143,599616053352503976,1969
1712258511151,599616053360169498,1948
1712258511158,599616053367835020,1897
1712258511166,599616053375500542,1838
1712258511174,599616053383166064,1842
1712258511181,599616053390831586,1852
1712258511189,599616053398497108,1835
1712258511197,599616053406162630,1858
1712258511204,599616053413828152,1888
1712258511212,599616053421493674,1838
1712258511220,599616053429159196,1767
1712258511227,599616053436824718,1785
1712258511235,599616053444490268,1829
1712258511243,599616053452155790,1838
1712258511249,599616053459821312,1831
1712258511257,599616053467486834,1790
1712258511265,599616053475152356,1734
1712258511273,599616053482817878,1689
1712258511281,599616053490483400,1668
1712258511289,599616053498148922,1693
1712258511296,599616053505814444,1712
1712258511304,599616053513479966,1684
1712258511312,599616053521145488,1604
1712258511319,599616053528811010,1526
1712258511327,599616053536476532,1533
1712258511335,599616053544142054,1549
1712258511342,599616053551807576,1493
1712258511350,599616053559473098,1434
1712258511358,599616053567138620,1337
1712258511365,599616053574804142,1207
1712258511373,599616053582469664,1191
1712258511381,599616053590135186,1236
1712258511388,599616053597800708,1172
1712258511396,599616053605466230,1101
1712258511404,599616053613131752,1090
1712258511411,599616053620797274,1014
1712258511419,599616053628462796,947
1712258511427,599616053636128318,968
1712258511433,599616053643793840,940
1712258511441,599616053651459362,862
1712258511449,599616053659124884,823
1712258511457,599616053666790406,761
1712258511465,599616053674455928,672
1712258511473,599616053682121450,582
1712258511480,599616053689786972,440
1712258511488,599616053697452494,302
1712258511496,599616053705118016,231
1712258511503,599616053712783538,142
1712258511511,599616053720449060,34
1712258511519,599616053728114582,6
1712258511526,599616053735780104,-11
1712258511534,599616053743445626,-91
1712258511542,599616053751111148,-156
1712258511549,599616053758776670,-231
1712258511557,599616053766442192,-360
1712258511565,599616053774107714,-397
1712258511572,599616053781773236,-346
1712258511580,599616053789438758,-328
1712258511588,599616053797104280,-339
1712258511595,599616053804769802,-358
1712258511603,599616053812435324,-380
1712258511611,599616053820100846,-360
1712258511617,599616053827766368,-318
1712258511625,599616053835431890,-325
1712258511633,599616053843097412,-387
1712258511641,599616053850762934,-438
1712258511649,599616053858428456,-436
1712258511657,599616053866093978,-463
1712258511664,599616053873759500,-514
1712258511672,599616053881425022,-472
1712258511680,599616053889090544,-399
1712258511687,599616053896756066,-415
1712258511695,599616053904421588,-440
1712258511703,599616053912087110,-433
1712258511710,599616053919752632,-431
1712258511718,599616053927418154,-397
1712258511726,599616053935083676,-353
1712258511733,599616053942749198,-360
1712258511741,599616053950414720,-390
1712258511749,599616053958080242,-463
1712258511756,599616053965745764,-530
1712258511764,599616053973411286,-484
1712258511772,599616053981076808,-436
1712258511779,599616053988742330,-452
1712258511787,599616053996407852,-417
1712258511795,599616054004103498,-348
1712258511801,599616054011768602,-298
1712258511809,599616054019433706,-254
1712258511817,599616054027098810,-348
1712258511825,599616054034763914,-619
1712258511833,599616054042429018,-718
1712258511841,599616054050094122,-610
1712258511848,599616054057759226,-644
1712258511856,599616054065424330,-738
1712258511864,599616054073089434,-690
1712258511871,599616054080754538,-672
1712258511879,599616054088419642,-764
1712258511887,599616054096084746,-807
1712258511894,599616054103749850,-837
1712258511902,599616054111414954,-874
1712258511910,599616054119080058,-794
1712258511917,599616054126745162,-716
1712258511925,599616054134410266,-716
1712258511933,599616054142075370,-706
1712258511940,599616054149740474,-743
1712258511948,599616054157405578,-800
1712258511956,599616054165070682,-768
1712258511963,599616054172735786,-752
1712258511971,599616054180400890,-791
1712258511979,599616054188065994,-755
1712258511985,599616054195731098,-693
1712258511993,599616054203396202,-702
1712258512001,599616054211061306,-697
1712258512009,599616054218726410,-654
1712258512017,599616054226391514,-615
1712258512025,599616054234056618,-578
1712258512032,599616054241721722,-550
1712258512040,599616054249386826,-548
1712258512048,599616054257051930,-541
1712258512055,599616054264717034,-520
1712258512063,599616054272382138,-509
1712258512071,599616054280047242,-481
1712258512078,599616054287712346,-436
1712258512086,599616054295377450,-470
1712258512094,599616054303042554,-578
1712258512101,599616054310707658,-587
1712258512109,599616054318372762,-502
1712258512117,599616054326037866,-475
1712258512124,599616054333702970,-493
1712258512132,599616054341368074,-491
1712258512140,599616054349033178,-465
1712258512147,599616054356698282,-445
1712258512155,599616054364363386,-458
1712258512163,599616054372028490,-507
1712258512169,599616054379693594,-491
1712258512177,599616054387358698,-390
1712258512185,599616054395023802,-360
1712258512193,599616054402688906,-392
1712258512201,599616054410354010,-346
1712258512209,599616054418019114,-263
1712258512216,599616054425684218,-231
1712258512224,599616054433349322,-204
1712258512232,599616054441014426,-190
1712258512239,599616054448679530,-224
1712258512247,599616054456344634,-215
1712258512255,599616054464009738,-130
1712258512262,599616054471674842,-68
1712258512270,599616054479339946,-48
1712258512278,599616054487005050,-45
1712258512285,599616054494670154,-119
1712258512293,599616054502335258,-174
1712258512301,599616054510000362,-94
1712258512308,599616054517665466,-20
1712258512316,599616054525330570,-25
1712258512324,599616054532995674,-20
1712258512331,599616054540660778,-32
1712258512339,599616054548325882,-57
1712258512347,599616054555990986,-18
1712258512353,599616054563626020,41
1712258512361,599616054571291542,64
1712258512369,599616054578957064,36
1712258512377,599616054586622586,-61
1712258512385,599616054594288108,-139
1712258512393,599616054601953630,-91
1712258512400,599616054609619152,0
1712258512408,599616054617284674,39
1712258512416,599616054624950196,43
1712258512423,599616054632615718,22
1712258512431,599616054640281240,-59
1712258512439,599616054647946762,-100
1712258512446,599616054655612284,2
1712258512454,599616054663277806,103
1712258512462,599616054670943328,110
1712258512469,599616054678608850,117
1712258512477,599616054686274372,123
1712258512485,599616054693939894,121
1712258512492,599616054701605416,183
1712258512500,599616054709270938,316
1712258512508,599616054716936460,429
1712258512515,599616054724601982,463
1712258512523,599616054732267504,358
1712258512531,599616054739933026,181
1712258512537,599616054747598548,199
1712258512545,599616054755264070,344
1712258512553,599616054762929592,383
1712258512561,599616054770595114,390
1712258512569,599616054778260636,456
1712258512576,599616054785926158,502
1712258512584,599616054793591680,537
1712258512592,599616054801257202,642
1712258512599,599616054808922724,780
1712258512607,599616054816588246,954
1712258512615,599616054824253768,1193
1712258512622,599616054831919290,1337
1712258512630,599616054839584812,1351
1712258512638,599616054847250334,1438
1712258512645,599616054854915856,1585
1712258512653,599616054862581378,1645
1712258512661,599616054870246900,1684
1712258512668,599616054877912422,1714
1712258512676,599616054885577944,1677
1712258512684,599616054893243466,1734
1712258512691,599616054900908988,1893
1712258512699,599616054908574510,1985
1712258512707,599616054916240032,2072
1712258512713,599616054923905554,2207
1712258512721,599616054931571076,2265
1712258512729,599616054939236598,2265
1712258512737,599616054946902120,2308
1712258512745,599616054954567642,2343
1712258512753,599616054962233164,2340
1712258512760,599616054969898686,2372
1712258512768,599616054977564208,2391
1712258512776,599616054985229730,2338
1712258512783,599616054992895252,2294
1712258512791,599616055000560774,2292
1712258512799,599616055008226296,2285
1712258512806,599616055015891818,2304
1712258512814,599616055023557340,2340
1712258512822,599616055031222862,2281
1712258512829,599616055038888384,2168
1712258512837,599616055046553906,2177
1712258512845,599616055054219428,2230
1712258512852,599616055061884950,2235
1712258512860,599616055069550472,2237
1712258512868,599616055077215994,2177
1712258512875,599616055084881516,2092
1712258512883,599616055092547038,2109
1712258512891,599616055100212560,2141
1712258512897,599616055107878082,2134
1712258512905,599616055115543604,2152
1712258512913,599616055123239250,2173
1712258512921,599616055130904354,2145
1712258512929,599616055138569458,2113
1712258512937,599616055146234562,2122
1712258512944,599616055153899666,2150
1712258512952,599616055161564770,2157
1712258512960,599616055169229874,2150
1712258512967,599616055176894978,2102
1712258512975,599616055184560082,2010
1712258512983,599616055192225186,2012
1712258512990,599616055199890290,2086
1712258512998,599616055207555394,2102
1712258513006,599616055215220498,2086
1712258513013,599616055222885602,2017
1712258513021,599616055230550706,1902
1712258513029,599616055238215810,1891
1712258513036,599616055245880914,1971
1712258513044,599616055253546018,1996
1712258513052,599616055261211122,1994
1712258513059,599616055268876226,2010
1712258513067,599616055276541330,1982
1712258513075,599616055284206434,1957
1712258513081,599616055291871538,1998
1712258513089,599616055299536642,2026
1712258513097,599616055307201746,1985
1712258513105,599616055314866850,1930
1712258513113,599616055322531954,1877
1712258513121,599616055330197058,1810
1712258513128,599616055337862162,1796
1712258513136,599616055345527266,1824
1712258513144,599616055353192370,1842
1712258513151,599616055360857474,1865
1712258513159,599616055368522578,1838
1712258513167,599616055376187682,1748
1712258513174,599616055383852786,1705
1712258513182,599616055391517890,1691
1712258513190,599616055399182994,1702
1712258513197,599616055406848098,1776
1712258513205,599616055414513202,1833
1712258513213,599616055422178306,1865
1712258513220,599616055429843410,1927
1712258513228,599616055437508514,1920
1712258513236,599616055445173618,1783
1712258513243,599616055452838722,1728
1712258513251,599616055460503826,1819
1712258513259,599616055468168930,1842
1712258513265,599616055475834034,1831
1712258513273,599616055483499138,1918
1712258513281,599616055491164242,2008
1712258513289,599616055498829346,2026
1712258513297,599616055506494450,2028
1712258513305,599616055514159554,2005
1712258513312,599616055521824658,1934
1712258513320,599616055529489762,1920
1712258513328,599616055537154866,1982
1712258513335,599616055544819970,2001
1712258513343,599616055552485074,1982
1712258513351,599616055560150178,1989
1712258513358,599616055567815282,1964
1712258513366,599616055575480386,1911
1712258513374,599616055583145490,1920
1712258513381,599616055590810594,1950
1712258513389,599616055598475698,1966
1712258513397,599616055606140802,2014
1712258513404,599616055613805906,2086
1712258513412,599616055621471010,2180
1712258513420,599616055629136114,2322
1712258513427,599616055636801218,2455
1712258513435,599616055644466322,2508
1712258513443,599616055652131426,2526
1712258513449,599616055659796530,2558
1712258513457,599616055667461634,2584
1712258513465,599616055675126738,2611
1712258513473,599616055682761770,2659
1712258513481,599616055690427292,2668
1712258513489,599616055698092814,2620
1712258513496,599616055705758336,2625
1712258513504,599616055713423858,2623
1712258513512,599616055721089380,2540
1712258513519,599616055728754902,2540
1712258513527,599616055736420424,2590
1712258513535,599616055744085946,2561
1712258513542,599616055751751468,2554
1712258513550,599616055759416990,2535
1712258513558,599616055767082512,2439
1712258513565,599616055774748034,2423
1712258513573,599616055782413556,2476
1712258513581,599616055790079078,2464
1712258513588,599616055797744600,2471
1712258513596,599616055805410122,2529
1712258513604,599616055813075644,2510
1712258513611,599616055820741166,2418
1712258513619,599616055828406688,2395
1712258513627,599616055836072210,2421
1712258513633,599616055843737732,2407
1712258513641,599616055851403254,2391
1712258513649,599616055859068776,2400
1712258513657,599616055866734298,2395
1712258513665,599616055874399820,2370
1712258513673,599616055882065342,2331
1712258513680,599616055889730864,2255
1712258513688,599616055897396386,2207
1712258513696,599616055905061908,2226
1712258513703,599616055912727430,2173
1712258513711,599616055920392952,2106
1712258513719,599616055928058474,2168
1712258513726,599616055935723996,2214
1712258513734,599616055943389518,2196
1712258513742,599616055951055040,2214
1712258513749,599616055958720562,2214
1712258513757,599616055966386084,2152
1712258513765,599616055974051606,2131
1712258513772,599616055981717128,2182
1712258513780,599616055989382650,2239
1712258513788,599616055997048172,2281
1712258513795,599616056004713694,2294
1712258513803,599616056012379216,2283
1712258513811,599616056020044738,2288
1712258513817,599616056027710260,2324
1712258513825,599616056035375782,2375
1712258513833,599616056043041304,2432
1712258513841,599616056050706826,2460
1712258513849,599616056058372348,2411
1712258513857,599616056066037870,2372
1712258513864,599616056073703392,2455
1712258513872,599616056081368914,2613
1712258513880,599616056089034436,2795
1712258513887,599616056096699958,3043
1712258513895,599616056104365480,3332
1712258513903,599616056112031002,3541
1712258513910,599616056119696524,3623
1712258513918,599616056127362046,3717
1712258513926,599616056135027568,3818
1712258513933,599616056142693090,3674
1712258513941,599616056150358612,3215
1712258513949,599616056158024134,2797
1712258513956,599616056165689656,2719
1712258513964,599616056173355178,2717
1712258513972,599616056181020700,2639
1712258513979,599616056188686222,2682
1712258513987,599616056196351744,2735
1712258513995,599616056204017266,2652
1712258514001,599616056211682788,2616
1712258514009,599616056219348310,2682
1712258514017,599616056227013832,2728
1712258514025,599616056234679354,2735
1712258514033,599616056242375000,2730
1712258514041,599616056250040104,2666
1712258514048,599616056257705208,2581
1712258514056,599616056265370312,2659
1712258514064,599616056273035416,2843
1712258514071,599616056280700520,2921
1712258514079,599616056288365624,2875
1712258514087,599616056296030728,2804
1712258514094,599616056303695832,2724
1712258514102,599616056311360936,2607
1712258514110,599616056319026040,2568
1712258514117,599616056326691144,2600
1712258514125,599616056334356248,2565
1712258514133,599616056342021352,2524
1712258514140,599616056349686456,2579
1712258514148,599616056357351560,2703
1712258514156,599616056365016664,2847
1712258514163,599616056372681768,2930
1712258514171,599616056380346872,2951
1712258514179,599616056388011976,2942
1712258514185,599616056395677080,2880
1712258514193,599616056403342184,2776
1712258514201,599616056411007288,2611
1712258514209,599616056418672392,2469
1712258514217,599616056426337496,2448
1712258514225,599616056434002600,2421
1712258514232,599616056441667704,2262
1712258514240,599616056449332808,1946
1712258514248,599616056456997912,1604
1712258514255,599616056464663016,1354
1712258514263,599616056472328120,1147
1712258514271,599616056479993224,1032
1712258514278,599616056487658328,945
1712258514286,599616056495323432,791
1712258514294,599616056502988536,706
1712258514301,599616056510653640,759
1712258514309,599616056518318744,794
1712258514317,599616056525983848,693
1712258514324,599616056533648952,440
1712258514332,599616056541314056,-52
1712258514340,599616056548979160,-679
1712258514347,599616056556644264,-1067
1712258514355,599616056564309368,-1113
1712258514363,599616056571974472,-1145
1712258514369,599616056579639576,-1386
1712258514377,599616056587304680,-1714
1712258514385,599616056594969784,-1891
1712258514393,599616056602634888,-1980
1712258514401,599616056610299992,-2219
1712258514409,599616056617965096,-2265
1712258514416,599616056625630200,-1895
1712258514424,599616056633295304,-1679
1712258514432,599616056640960408,-1849
1712258514439,599616056648625512,-2037
1712258514447,599616056656290616,-2131
1712258514455,599616056663955720,-2288
1712258514462,599616056671620824,-2478
1712258514470,599616056679285928,-2545
1712258514478,599616056686951032,-2526
1712258514485,599616056694616136,-2551
1712258514493,599616056702281240,-2588
1712258514501,599616056709946344,-2636
1712258514508,599616056717611448,-2689
1712258514516,599616056725276552,-2662
1712258514524,599616056732941656,-2533
1712258514531,599616056740606760,-2251
1712258514539,599616056748271864,-1776
1712258514547,599616056755936968,-1452
1712258514553,599616056763602072,-1468
1712258514561,599616056771267176,-1537
1712258514569,599616056778932280,-1707
1712258514577,599616056786597384,-2042
1712258514585,599616056794262488,-2223
1712258514592,599616056801897520,-2297
1712258514600,599616056809563042,-2368
1712258514608,599616056817228564,-2306
1712258514615,599616056824894086,-2384
1712258514623,599616056832559608,-2724
1712258514631,599616056840225130,-2875
1712258514638,599616056847890652,-2675
1712258514646,599616056855556174,-2352
1712258514654,599616056863221696,-1991
1712258514661,599616056870887218,-1535
1712258514669,599616056878552740,-991
1712258514677,599616056886218262,-436
1712258514684,599616056893883784,107
1712258514692,599616056901549306,640
1712258514700,599616056909214828,1090
1712258514707,599616056916880350,1402
1712258514715,599616056924545872,1636
1712258514723,599616056932211394,1748
1712258514729,599616056939876916,1672
1712258514737,599616056947542438,1617
1712258514745,599616056955207960,1588
1712258514753,599616056962873482,1379
1712258514761,599616056970539004,1129
1712258514769,599616056978204526,979
1712258514776,599616056985870048,931
1712258514784,599616056993535570,1067
1712258514792,599616057001201092,1227
1712258514799,599616057008866614,1239
1712258514807,599616057016532136,1273
1712258514815,599616057024197658,1360
1712258514822,599616057031863180,1326
1712258514830,599616057039528702,1259
1712258514838,599616057047194224,1214
1712258514845,599616057054859746,1083
1712258514853,599616057062525268,950
1712258514861,599616057070190790,922
1712258514868,599616057077856312,954
1712258514876,599616057085521834,1147
1712258514884,599616057093187356,1390
1712258514891,599616057100852878,1080
1712258514899,599616057108518400,181
1712258514907,599616057116183922,-197
1712258514913,599616057123849444,534
1712258514921,599616057131514966,1025
1712258514929,599616057139180488,520
1712258514937,599616057146846010,523
1712258514945,599616057154511532,1163
1712258514953,599616057162177054,1239
1712258514960,599616057169842576,1170
1712258514968,599616057177508098,1535
1712258514976,599616057185173620,1900
1712258514983,599616057192839142,2159
1712258514991,599616057200504664,2522
1712258514999,599616057208170186,2694
1712258515006,599616057215835708,2473
1712258515014,599616057223501230,2294
1712258515022,599616057231166752,2489
1712258515029,599616057238832274,2756
1712258515037,599616057246497796,2799
1712258515045,599616057254163318,2758
1712258515052,599616057261828840,2831
1712258515060,599616057269494362,3059
1712258515068,599616057277159884,3424
1712258515075,599616057284825406,3887
1712258515083,599616057292490928,4169
1712258515091,599616057300156450,4036
1712258515097,599616057307821972,3901
1712258515105,599616057315487494,4144
1712258515113,599616057323153016,4376
1712258515121,599616057330818538,4399
1712258515129,599616057338484060,4642
1712258515137,599616057346149582,5154
1712258515144,599616057353815104,5645
1712258515152,599616057361480654,6143
1712258515160,599616057369146176,6689
1712258515167,599616057376811698,7316
1712258515175,599616057384477220,8305
1712258515183,599616057392142742,9528
1712258515190,599616057399808264,10228
1712258515198,599616057407473786,10177
1712258515206,599616057415139308,9732
1712258515213,599616057422804830,8445
1712258515221,599616057430470352,6825
1712258515229,599616057438135874,6207
1712258515236,599616057445801396,5326
1712258515244,599616057453466918,3717
1712258515252,599616057461132440,3150
1712258515259,599616057468797962,3116
1712258515267,599616057476463484,2453
1712258515275,599616057484129006,2044
1712258515281,599616057491794528,2283
1712258515289,599616057499460050,2317
1712258515297,599616057507125572,2003
1712258515305,599616057514791094,1900
1712258515313,599616057522456616,2019
1712258515321,599616057530122138,2120
1712258515328,599616057537787660,2244
1712258515336,599616057545453182,2336
1712258515344,599616057553118704,2333
1712258515351,599616057560784226,2350
1712258515359,599616057568449748,2446
1712258515367,599616057576115270,2574
1712258515374,599616057583780792,2708
1712258515382,599616057591446314,2884
1712258515390,599616057599111836,3127
1712258515397,599616057606777358,3430
1712258515405,599616057614442880,3759
1712258515413,599616057622108402,4105
1712258515420,599616057629773924,4530
1712258515428,599616057637439446,4640
1712258515436,599616057645104968,3990
1712258515443,599616057652770490,3226
1712258515451,599616057660436012,3111
1712258515459,599616057668101534,3256
1712258515465,599616057675767056,3219
1712258515473,599616057683432578,3169
1712258515481,599616057691098100,3088
1712258515489,599616057698763622,2841
1712258515497,599616057706429144,2531
1712258515505,599616057714094666,2193
1712258515512,599616057721760188,1948
1712258515520,599616057729425710,2177
1712258515528,599616057737091232,2607
1712258515535,599616057744756754,2627
1712258515543,599616057752422276,2462
1712258515551,599616057760087798,2453
1712258515558,599616057767753320,2476
1712258515566,599616057775418842,2457
1712258515574,599616057783084364,2301
1712258515581,599616057790749886,1950
1712258515589,599616057798415408,1654
1712258515597,599616057806080930,1402
1712258515604,599616057813746452,1051
1712258515612,599616057821411974,885
1712258515620,599616057829077496,890
1712258515627,599616057836743018,826
1712258515635,599616057844408540,789
1712258515643,599616057852074062,718
1712258515649,599616057859739584,491
1712258515657,599616057867405106,341
1712258515665,599616057875070628,385
1712258515673,599616057882736150,399
1712258515681,599616057890401672,296
1712258515689,599616057898067194,128
1712258515696,599616057905732716,-16
1712258515704,599616057913398238,6
1712258515712,599616057921063790,121
1712258515719,599616057928729312,80
1712258515727,599616057936394834,-98
1712258515735,599616057944060356,-139
1712258515742,599616057951725878,-87
1712258515750,599616057959391400,-110
1712258515758,599616057967056922,-107
1712258515765,599616057974722444,-84
1712258515773,599616057982387966,-165
1712258515781,599616057990053488,-279
1712258515788,599616057997719010,-316
1712258515796,599616058005384532,-348
1712258515804,599616058013050054,-417
1712258515811,599616058020715576,-442
1712258515819,599616058028381098,-481
1712258515827,599616058036046620,-619
1712258515833,599616058043712142,-743
1712258515841,599616058051377664,-856
1712258515849,599616058059043186,-963
1712258515857,599616058066708708,-938
1712258515865,599616058074374230,-892
1712258515873,599616058082039752,-989
1712258515880,599616058089705274,-1122
1712258515888,599616058097370796,-1191
1712258515896,599616058105036318,-1211
1712258515903,599616058112701840,-1200
1712258515911,599616058120367362,-1214
1712258515919,599616058128032884,-1262
1712258515926,599616058135698406,-1246
1712258515934,599616058143363928,-1204
1712258515942,599616058151029450,-1264
1712258515949,599616058158694972,-1393
1712258515957,599616058166360494,-1615
1712258515965,599616058174026016,-1888
1712258515972,599616058181691538,-2063
1712258515980,599616058189357060,-2219
1712258515988,599616058197022582,-2333
1712258515995,599616058204688104,-2251
1712258516003,599616058212353626,-2120
1712258516011,599616058220019148,-2122
1712258516017,599616058227684670,-2157
1712258516025,599616058235350192,-2161
1712258516033,599616058243015714,-2246
1712258516041,599616058250681236,-2389
1712258516049,599616058258346758,-2476
1712258516057,599616058266012280,-2561
1712258516064,599616058273677802,-2740
1712258516072,599616058281343324,-2971
1712258516080,599616058289008846,-3178
1712258516087,599616058296674368,-3359
1712258516095,599616058304339890,-3513
1712258516103,599616058312005412,-3614
1712258516110,599616058319670934,-3747
1712258516118,599616058327336456,-4020
1712258516126,599616058335001978,-4208
1712258516133,599616058342667500,-4156
1712258516141,599616058350333022,-4190
1712258516149,599616058357998544,-4335
1712258516156,599616058365664066,-4305
1712258516164,599616058373329588,-4206
1712258516172,599616058380995110,-4254
1712258516179,599616058388660632,-4433
1712258516187,599616058396326154,-4624
1712258516195,599616058403991676,-4743
1712258516201,599616058411657198,-4690
1712258516209,599616058419322720,-4532
1712258516217,599616058426988242,-4484
1712258516225,599616058434653764,-4541
1712258516233,599616058442319286,-4617
1712258516241,599616058449984808,-4670
1712258516248,599616058457650330,-4628
1712258516256,599616058465315852,-4537
1712258516264,599616058472981374,-4461
1712258516271,599616058480661972,-4399
1712258516279,599616058488327285,-4415
1712258516287,599616058495992598,-4440
1712258516294,599616058503657911,-4337
1712258516302,599616058511323224,-4243
1712258516310,599616058518988537,-4291
1712258516317,599616058526653850,-4307
1712258516325,599616058534319163,-4280
1712258516333,599616058541984476,-4420
1712258516340,599616058549649789,-4594
1712258516348,599616058557315102,-4599
1712258516356,599616058564980415,-4516
1712258516363,599616058572645728,-4456
1712258516371,599616058580311041,-4493
1712258516379,599616058587976354,-4601
1712258516385,599616058595641667,-4555
1712258516393,599616058603306980,-4337
1712258516401,599616058610972293,-4204
1712258516409,599616058618637606,-4142
1712258516417,599616058626302919,-4062
1712258516425,599616058633968232,-4052
1712258516432,599616058641633545,-4039
1712258516440,599616058649298858,-3912
1712258516448,599616058656964171,-3795
1712258516455,599616058664629484,-3738
1712258516463,599616058672294797,-3710
1712258516471,599616058679960110,-3775
1712258516478,599616058687625423,-3862
1712258516486,599616058695290736,-3775
1712258516494,599616058702956049,-3593
1712258516501,599616058710621362,-3520
1712258516509,599616058718286675,-3508
1712258516517,599616058725951988,-3513
1712258516524,599616058733617301,-3577
1712258516532,599616058741282614,-3566
1712258516540,599616058748947927,-3396
1712258516547,599616058756613240,-3318
1712258516555,599616058764278553,-3378
1712258516563,599616058771943866,-3309
1712258516569,599616058779609179,-3098
1712258516577,599616058787274492,-2898
1712258516585,599616058794939805,-2664
1712258516593,599616058802605118,-2416
1712258516601,599616058810270431,-2366
1712258516609,599616058817935744,-2480
1712258516616,599616058825601057,-2453
1712258516624,599616058833266370,-2235
1712258516631,599616058840931683,-2065
1712258516639,599616058848596996,-1962
1712258516647,599616058856262309,-1868
1712258516654,599616058863927622,-1822
1712258516662,599616058871592935,-1826
1712258516670,599616058879258248,-1808
1712258516677,599616058886923561,-1728
1712258516685,599616058894588874,-1617
1712258516693,599616058902254187,-1544
1712258516700,599616058909919500,-1546
1712258516708,599616058917584813,-1514
1712258516716,599616058925250126,-1370
1712258516723,599616058932915439,-1246
1712258516731,599616058940580752,-1113
1712258516739,599616058948246065,-897
1712258516745,599616058955911378,-748
1712258516753,599616058963576691,-642
1712258516761,599616058971242004,-461
1712258516769,599616058978907317,-376
1712258516777,599616058986572630,-440
1712258516785,599616058994237943,-458
1712258516792,599616059001903256,-431
1712258516800,599616059009568569,-440
1712258516808,599616059017233882,-461
1712258516815,599616059024899195,-465
1712258516823,599616059032564508,-445
1712258516831,599616059040229846,-364
1712258516838,599616059047895159,-222
1712258516846,599616059055560472,-73
1712258516854,599616059063225785,22
1712258516861,599616059070891098,6
1712258516869,599616059078556411,-98
1712258516877,599616059086221724,-149
1712258516884,599616059093887037,-174
1712258516892,599616059101552350,-307
1712258516900,599616059109217663,-445
1712258516907,599616059116882976,-543
1712258516915,599616059124548289,-722
1712258516923,599616059132213602,-858
1712258516929,599616059139878915,-839
1712258516937,599616059147544228,-816
1712258516945,599616059155209541,-826
1712258516953,599616059162874854,-867
1712258516961,599616059170540167,-1037
1712258516969,599616059178205480,-1220
1712258516976,599616059185870793,-1163
1712258516984,599616059193536106,-950
1712258516992,599616059201201419,-860
1712258516999,599616059208866732,-938
1712258517007,599616059216532045,-1099
1712258517015,599616059224197358,-1370
1712258517022,599616059231862671,-1613
1712258517030,599616059239527984,-1702
1712258517038,599616059247193297,-2033
1712258517045,599616059254858610,-2625
1712258517053,599616059262523923,-3027
1712258517061,599616059270189236,-3382
1712258517068,599616059277854549,-3786
1712258517076,599616059285519862,-3958
1712258517084,599616059293185175,-3944
1712258517091,599616059300850488,-3795
1712258517099,599616059308515801,-3573
1712258517107,599616059316181114,-3465
1712258517113,599616059323846427,-3375
1712258517121,599616059331511740,-2985
1712258517129,599616059339177053,-2414
1712258517137,599616059346842366,-2092
1712258517145,599616059354507679,-1962
1712258517153,599616059362172992,-1723
1712258517160,599616059369838305,-1461
1712258517168,599616059377503618,-1308
1712258517176,599616059385168931,-1154
1712258517183,599616059392834244,-936
1712258517191,599616059400499557,-716
1712258517199,599616059408164870,-578
1712258517206,599616059415830183,-598
1712258517214,599616059423495496,-589
1712258517222,599616059431160809,-385
1712258517229,599616059438826122,-137
1712258517237,599616059446491435,107
1712258517245,599616059454156748,376
1712258517252,599616059461822061,463
1712258517260,599616059469487374,332
1712258517268,599616059477152687,385
1712258517275,599616059484818000,670
1712258517283,599616059492483313,814
1712258517291,599616059500148626,858
1712258517297,599616059507813939,973
1712258517305,599616059515479252,1106
1712258517313,599616059523144565,1278
1712258517321,599616059530809878,1475
1712258517329,599616059538475191,1592
1712258517337,599616059546140504,1615
1712258517344,599616059553805817,1583
1712258517352,599616059561471130,1599
1712258517360,599616059569136443,1663
1712258517367,599616059576801756,1693
1712258517375,599616059584467069,1734
1712258517383,599616059592132382,1838
1712258517390,599616059599782674,1959
1712258517398,599616059607448196,2065
1712258517406,599616059615113718,2097
1712258517413,599616059622779240,2106
1712258517421,599616059630444762,2237
1712258517429,599616059638110284,2455
1712258517436,599616059645775806,2636
1712258517444,599616059653441328,2733
1712258517452,599616059661106850,2779
1712258517459,599616059668772372,2822
1712258517467,599616059676437894,2905
1712258517475,599616059684103416,2944
1712258517481,599616059691768938,2887
1712258517489,599616059699434460,2868
1712258517497,599616059707099982,2907
1712258517505,599616059714765504,2928
1712258517513,599616059722431026,2997
1712258517521,599616059730096548,3079
1712258517528,599616059737762070,3086
1712258517536,599616059745427592,3137
1712258517544,599616059753093114,3203
1712258517551,599616059760758636,3155
1712258517559,599616059768424158,3155
1712258517567,599616059776089680,3304
1712258517574,599616059783755202,3433
1712258517582,599616059791420724,3490
1712258517590,599616059799086246,3637
1712258517597,599616059806751768,3821
1712258517605,599616059814417290,3903
1712258517613,599616059822082812,4043
1712258517620,599616059829748334,4291
1712258517628,599616059837413856,4475
1712258517636,599616059845079378,4654
1712258517643,599616059852744900,4883
1712258517651,599616059860410422,5080
1712258517659,599616059868075944,5335
1712258517665,599616059875741466,5693
1712258517673,599616059883406988,5971
1712258517681,599616059891072510,6168
1712258517689,599616059898738032,6377
1712258517697,599616059906403554,6512
1712258517705,599616059914069076,6630
1712258517712,599616059921734598,6763
1712258517720,599616059929400120,6829
1712258517728,599616059937065642,6896
1712258517735,599616059944731164,6962
1712258517743,599616059952396686,6836
1712258517751,599616059960062208,6460
1712258517758,599616059967727730,5946
1712258517766,599616059975393252,5372
1712258517774,599616059983058774,4823
1712258517781,599616059990724296,4406
1712258517789,599616059998389818,3892
1712258517797,599616060006055340,2935
1712258517804,599616060013720862,2285
1712258517812,599616060021386384,2489
1712258517820,599616060029051906,2425
1712258517827,599616060036717428,1877
1712258517835,599616060044382950,1645
1712258517843,599616060052048472,1521
1712258517849,599616060059713994,1275
1712258517857,599616060067379516,1264
1712258517865,599616060075045038,1372
1712258517873,599616060082710560,1344
1712258517881,599616060090376082,1370
1712258517889,599616060098041604,1473
1712258517896,599616060105707126,1471
1712258517904,599616060113372648,1317
1712258517912,599616060121038170,1129
1712258517919,599616060128703692,1103
1712258517927,599616060136369214,1161
1712258517935,599616060144034736,1117
1712258517942,599616060151700258,1055
1712258517950,599616060159395904,1184
1712258517958,599616060167061008,1514
1712258517965,599616060174726112,1767
1712258517973,599616060182391216,1817
1712258517981,599616060190056320,1849
1712258517988,599616060197721424,1868
1712258517996,599616060205386528,1808
1712258518004,599616060213051632,1812
1712258518011,599616060220716736,1852
1712258518019,599616060228381840,1783
1712258518027,599616060236046944,1755
1712258518033,599616060243712048,1748
1712258518041,599616060251377152,1627
1712258518049,599616060259042256,1535
1712258518057,599616060266707360,1464
1712258518065,599616060274372464,1266
1712258518073,599616060282037568,1062
1712258518080,599616060289702672,890
1712258518088,599616060297367776,690
1712258518096,599616060305032880,592
1712258518103,599616060312697984,555
1712258518111,599616060320363088,367
1712258518119,599616060328028192,91
1712258518126,599616060335693296,-149
1712258518134,599616060343358400,-470
1712258518142,599616060351023504,-798
1712258518149,599616060358688608,-970
1712258518157,599616060366353712,-1156
1712258518165,599616060374018816,-1402
1712258518172,599616060381683920,-1512
1712258518180,599616060389349024,-1528
1712258518188,599616060397014128,-1574
1712258518195,599616060404679232,-1615
1712258518203,599616060412344336,-1643
1712258518211,599616060420009440,-1686
1712258518217,599616060427674544,-1751
1712258518225,599616060435339648,-1792
1712258518233,599616060443004752,-1741
1712258518241,599616060450669856,-1684
1712258518249,599616060458334960,-1684
1712258518257,599616060466000064,-1702
1712258518264,599616060473665168,-1787
1712258518272,599616060481330272,-1971
1712258518280,599616060488995376,-2145
1712258518287,599616060496660480,-2191
1712258518295,599616060504325584,-2120
1712258518303,599616060511990688,-2106
1712258518310,599616060519655792,-2242
1712258518318,599616060527320896,-2285
1712258518326,599616060534986000,-2187
1712258518333,599616060542651104,-2173
1712258518341,599616060550316208,-2159
1712258518349,599616060557981312,-2053
1712258518356,599616060565646416,-1998
1712258518364,599616060573311520,-1948
1712258518372,599616060580976624,-1829
1712258518379,599616060588641728,-1751
1712258518387,599616060596306832,-1728
1712258518395,599616060603971936,-1645
1712258518401,599616060611637040,-1560
1712258518409,599616060619302144,-1510
1712258518417,599616060626967248,-1411
1712258518425,599616060634632352,-1328
1712258518433,599616060642297456,-1287
1712258518441,599616060649962560,-1234
1712258518448,599616060657627664,-1193
1712258518456,599616060665292768,-1172
1712258518464,599616060672957872,-1131
1712258518471,599616060680622976,-1147
1712258518479,599616060688288080,-1214
1712258518487,599616060695953184,-1147
1712258518494,599616060703618288,-1014
1712258518502,599616060711283392,-970
1712258518509,599616060718918424,-915
1712258518517,599616060726583946,-745
1712258518525,599616060734249468,-594
1712258518532,599616060741914990,-569
1712258518540,599616060749580512,-651
1712258518548,599616060757246034,-738
1712258518555,599616060764911556,-674
1712258518563,599616060772577078,-518
1712258518571,599616060780242600,-456
1712258518577,599616060787908122,-431
1712258518585,599616060795573644,-344
1712258518593,599616060803239166,-284
1712258518601,599616060810904688,-282
1712258518609,599616060818570210,-208
1712258518617,599616060826235732,-130
1712258518624,599616060833901254,-183
1712258518632,599616060841566776,-289
1712258518640,599616060849232298,-339
1712258518647,599616060856897820,-325
1712258518655,599616060864563342,-259
1712258518663,599616060872228864,-208
1712258518670,599616060879894386,-282
1712258518678,599616060887559908,-360
1712258518686,599616060895225430,-252
1712258518693,599616060902890952,-94
1712258518701,599616060910556474,-9
1712258518709,599616060918221996,105
1712258518716,599616060925887518,195
1712258518724,599616060933553040,133
1712258518732,599616060941218562,73
1712258518739,599616060948884084,197
1712258518747,599616060956549606,392
1712258518755,599616060964215128,491
1712258518761,599616060971880650,546
1712258518769,599616060979546172,633
1712258518777,599616060987211694,732
1712258518785,599616060994877216,835
1712258518793,599616061002542738,973
1712258518801,599616061010208260,1076
1712258518808,599616061017873782,1117
1712258518816,599616061025539304,1158
1712258518824,599616061033204826,1236
1712258518831,599616061040870348,1331
1712258518839,599616061048535870,1420
1712258518847,599616061056201392,1484
1712258518854,599616061063866914,1507
1712258518862,599616061071532436,1491
1712258518870,599616061079197958,1420
1712258518877,599616061086863480,1397
1712258518885,599616061094529002,1496
1712258518893,599616061102194524,1553
1712258518900,599616061109860046,1510
1712258518908,599616061117525568,1516
1712258518916,599616061125191090,1622
1712258518923,599616061132856612,1679
1712258518931,599616061140522134,1698
1712258518939,599616061148187656,1796
1712258518945,599616061155853178,1904
1712258518953,599616061163518700,1952
1712258518961,599616061171184222,1978
1712258518969,599616061178849744,1994
1712258518977,599616061186515266,2019
1712258518985,599616061194180788,2042
1712258518992,599616061201846310,2014
1712258519000,599616061209511832,1927
1712258519008,599616061217177354,1854
1712258519015,599616061224842876,1806
1712258519023,599616061232508398,1732
1712258519031,599616061240173920,1677
1712258519038,599616061247839442,1652
1712258519046,599616061255504964,1622
1712258519054,599616061263170486,1613
1712258519061,599616061270836008,1572
1712258519069,599616061278531656,1521
1712258519077,599616061286196760,1578
1712258519084,599616061293861864,1640
1712258519092,599616061301526968,1608
1712258519100,599616061309192072,1622
1712258519107,599616061316857176,1652
1712258519115,599616061324522280,1553
1712258519123,599616061332187384,1526
1712258519129,599616061339852488,1650
1712258519137,599616061347517592,1695
1712258519145,599616061355182696,1698
1712258519153,599616061362847800,1787
1712258519161,599616061370512904,1881
1712258519169,599616061378178008,1982
1712258519176,599616061385843112,2129
1712258519184,599616061393508216,2182
1712258519192,599616061401173320,2086
1712258519199,599616061408838424,2086
1712258519207,599616061416503528,2235
1712258519215,599616061424168632,2329
1712258519222,599616061431833736,2480
1712258519230,599616061439498840,2735
1712258519238,599616061447163944,2889
1712258519245,599616061454829048,2997
1712258519253,599616061462494152,3130
1712258519261,599616061470159256,3256
1712258519268,599616061477824360,3407
1712258519276,599616061485489464,3577
1712258519284,599616061493154568,3749
1712258519291,599616061500819672,3855
1712258519299,599616061508484776,3722
1712258519307,599616061516149880,3440
1712258519313,599616061523814984,3306
1712258519321,599616061531480088,3355
1712258519329,599616061539145192,3421
1712258519337,599616061546810296,3410
1712258519345,599616061554475400,3316
1712258519353,599616061562140504,3157
1712258519360,599616061569805608,2965
1712258519368,599616061577470712,2781
1712258519376,599616061585135816,2561
1712258519383,599616061592800920,2187
1712258519391,599616061600466024,713
1712258519399,599616061608131128,-1301
1712258519406,599616061615796232,-374
1712258519414,599616061623461336,2398
1712258519422,599616061631126440,2948
1712258519429,599616061638791544,2641
1712258519437,599616061646456648,3210
1712258519445,599616061654121752,3527
1712258519452,599616061661786856,3701
1712258519460,599616061669451960,4066
1712258519468,599616061677117064,4055
1712258519475,599616061684782168,3919
1712258519483,599616061692447272,3956
1712258519491,599616061700112376,3669
1712258519497,599616061707777480,3150
1712258519505,599616061715442584,2937
1712258519513,599616061723107688,2866
1712258519521,599616061730772792,2756
1712258519529,599616061738437896,2799
1712258519537,599616061746103000,3017
1712258519544,599616061753768104,3267
1712258519552,599616061761433208,3295
1712258519560,599616061769098312,3111
1712258519567,599616061776763416,3001
1712258519575,599616061784428520,2907
1712258519583,599616061792093624,2808
1712258519590,599616061799758728,2841
1712258519598,599616061807423832,2864
1712258519606,599616061815088936,2829
1712258519613,599616061822754040,2882
1712258519621,599616061830419144,2928
1712258519629,599616061838084272,2889
1712258519636,599616061845749376,2912
1712258519644,599616061853414480,2919
1712258519652,599616061861079584,2786
1712258519659,599616061868744688,2687
1712258519667,599616061876409792,2682
1712258519675,599616061884074896,2657
1712258519681,599616061891740000,2639
1712258519689,599616061899405104,2572
1712258519697,599616061907070208,2370
1712258519705,599616061914735312,2239
1712258519713,599616061922400416,2292
1712258519721,599616061930065520,2315
1712258519728,599616061937730624,2253
1712258519736,599616061945395728,2148
1712258519744,599616061953060832,1985
1712258519751,599616061960725936,1932
1712258519759,599616061968391040,2010
1712258519767,599616061976056144,1994
1712258519774,599616061983721248,1881
1712258519782,599616061991386352,1861
1712258519790,599616061999051456,1934
1712258519797,599616062006716560,1971
1712258519805,599616062014381664,2021
1712258519813,599616062022046768,2168
1712258519820,599616062029711872,2322
1712258519828,599616062037376976,2368
1712258519836,599616062045042080,2260
1712258519843,599616062052707184,2189
1712258519851,599616062060372288,2301
1712258519859,599616062068037392,2416
1712258519865,599616062075702496,2476
1712258519873,599616062083367600,2584
1712258519881,599616062091032704,2652
1712258519889,599616062098697808,2602
1712258519897,599616062106362912,2627
1712258519905,599616062114028016,2889
1712258519912,599616062121693120,3088
1712258519920,599616062129358224,3049
1712258519928,599616062137023328,3093
1712258519935,599616062144688432,3254
1712258519943,599616062152353536,3265
1712258519951,599616062160018640,3325
1712258519958,599616062167683744,3603
1712258519966,599616062175348848,3772
1712258519974,599616062183013952,3846
1712258519981,599616062190679056,3997
1712258519989,599616062198344160,4027
1712258519997,599616062206009264,3956
1712258520004,599616062213674368,3981
1712258520012,599616062221339472,3972
1712258520020,599616062229004576,3926
1712258520027,599616062236669680,4027
1712258520035,599616062244334784,4158
1712258520043,599616062251999888,4176
1712258520049,599616062259664992,4188
1712258520057,599616062267330096,4245
1712258520065,599616062274995200,4268
1712258520073,599616062282660304,4266
1712258520081,599616062290325408,4293
1712258520089,599616062297990512,4261
1712258520096,599616062305655616,4202
1712258520104,599616062313320720,4231
1712258520112,599616062320985824,4277
1712258520119,599616062328650928,4305
1712258520127,599616062336316032,4341
1712258520135,599616062343981136,4332
1712258520142,599616062351646240,4289
1712258520150,599616062359311344,4293
1712258520158,599616062366976448,4341
1712258520165,599616062374641552,4420
1712258520173,599616062382306656,4509
1712258520181,599616062389971760,4562
1712258520188,599616062397636888,4576
1712258520196,599616062405301992,4537
1712258520204,599616062412967096,4484
1712258520211,599616062420632200,4509
1712258520219,599616062428297304,4557
1712258520227,599616062435962408,4573
1712258520233,599616062443627512,4631
1712258520241,599616062451292616,4612
1712258520249,599616062458957720,4472
1712258520257,599616062466622824,4438
1712258520265,599616062474287928,4495
1712258520273,599616062481953032,4553
1712258520280,599616062489618136,4546
1712258520288,599616062497283240,4385
1712258520296,599616062504948344,4319
1712258520303,599616062512613448,4403
1712258520311,599616062520278552,4413
1712258520319,599616062527943656,4394
1712258520326,599616062535608760,4420
1712258520334,599616062543273864,4378
1712258520342,599616062550938968,4319
1712258520349,599616062558604072,4341
1712258520357,599616062566269176,4376
1712258520365,599616062573934280,4399
1712258520372,599616062581599384,4449
1712258520380,599616062589264488,4447
1712258520387,599616062596929592,4408
1712258520395,599616062604594696,4440
1712258520403,599616062612259800,4479
1712258520409,599616062619924904,4479
1712258520417,599616062627590008,4523
1712258520425,599616062635255112,4500
1712258520433,599616062642920216,4371
1712258520441,599616062650585320,4358
1712258520449,599616062658250424,4417
1712258520456,599616062665915528,4456
1712258520464,599616062673580632,4603
1712258520472,599616062681245736,4741
1712258520479,599616062688910840,4688
1712258520487,599616062696575944,4633
1712258520495,599616062704241048,4752
1712258520502,599616062711906152,4874
1712258520510,599616062719571256,4927
1712258520518,599616062727236360,5069
1712258520525,599616062734901464,5237
1712258520533,599616062742566568,5324
1712258520541,599616062750231672,5360
1712258520548,599616062757896776,5395
1712258520556,599616062765561880,5496
1712258520564,599616062773226984,5599
1712258520571,599616062780892088,5558
1712258520579,599616062788557192,5383
1712258520587,599616062796222296,5181
1712258520593,599616062803887400,5051
1712258520601,599616062811552504,5030
1712258520609,599616062819217608,5097
1712258520617,599616062826882712,4975
1712258520625,599616062834547816,4433
1712258520633,599616062842212920,3814
1712258520640,599616062849878024,3451
1712258520648,599616062857543128,3153
1712258520656,599616062865208232,2786
1712258520663,599616062872873336,2593
1712258520671,599616062880538440,2574
1712258520679,599616062888203544,2310
1712258520686,599616062895868648,1734
1712258520694,599616062903533752,1099
1712258520702,599616062911198856,665
1712258520709,599616062918863960,500
1712258520717,599616062926529064,266
1712258520725,599616062934194168,-153
1712258520732,599616062941859272,-559
1712258520740,599616062949524376,-1064
1712258520748,599616062957189504,-1700
1712258520755,599616062964854608,-2157
1712258520763,599616062972519712,-2526
1712258520771,599616062980184816,-3059
1712258520777,599616062987849920,-3520
1712258520785,599616062995515024,-3869
1712258520793,599616063003180128,-4362
1712258520801,599616063010845232,-4821
1712258520809,599616063018510336,-5193
1712258520817,599616063026175440,-5698
1712258520824,599616063033840544,-5985
1712258520832,599616063041505648,-5975
1712258520840,599616063049170752,-6086
1712258520847,599616063056835856,-6136
1712258520855,599616063064500960,-6028
1712258520863,599616063072166064,-6184
1712258520870,599616063079831168,-6473
1712258520878,599616063087496272,-6494
1712258520886,599616063095161376,-6423
1712258520893,599616063102826480,-6347
1712258520901,599616063110491584,-6171
1712258520909,599616063118156688,-6099
1712258520916,599616063125821792,-6115
1712258520924,599616063133486896,-5953
1712258520932,599616063141152000,-5751
1712258520939,599616063148817104,-5656
1712258520947,599616063156482208,-5622
1712258520955,599616063164147312,-5764
1712258520961,599616063171812416,-6051
1712258520969,599616063179477520,-6111
1712258520977,599616063187142624,-5904
1712258520985,599616063194807728,-5861
1712258520993,599616063202472832,-5969
1712258521001,599616063210137936,-5916
1712258521008,599616063217803040,-5900
1712258521016,599616063225468144,-6040
1712258521024,599616063233133248,-6010
1712258521031,599616063240798352,-5845
1712258521039,599616063248463456,-5824
1712258521047,599616063256128560,-5893
1712258521054,599616063263793664,-5934
1712258521062,599616063271458768,-5994
1712258521070,599616063279123872,-6026
1712258521077,599616063286788976,-5936
1712258521085,599616063294454080,-5801
1712258521093,599616063302119184,-5709
1712258521100,599616063309784288,-5634
1712258521108,599616063317449392,-5549
1712258521116,599616063325114496,-5390
1712258521123,599616063332779600,-5131
1712258521131,599616063340444704,-4979
1712258521139,599616063348109808,-5025
1712258521145,599616063355774912,-5009
1712258521153,599616063363440016,-4936
1712258521161,599616063371105120,-4938
1712258521169,599616063378770224,-4741
1712258521177,599616063386435328,-4355
1712258521185,599616063394100432,-4050
1712258521192,599616063401765536,-3818
1712258521200,599616063409430640,-3655
1712258521208,599616063417095744,-3495
1712258521215,599616063424760848,-3247
1712258521223,599616063432425952,-3077
1712258521231,599616063440091056,-3070
1712258521238,599616063447756160,-3100
1712258521246,599616063455421264,-3125
1712258521254,599616063463086368,-3173
1712258521261,599616063470751472,-3121
1712258521269,599616063478416576,-2875
1712258521277,599616063486081680,-2662
1712258521284,599616063493746784,-2590
1712258521292,599616063501411888,-2494
1712258521300,599616063509076992,-2370
1712258521307,599616063516742120,-2260
1712258521315,599616063524407224,-2118
1712258521323,599616063532072328,-1991
1712258521329,599616063539737432,-1934
1712258521337,599616063547402536,-2012
1712258521345,599616063555067640,-2333
1712258521353,599616063562732744,-2673
1712258521361,599616063570397848,-2705
1712258521369,599616063578062952,-2602
1712258521376,599616063585728056,-2629
1712258521384,599616063593393160,-2703
1712258521392,599616063601058264,-2756
1712258521399,599616063608723368,-2811
1712258521407,599616063616388472,-2889
1712258521415,599616063624053576,-2967
1712258521422,599616063631718680,-2965
1712258521430,599616063639383784,-2912
1712258521438,599616063647048888,-2893
1712258521445,599616063654713992,-2893
1712258521453,599616063662379096,-2875
1712258521461,599616063670044200,-2829
1712258521468,599616063677709304,-2774
1712258521476,599616063685374408,-2774
1712258521484,599616063693039512,-2838
1712258521491,599616063700704616,-2852
1712258521499,599616063708369720,-2811
1712258521507,599616063716034824,-2781
1712258521513,599616063723699928,-2708
1712258521521,599616063731365032,-2643
1712258521529,599616063739030136,-2650
1712258521537,599616063746695240,-2629
1712258521545,599616063754360344,-2593
1712258521553,599616063762025448,-2620
1712258521560,599616063769690552,-2659
1712258521568,599616063777355656,-2742
1712258521576,599616063785020760,-2953
1712258521583,599616063792685864,-3093
1712258521591,599616063800350968,-3068
1712258521599,599616063808016072,-3072
1712258521606,599616063815681176,-3116
1712258521614,599616063823346280,-3155
1712258521622,599616063831011384,-3249
1712258521629,599616063838676488,-3371
1712258521637,599616063846341592,-3458
1712258521645,599616063854006696,-3515
1712258521652,599616063861671800,-3527
1712258521660,599616063869336904,-3538
1712258521668,599616063877002008,-3568
1712258521675,599616063884667112,-3536
1712258521683,599616063892332216,-3474
1712258521691,599616063899997320,-3545
1712258521697,599616063907662424,-3628
1712258521705,599616063915327528,-3497
1712258521713,599616063922992632,-3336
1712258521721,599616063930657736,-3341
1712258521729,599616063938322840,-3371
1712258521737,599616063945987944,-3300
1712258521744,599616063953653048,-3169
1712258521752,599616063961318152,-3068
1712258521760,599616063968983256,-2978
1712258521767,599616063976648360,-2721
1712258521775,599616063984313464,-2366
1712258521783,599616063991978568,-2285
1712258521790,599616063999643672,-2453
1712258521798,599616064007308776,-2409
1712258521806,599616064014973880,-2081
1712258521813,599616064022638984,-1771
1712258521821,599616064030304088,-1510
1712258521829,599616064037969192,-1078
1712258521836,599616064045634296,-514
1712258521844,599616064053299400,-142
1712258521852,599616064060964504,25
1712258521859,599616064068629608,229
1712258521867,599616064076294736,408
1712258521875,599616064083959840,527
1712258521881,599616064091624944,947
1712258521889,599616064099290048,1539
1712258521897,599616064106955152,1780
1712258521905,599616064114620256,1946
1712258521913,599616064122285360,2145
1712258521921,599616064129950464,1918
1712258521928,599616064137615568,1533
1712258521936,599616064145280672,1379
1712258521944,599616064152945776,1122
1712258521951,599616064160610880,862
1712258521959,599616064168275984,1028
1712258521967,599616064175941088,1211
1712258521974,599616064183606192,1041
1712258521982,599616064191271296,839
1712258521990,599616064198936400,837
1712258521997,599616064206601504,915
1712258522005,599616064214266608,1094
1712258522012,599616064221931712,1507
1712258522020,599616064229596816,1858
1712258522028,599616064237261920,1842
1712258522035,599616064244927024,1769
1712258522043,599616064252592128,1842
1712258522051,599616064260257232,1808
1712258522057,599616064267922336,1728
1712258522065,599616064275587440,1980
1712258522073,599616064283252544,2345
1712258522081,599616064290917648,2267
1712258522089,599616064298582752,1884
1712258522097,599616064306247856,1567
1712258522104,599616064313912960,1303
1712258522112,599616064321578064,1087
1712258522120,599616064329243168,1083
1712258522127,599616064336908272,1117
1712258522135,599616064344573376,814
1712258522143,599616064352238480,559
1712258522150,599616064359903584,775
1712258522158,599616064367568688,952
1712258522166,599616064375233792,851
1712258522173,599616064382898896,791
1712258522181,599616064390564000,794
1712258522189,599616064398229104,803
1712258522196,599616064405894208,874
1712258522204,599616064413559312,920
1712258522212,599616064421224416,934
1712258522219,599616064428889520,963
1712258522227,599616064436554624,934
1712258522235,599616064444219728,911
1712258522241,599616064451884832,982
1712258522249,599616064459549936,1057
1712258522257,599616064467215040,1108
1712258522265,599616064474880144,1106
1712258522273,599616064482545248,1080
1712258522281,599616064490210352,1158
1712258522288,599616064497875456,1266
1712258522296,599616064505540560,1289
1712258522304,599616064513205664,1301
1712258522311,599616064520870768,1319
1712258522319,599616064528535872,1328
1712258522327,599616064536200976,1379
1712258522334,599616064543866080,1413
1712258522342,599616064551531184,1337
1712258522350,599616064559196288,1257
1712258522357,599616064566861392,1301
1712258522365,599616064574526496,1386
1712258522373,599616064582191600,1413
1712258522380,599616064589856704,1418
1712258522388,599616064597521808,1471
1712258522396,599616064605186912,1555
1712258522403,599616064612852016,1599
1712258522411,599616064620517120,1675
1712258522419,599616064628182224,1799
1712258522425,599616064635817258,1748
1712258522433,599616064643482780,1475
1712258522441,599616064651148302,1324
1712258522449,599616064658813824,1418
1712258522457,599616064666479346,1500
1712258522465,599616064674144868,1512
1712258522472,599616064681810390,1489
1712258522480,599616064689475912,1445
1712258522488,599616064697141434,1438
1712258522495,599616064704806956,1406
1712258522503,599616064712472478,1422
1712258522511,599616064720138000,1551
1712258522518,599616064727803522,1574
1712258522526,599616064735469044,1434
1712258522534,599616064743134566,1351
1712258522541,599616064750800088,1360
1712258522549,599616064758465610,1303
1712258522557,599616064766131132,1241
1712258522564,599616064773796654,1273
1712258522572,599616064781462176,1234
1712258522580,599616064789127698,1117
1712258522587,599616064796793220,1126
1712258522595,599616064804458742,1197
1712258522603,599616064812124264,1211
1712258522609,599616064819789786,1220
1712258522617,599616064827455308,1225
1712258522625,599616064835120830,1207
1712258522633,599616064842786352,1202
1712258522641,599616064850451874,1191
1712258522649,599616064858117396,1184
1712258522656,599616064865782918,1202
1712258522664,599616064873448440,1186
1712258522672,599616064881113962,1106
1712258522679,599616064888779484,1057
1712258522687,599616064896445006,1092
1712258522695,599616064904110528,1117
1712258522702,599616064911776050,1117
1712258522710,599616064919441572,1124
1712258522718,599616064927107094,1092
1712258522725,599616064934772616,1028
1712258522733,599616064942438138,1023
1712258522741,599616064950103660,1060
1712258522748,599616064957769182,1092
1712258522756,599616064965434704,1067
1712258522764,599616064973100226,846
1712258522771,599616064980765748,578
1712258522779,599616064988431270,585
1712258522787,599616064996096792,693
1712258522793,599616065003762314,660
1712258522801,599616065011427836,626
1712258522809,599616065019093358,603
1712258522817,599616065026758880,408
1712258522825,599616065034424402,112
1712258522833,599616065042089924,20
1712258522840,599616065049755446,94
1712258522848,599616065057420968,91
1712258522856,599616065065086490,45
1712258522863,599616065072752012,22
1712258522871,599616065080417534,11
1712258522879,599616065088083056,55
1712258522886,599616065095748578,133
1712258522894,599616065103414100,188
1712258522902,599616065111079622,215
1712258522909,599616065118745144,167
1712258522917,599616065126410666,105
1712258522925,599616065134076188,183
1712258522932,599616065141741710,296
1712258522940,599616065149407232,302
1712258522948,599616065157072754,307
1712258522955,599616065164738276,335
1712258522963,599616065172403798,316
1712258522971,599616065180069320,339
1712258522977,599616065187734842,456
1712258522985,599616065195430488,598
1712258522993,599616065203095592,695
1712258523001,599616065210760696,665
1712258523009,599616065218425800,541
1712258523017,599616065226090904,504
1712258523024,599616065233756008,601
1712258523032,599616065241421112,697
1712258523040,599616065249086216,745
1712258523047,599616065256751320,835
1712258523055,599616065264416424,931
1712258523063,599616065272081528,901
1712258523070,599616065279746632,750
1712258523078,599616065287411736,651
1712258523086,599616065295076840,720
1712258523093,599616065302741944,796
1712258523101,599616065310407048,789
1712258523109,599616065318072152,761
1712258523116,599616065325737256,750
1712258523124,599616065333402360,828
1712258523132,599616065341067464,961
1712258523139,599616065348732568,1060
1712258523147,599616065356397672,1129
1712258523155,599616065364062776,1186
1712258523161,599616065371727880,1216
1712258523169,599616065379392984,1248
1712258523177,599616065387058088,1296
1712258523185,599616065394723192,1326
1712258523193,599616065402388296,1370
1712258523201,599616065410053400,1448
1712258523208,599616065417718504,1461
1712258523216,599616065425383608,1427
1712258523224,599616065433048712,1484
1712258523231,599616065440713816,1574
1712258523239,599616065448378920,1601
1712258523247,599616065456044024,1631
1712258523254,599616065463709128,1663
1712258523262,599616065471374232,1640
1712258523270,599616065479039336,1549
1712258523277,599616065486704440,1459
1712258523285,599616065494369544,1498
1712258523293,599616065502034648,1567
1712258523300,599616065509699752,1482
1712258523308,599616065517364856,1335
1712258523316,599616065525029960,1340
1712258523323,599616065532695064,1386
1712258523331,599616065540360168,1319
1712258523339,599616065548025272,1305
1712258523345,599616065555690376,1379
1712258523353,599616065563355480,1379
1712258523361,599616065571020584,1296
1712258523369,599616065578685688,1168
1712258523377,599616065586350792,1067
1712258523385,599616065594015896,1057
1712258523392,599616065601681000,1037
1712258523400,599616065609346104,952
1712258523408,599616065617011208,899
1712258523415,599616065624676312,874
1712258523423,599616065632341416,833
1712258523431,599616065640006520,816
1712258523438,599616065647671624,794
1712258523446,599616065655336728,748
1712258523454,599616065663001832,771
1712258523461,599616065670666936,1060
1712258523469,599616065678332040,1647
1712258523477,599616065685997144,2067
1712258523484,599616065693662248,2051
1712258523492,599616065701327352,1776
1712258523500,599616065708992456,1390
1712258523507,599616065716657560,1135
1712258523515,599616065724322664,1161
1712258523523,599616065731987768,1207
1712258523529,599616065739652872,1138
1712258523537,599616065747317976,1122
1712258523545,599616065754983104,1133
1712258523553,599616065762648208,1076
1712258523561,599616065770313312,1062
1712258523569,599616065777978416,1113
1712258523576,599616065785643520,1117
1712258523584,599616065793308624,1106
1712258523592,599616065800973728,1108
1712258523599,599616065808638832,1074
1712258523607,599616065816303936,1055
1712258523615,599616065823969040,1094
1712258523622,599616065831634144,1090
1712258523630,599616065839299248,1057
1712258523638,599616065846964352,1048
1712258523645,599616065854629456,934
1712258523653,599616065862294560,794
1712258523661,599616065869959664,874
1712258523668,599616065877624768,979
1712258523676,599616065885289872,954
1712258523684,599616065892954976,979
1712258523691,599616065900620080,1085
1712258523699,599616065908285184,1113
1712258523707,599616065915950288,995
1712258523713,599616065923615392,810
1712258523721,599616065931280496,722
1712258523729,599616065938945600,798
1712258523737,599616065946610704,816
1712258523745,599616065954275808,755
1712258523753,599616065961940912,803
1712258523760,599616065969606016,885
1712258523768,599616065977271120,833
1712258523776,599616065984936224,729
1712258523783,599616065992601328,709
1712258523791,599616066000266432,642
1712258523798,599616066007931536,408
1712258523806,599616066015596640,167
1712258523814,599616066023261744,11
1712258523821,599616066030926848,-185
1712258523829,599616066038591952,-390
1712258523837,599616066046257056,-520
1712258523844,599616066053922160,-637
1712258523852,599616066061587264,-752
1712258523860,599616066069252368,-851
1712258523867,599616066076917472,-961
1712258523875,599616066084582576,-1101
1712258523883,599616066092247680,-1266
1712258523889,599616066099912784,-1445
1712258523897,599616066107577888,-1590
1712258523905,599616066115242992,-1668
1712258523913,599616066122908096,-1817
1712258523921,599616066130573200,-2157
1712258523929,599616066138238304,-2501
1712258523936,599616066145903408,-2717
1712258523944,599616066153568512,-2916
1712258523952,599616066161233616,-3045
1712258523959,599616066168898720,-3066
1712258523967,599616066176563824,-3157
1712258523975,599616066184228928,-3286
1712258523982,599616066191894032,-3394
1712258523990,599616066199559136,-3495
1712258523998,599616066207224240,-3458
1712258524005,599616066214889344,-3366
1712258524013,599616066222554448,-3355
1712258524021,599616066230219552,-3334
1712258524028,599616066237884656,-3334
1712258524036,599616066245549760,-3414
1712258524044,599616066253214864,-3483
1712258524051,599616066260879968,-3584
1712258524059,599616066268545072,-3726
1712258524067,599616066276210176,-3770
1712258524073,599616066283875280,-3821
1712258524081,599616066291540384,-3967
1712258524089,599616066299205488,-4045
1712258524097,599616066306870592,-4050
1712258524105,599616066314535720,-4151
1712258524113,599616066322200824,-4312
1712258524120,599616066329865928,-4371
1712258524128,599616066337531032,-4332
1712258524136,599616066345196136,-4325
1712258524143,599616066352861240,-4387
1712258524151,599616066360526344,-4445
1712258524159,599616066368191448,-4431
1712258524166,599616066375856552,-4387
1712258524174,599616066383521656,-4504
1712258524182,599616066391186760,-4741
1712258524189,599616066398851864,-4810
1712258524197,599616066406516968,-4709
1712258524205,599616066414182072,-4599
1712258524212,599616066421847176,-4507
1712258524220,599616066429512280,-4454
1712258524228,599616066437177384,-4424
1712258524235,599616066444842488,-4371
1712258524243,599616066452507592,-4305
1712258524251,599616066460172696,-4273
1712258524257,599616066467837800,-4481
1712258524265,599616066475502904,-4936
1712258524273,599616066483168008,-5136
1712258524281,599616066490833112,-4963
1712258524289,599616066498498216,-4833
1712258524297,599616066506163320,-4771
1712258524304,599616066513828424,-4621
1712258524312,599616066521493528,-4472
1712258524320,599616066529158632,-4397
1712258524327,599616066536823736,-4300
1712258524335,599616066544488840,-4114
1712258524343,599616066552153944,-3910
1712258524350,599616066559819048,-3912
1712258524358,599616066567484152,-4062
1712258524366,599616066575149256,-4022
1712258524373,599616066582814360,-3935
1712258524381,599616066590479464,-3917
1712258524389,599616066598144568,-3713
1712258524396,599616066605809672,-3433
1712258524404,599616066613474776,-3162
1712258524412,599616066621139880,-2783
1712258524419,599616066628804984,-2570
1712258524427,599616066636470088,-2611
1712258524435,599616066644135192,-2584
1712258524441,599616066651800296,-2462
1712258524449,599616066659465400,-2361
1712258524457,599616066667130504,-2242
1712258524465,599616066674795608,-2150
1712258524473,599616066682460712,-2109
1712258524481,599616066690125816,-2021
1712258524488,599616066697790920,-1891
1712258524496,599616066705456024,-1808
1712258524504,599616066713121128,-1755
1712258524511,599616066720786232,-1709
1712258524519,599616066728451336,-1741
1712258524527,599616066736116440,-1762
1712258524534,599616066743781544,-1640
1712258524542,599616066751446648,-1514
1712258524550,599616066759111752,-1468
1712258524557,599616066766776856,-1422
1712258524565,599616066774441960,-1388
1712258524573,599616066782107064,-1374
1712258524580,599616066789772168,-1308
1712258524588,599616066797437272,-1232
1712258524596,599616066805102376,-1202
1712258524603,599616066812767480,-1186
1712258524611,599616066820432584,-1218
1712258524619,599616066828097688,-1310
1712258524625,599616066835762792,-1319
1712258524633,599616066843427896,-1225
1712258524641,599616066851093000,-1165
1712258524649,599616066858758104,-1158
1712258524657,599616066866423208,-1163
1712258524665,599616066874058240,-1175
1712258524672,599616066881723762,-1179
1712258524680,599616066889389284,-1211
1712258524688,599616066897054806,-1310
1712258524695,599616066904720328,-1379
1712258524703,599616066912385850,-1372
1712258524711,599616066920051372,-1448
1712258524718,599616066927716894,-1606
1712258524726,599616066935382416,-1611
1712258524734,599616066943047938,-1461
1712258524741,599616066950713460,-1420
1712258524749,599616066958378982,-1461
1712258524757,599616066966044504,-1429
1712258524764,599616066973710026,-1438
1712258524772,599616066981375548,-1558
1712258524780,599616066989041070,-1574
1712258524787,599616066996706592,-1454
1712258524795,599616067004372114,-1418
1712258524803,599616067012037636,-1422
1712258524809,599616067019703158,-1386
1712258524817,599616067027368680,-1381
1712258524825,599616067035034202,-1363
1712258524833,599616067042699724,-1303
1712258524841,599616067050365246,-1282
1712258524849,599616067058030768,-1255
1712258524856,599616067065696290,-1202
1712258524864,599616067073361812,-1220
1712258524872,599616067081027334,-1234
1712258524879,599616067088692856,-1165
1712258524887,599616067096358378,-1154
1712258524895,599616067104023900,-1232
1712258524902,599616067111689422,-1275
1712258524910,599616067119354944,-1301
1712258524918,599616067127020466,-1324
1712258524925,599616067134685988,-1292
1712258524933,599616067142351510,-1285
1712258524941,599616067150017032,-1285
1712258524948,599616067157682554,-1209
1712258524956,599616067165348076,-1154
1712258524964,599616067173013598,-1131
1712258524971,599616067180679120,-1032
1712258524979,599616067188344642,-892
1712258524987,599616067196010164,-823
1712258524993,599616067203675686,-913
1712258525001,599616067211341208,-1163
1712258525009,599616067219006730,-1331
1712258525017,599616067226672252,-1253
1712258525025,599616067234337774,-1131
1712258525033,599616067242003296,-1064
1712258525040,599616067249668818,-973
1712258525048,599616067257334340,-860
1712258525056,599616067264999862,-780
1712258525063,599616067272665384,-732
1712258525071,599616067280330906,-656
1712258525079,599616067287996428,-557
1712258525086,599616067295661950,-497
1712258525094,599616067303327472,-472
1712258525102,599616067310992994,-456
1712258525109,599616067318658516,-458
1712258525117,599616067326324038,-440
1712258525125,599616067333989560,-380
1712258525132,599616067341655082,-300
1712258525140,599616067349320604,-236
1712258525148,599616067356986126,-206
1712258525155,599616067364651648,-206
1712258525163,599616067372317170,-204
1712258525171,599616067379982692,-179
1712258525177,599616067387648214,-176
1712258525185,599616067395313736,-183
1712258525193,599616067402979258,-123
1712258525201,599616067410644780,-84
1712258525209,599616067418310302,-130
1712258525217,599616067425975824,-119
1712258525224,599616067433671468,-45
1712258525232,599616067441336572,-32
1712258525240,599616067449001676,-39
1712258525247,599616067456666780,-57
1712258525255,599616067464331884,-130
1712258525263,599616067471996988,-128
1712258525270,599616067479662092,-11
1712258525278,599616067487327196,-20
1712258525286,599616067494992300,-103
1712258525293,599616067502657404,-57
1712258525301,599616067510322508,-55
1712258525309,599616067517987612,-128
1712258525316,599616067525652716,-75
1712258525324,599616067533317820,-25
1712258525332,599616067540982924,-84
1712258525339,599616067548648028,-121
1712258525347,599616067556313132,-137
1712258525355,599616067563978236,-174
1712258525361,599616067571643340,-172
1712258525369,599616067579308444,-165
1712258525377,599616067586973548,-218
1712258525385,599616067594638652,-279
1712258525393,599616067602303756,-305
1712258525401,599616067609968860,-332
1712258525408,599616067617633964,-321
1712258525416,599616067625299068,-261
1712258525424,599616067632964172,-273
1712258525431,599616067640629276,-330
1712258525439,599616067648294380,-323
1712258525447,599616067655959484,-383
1712258525454,599616067663624588,-580
1712258525462,599616067671289692,-686
1712258525470,599616067678954796,-637
1712258525477,599616067686619900,-615
1712258525485,599616067694285004,-644
1712258525493,599616067701950108,-660
1712258525500,599616067709615212,-633
1712258525508,599616067717280316,-566
1712258525516,599616067724945420,-527
1712258525523,599616067732610524,-530
1712258525531,599616067740275628,-514
1712258525539,599616067747940732,-477
1712258525545,599616067755605836,-456
1712258525553,599616067763270940,-433
1712258525561,599616067770936044,-403
1712258525569,599616067778601148,-380
1712258525577,599616067786266252,-362
1712258525584,599616067793931356,-344
1712258525592,599616067801596460,-360
1712258525600,599616067809261564,-390
1712258525607,599616067816926668,-341
1712258525615,599616067824591772,-268
1712258525623,599616067832256876,-252
1712258525630,599616067839921980,-211
1712258525638,599616067847587084,-91
1712258525646,599616067855252188,32
1712258525653,599616067862917292,100
1712258525661,599616067870582396,-20
1712258525669,599616067878247500,-279
1712258525676,599616067885912604,-289
1712258525684,599616067893577708,-84
1712258525692,599616067901242812,13
1712258525699,599616067908907916,94
1712258525707,599616067916573020,206
1712258525715,599616067924238124,273
1712258525721,599616067931903228,385
1712258525729,599616067939568332,541
1712258525737,599616067947233436,580
1712258525745,599616067954898540,530
1712258525753,599616067962563644,491
1712258525761,599616067970228748,406
1712258525768,599616067977893852,337
1712258525776,599616067985558956,332
1712258525784,599616067993224088,245
1712258525791,599616068000889192,130
1712258525799,599616068008554296,174
1712258525807,599616068016219400,284
1712258525814,599616068023884504,289
1712258525822,599616068031549608,261
1712258525830,599616068039214712,284
1712258525837,599616068046879816,259
1712258525845,599616068054544920,192
1712258525853,599616068062210024,224
1712258525860,599616068069875128,298
1712258525868,599616068077540232,330
1712258525876,599616068085205336,374
1712258525883,599616068092870440,406
1712258525891,599616068100535544,374
1712258525899,599616068108200648,351
1712258525905,599616068115865752,360
1712258525913,599616068123530856,341
1712258525921,599616068131195960,291
1712258525929,599616068138861064,236
1712258525937,599616068146526168,162
1712258525945,599616068154191272,158
1712258525952,599616068161856376,259
1712258525960,599616068169521480,332
1712258525968,599616068177186584,346
1712258525975,599616068184851688,364
1712258525983,599616068192516792,360
1712258525991,599616068200181896,312
1712258525998,599616068207847000,312
1712258526006,599616068215512104,353
1712258526014,599616068223177208,364
1712258526021,599616068230842312,351
1712258526029,599616068238507416,321
1712258526037,599616068246172520,270
1712258526044,599616068253837624,257
1712258526052,599616068261502728,289
1712258526060,599616068269167832,316
1712258526067,599616068276832936,328
1712258526075,599616068284498040,330
1712258526083,599616068292163144,284
1712258526089,599616068299828248,243
1712258526097,599616068307493352,263
1712258526105,599616068315158456,275
1712258526113,599616068322823560,252
1712258526121,599616068330488664,245
1712258526129,599616068338153768,206
1712258526136,599616068345818872,133
1712258526144,599616068353483976,144
1712258526152,599616068361149080,179
1712258526159,599616068368814184,128
1712258526167,599616068376479288,55
1712258526175,599616068384144392,41
1712258526182,599616068391809496,75
1712258526190,599616068399474600,133
1712258526198,599616068407139704,192
1712258526205,599616068414804808,229
1712258526213,599616068422469912,250
1712258526221,599616068430135016,257
1712258526228,599616068437800120,252
1712258526236,599616068445465224,277
1712258526244,599616068453130328,321
1712258526251,599616068460795432,348
1712258526259,599616068468460536,362
1712258526267,599616068476125640,367
1712258526273,599616068483790744,362
1712258526281,599616068491455848,309
1712258526289,599616068499120952,197
1712258526297,599616068506786056,162
1712258526305,599616068514451160,218
1712258526313,599616068522116264,234
1712258526320,599616068529781368,259
1712258526328,599616068537446472,314
1712258526336,599616068545111576,321
1712258526343,599616068552776704,192
1712258526351,599616068560441808,-29
1712258526359,599616068568106912,-87
1712258526366,599616068575772016,-6
1712258526374,599616068583437120,-11
1712258526382,599616068591102224,-13
1712258526389,599616068598767328,78
1712258526397,599616068606432432,142
1712258526405,599616068614097536,114
1712258526412,599616068621762640,61
1712258526420,599616068629427744,-22
1712258526428,599616068637092848,-149
1712258526435,599616068644757952,-167
1712258526443,599616068652423056,-98
1712258526451,599616068660088160,-128
1712258526457,599616068667753264,-199
1712258526465,599616068675418368,-229
1712258526473,599616068683083472,-257
1712258526481,599616068690748576,-229
1712258526489,599616068698413680,-156
1712258526497,599616068706078784,-160
1712258526504,599616068713743888,-158
1712258526512,599616068721408992,-66
1712258526520,599616068729074096,-4
1712258526527,599616068736739200,36
1712258526535,599616068744404304,103
1712258526543,599616068752069408,117
1712258526550,599616068759734512,78
1712258526558,599616068767399616,59
1712258526566,599616068775064720,20
1712258526573,599616068782729824,-71
1712258526581,599616068790394928,-107
1712258526589,599616068798060032,-87
1712258526596,599616068805725136,-91
1712258526604,599616068813390240,-100
1712258526612,599616068821055344,-110
1712258526619,599616068828720448,-172
1712258526627,599616068836385552,-279
1712258526635,599616068844050656,-440
1712258526641,599616068851715760,-635
1712258526649,599616068859380864,-745
1712258526657,599616068867045968,-839
1712258526665,599616068874711072,-1025
1712258526673,599616068882376176,-1220
1712258526681,599616068890041280,-1358
1712258526688,599616068897706384,-1425
1712258526696,599616068905371488,-1422
1712258526704,599616068913036592,-1432
1712258526711,599616068920701696,-1503
1712258526719,599616068928366800,-1604
1712258526727,599616068936031904,-1656
1712258526734,599616068943697008,-1744
1712258526742,599616068951362112,-1943
1712258526750,599616068959027216,-2042
1712258526757,599616068966692320,-1989
1712258526765,599616068974357424,-2031
1712258526773,599616068982022528,-2166
1712258526780,599616068989687632,-2198
1712258526788,599616068997352736,-2166
1712258526796,599616069005017840,-2182
1712258526803,599616069012682944,-2138
1712258526811,599616069020348048,-2024
1712258526819,599616069028013152,-1957
1712258526825,599616069035678256,-1891
1712258526833,599616069043343360,-1744
1712258526841,599616069051008464,-1569
1712258526849,599616069058673568,-1406
1712258526857,599616069066338672,-1328
1712258526865,599616069074003776,-1317
1712258526872,599616069081668880,-1161
1712258526880,599616069089333984,-865
1712258526888,599616069096999088,-628
1712258526895,599616069104664192,-486
1712258526903,599616069112299224,-449
1712258526911,599616069119964746,-477
1712258526918,599616069127630268,-408
1712258526926,599616069135295790,-291
1712258526934,599616069142961312,-252
1712258526941,599616069150626834,-211
1712258526949,599616069158292356,-105
1712258526957,599616069165957878,-87
1712258526964,599616069173623400,-137
1712258526972,599616069181288922,-32
1712258526980,599616069188954444,153
1712258526987,599616069196619966,245
1712258526995,599616069204285488,335
1712258527003,599616069211951010,463
1712258527009,599616069219616532,562
1712258527017,599616069227282054,755
1712258527025,599616069234947576,1119
1712258527033,599616069242613098,1432
1712258527041,599616069250278620,1576
1712258527049,599616069257944142,1592
1712258527056,599616069265609664,1654
1712258527064,599616069273275186,2014
1712258527072,599616069280940708,2519
1712258527079,599616069288606230,2997
1712258527087,599616069296271752,3554
1712258527095,599616069303937274,4073
1712258527102,599616069311602796,4284
1712258527110,599616069319268318,4282
1712258527118,599616069326933840,4325
1712258527125,599616069334599362,4371
1712258527133,599616069342264884,4241
1712258527140,599616069349930406,4018
1712258527148,599616069357595928,3883
1712258527156,599616069365261450,3857
1712258527163,599616069372926972,3912
1712258527171,599616069380592494,4009
1712258527179,599616069388258016,4078
1712258527185,599616069395923538,4142
1712258527193,599616069403589060,4247
1712258527201,599616069411254582,4261
1712258527209,599616069418920104,4110
1712258527217,599616069426585626,4041
1712258527225,599616069434251148,4114
1712258527232,599616069441916670,4117
1712258527240,599616069449582192,4052
1712258527248,599616069457247714,4032
1712258527255,599616069464913236,4002
1712258527263,599616069472578758,3965
1712258527271,599616069480244280,3981
1712258527278,599616069487909802,3956
1712258527286,599616069495575324,3880
1712258527294,599616069503240846,3791
1712258527301,599616069510906368,3621
1712258527309,599616069518571890,3504
1712258527317,599616069526237412,3536
1712258527324,599616069533902934,3568
1712258527332,599616069541568456,3561
1712258527340,599616069549233978,3582
1712258527347,599616069556899500,3492
1712258527355,599616069564565022,3185
1712258527363,599616069572230544,2974
1712258527369,599616069579896066,3022
1712258527377,599616069587561588,3038
1712258527385,599616069595227110,2981
1712258527393,599616069602892632,2912
1712258527401,599616069610558154,2705
1712258527409,599616069618223676,2437
1712258527416,599616069625889198,2294
1712258527424,599616069633554720,2283
1712258527432,599616069641220242,2329
1712258527439,599616069648885764,2372
1712258527447,599616069656551286,2382
1712258527455,599616069664216808,2386
1712258527462,599616069671917494,2421
1712258527470,599616069679582528,2457
1712258527478,599616069687247562,2480
1712258527485,599616069694912596,2512
1712258527493,599616069702577630,2531
1712258527501,599616069710242664,2510
1712258527508,599616069717907698,2489
1712258527516,599616069725572732,2469
1712258527524,599616069733237766,2430
1712258527531,599616069740902800,2398
1712258527539,599616069748567834,2322
1712258527547,599616069756232868,2154
1712258527553,599616069763897902,2051
1712258527561,599616069771562936,2063
1712258527569,599616069779227970,1998
1712258527577,599616069786893004,1884
1712258527585,599616069794558038,1879
1712258527593,599616069802223072,1833
1712258527600,599616069809888106,1684
1712258527608,599616069817553140,1679
1712258527616,599616069825218174,1778
1712258527623,599616069832883208,1801
1712258527631,599616069840548242,1780
1712258527639,599616069848213276,1739
1712258527646,599616069855878310,1691
1712258527654,599616069863543344,1716
1712258527662,599616069871208378,1790
1712258527669,599616069878873412,1803
1712258527677,599616069886538446,1803
1712258527685,599616069894203480,1833
1712258527692,599616069901868514,1801
1712258527700,599616069909533548,1737
1712258527708,599616069917198582,1732
1712258527715,599616069924863616,1707
1712258527723,599616069932528650,1659
1712258527731,599616069940193684,1689
1712258527737,599616069947858718,1702
1712258527745,599616069955523752,1702
1712258527753,599616069963188786,1799
1712258527761,599616069970853820,1842
1712258527769,599616069978518854,1654
1712258527777,599616069986183888,1438
1712258527784,599616069993848922,1452
1712258527792,599616070001513956,1528
1712258527800,599616070009178990,1493
1712258527807,599616070016844024,1498
1712258527815,599616070024509058,1585
1712258527823,599616070032174092,1638
1712258527830,599616070039839126,1631
1712258527838,599616070047504160,1604
1712258527846,599616070055169194,1574
1712258527853,599616070062834228,1574
1712258527861,599616070070499262,1581
1712258527869,599616070078164296,1562
1712258527876,599616070085829330,1555
1712258527884,599616070093494364,1551
1712258527892,599616070101159398,1498
1712258527899,599616070108824432,1482
1712258527907,599616070116489466,1549
1712258527915,599616070124154500,1576
1712258527921,599616070131819534,1542
1712258527929,599616070139484568,1503
1712258527937,599616070147149602,1438
1712258527945,599616070154814636,1418
1712258527953,599616070162479670,1487
1712258527961,599616070170144704,1493
1712258527968,599616070177809738,1415
1712258527976,599616070185474772,1413
1712258527984,599616070193139806,1482
1712258527991,599616070200804840,1498
1712258527999,599616070208469874,1487
1712258528007,599616070216134908,1464
1712258528014,599616070223799942,1432
1712258528022,599616070231454942,1459
1712258528030,599616070239120116,1519
1712258528037,599616070246785290,1537
1712258528045,599616070254450464,1562
1712258528053,599616070262115638,1620
1712258528060,599616070269780812,1652
1712258528068,599616070277445986,1721
1712258528076,599616070285111160,1858
1712258528083,599616070292776334,1902
1712258528091,599616070300441508,1888
1712258528099,599616070308106682,1994
1712258528105,599616070315771856,2067
1712258528113,599616070323437030,2058
1712258528121,599616070331102204,2154
1712258528129,599616070338767378,2290
1712258528137,599616070346432552,2226
1712258528145,599616070354097726,2056
1712258528152,599616070361762900,2044
1712258528160,599616070369428074,2106
1712258528168,599616070377093248,2148
1712258528175,599616070384758422,2320
1712258528183,599616070392423596,2593
1712258528191,599616070400088770,2799
1712258528198,599616070407753944,2864
1712258528206,599616070415419118,2854
1712258528214,599616070423084292,2873
1712258528221,599616070430749466,2850
1712258528229,599616070438414640,2721
1712258528237,599616070446079814,2632
1712258528244,599616070453744988,2646
1712258528252,599616070461410162,2627
1712258528260,599616070469075336,2568
1712258528267,599616070476740510,2563
1712258528275,599616070484405684,2535
1712258528283,599616070492070858,2414
1712258528289,599616070499736032,2389
1712258528297,599616070507401206,2508
1712258528305,599616070515066380,2526
1712258528313,599616070522731554,2418
1712258528321,599616070530396728,2416
1712258528329,599616070538061902,2478
1712258528336,599616070545727076,2473
1712258528344,599616070553392250,2464
1712258528352,599616070561057424,2471
1712258528359,599616070568722598,2489
1712258528367,599616070576387772,2529
1712258528375,599616070584052946,2547
1712258528382,599616070591718120,2483
1712258528390,599616070599383294,2400
1712258528398,599616070607048468,2407
1712258528405,599616070614713642,2453
1712258528413,599616070622378816,2437
1712258528421,599616070630043990,2359
1712258528428,599616070637709164,2255
1712258528436,599616070645374338,2212
1712258528444,599616070653039512,2219
1712258528451,599616070660704686,2170
1712258528459,599616070668369860,2086
1712258528467,599616070676035034,2031
1712258528473,599616070683700208,1952
1712258528481,599616070691365382,1936
1712258528489,599616070699030556,1996
1712258528497,599616070706695730,1936
1712258528505,599616070714360904,1767
1712258528513,599616070722026078,1535
1712258528520,599616070729691252,1308
1712258528528,599616070737356426,1321
1712258528536,599616070745021600,1464
1712258528543,599616070752686774,1487
1712258528551,599616070760351948,1493
1712258528559,599616070768017122,1567
1712258528566,599616070775682296,1569
1712258528574,599616070783347470,1523
1712258528582,599616070791017686,1519
1712258528589,599616070798682790,1404
1712258528597,599616070806347894,1142
1712258528605,599616070814012998,973
1712258528612,599616070821678102,936
1712258528620,599616070829343206,881
1712258528628,599616070837008310,814
1712258528635,599616070844673414,796
1712258528643,599616070852338518,775
1712258528651,599616070860003622,674
1712258528657,599616070867668726,477
1712258528665,599616070875333830,172
1712258528673,599616070882998934,-121
1712258528681,599616070890664038,-227
1712258528689,599616070898329142,-252
1712258528697,599616070905994246,-392
1712258528704,599616070913659350,-569
1712258528712,599616070921324454,-631
1712258528720,599616070928989558,-624
1712258528727,599616070936654662,-601
1712258528735,599616070944319766,-555
1712258528743,599616070951984870,-562
1712258528750,599616070959649974,-681
1712258528758,599616070967315078,-860
1712258528766,599616070974980182,-982
1712258528773,599616070982645286,-950
1712258528781,599616070990310390,-844
1712258528789,599616070997975494,-839
1712258528796,599616071005640598,-906
1712258528804,599616071013305702,-947
1712258528812,599616071020970806,-961
1712258528819,599616071028635910,-929
1712258528827,599616071036301014,-881
1712258528835,599616071043966118,-869
1712258528841,599616071051631222,-814
1712258528849,599616071059296326,-736
1712258528857,599616071066961430,-828
1712258528865,599616071074626534,-993
1712258528873,599616071082291638,-915
1712258528881,599616071089956742,-766
1712258528888,599616071097621846,-851
1712258528896,599616071105286950,-956
1712258528904,599616071112952054,-895
1712258528911,599616071120617158,-858
1712258528919,599616071128282262,-865
1712258528927,599616071135947366,-791
1712258528934,599616071143612470,-736
1712258528942,599616071151277574,-752
1712258528950,599616071158942678,-743
1712258528957,599616071166607782,-711
1712258528965,599616071174272886,-656
1712258528973,599616071181937990,-509
1712258528980,599616071189603094,-238
1712258528988,599616071197268198,199
1712258528996,599616071204933302,718
1712258529003,599616071212598406,1078
1712258529011,599616071220263510,1376
1712258529017,599616071227928614,1904
1712258529025,599616071235593718,2414
1712258529033,599616071243258822,2884
1712258529041,599616071250923926,3699
1712258529049,599616071258589030,4440
1712258529057,599616071266254134,4477
1712258529064,599616071273919238,4319
1712258529072,599616071281584342,4608
1712258529080,599616071289249446,4700
1712258529087,599616071296914550,4133
1712258529095,599616071304579654,3899
1712258529103,599616071312244758,4452
1712258529110,599616071319909862,4800
1712258529118,599616071327574966,4644
1712258529126,599616071335240070,4638
1712258529133,599616071342905174,4844
1712258529141,599616071350570304,4957
1712258529149,599616071358235408,4950
1712258529156,599616071365900512,4927
1712258529164,599616071373565616,4876
1712258529172,599616071381230720,4787
1712258529179,599616071388895824,4628
1712258529187,599616071396560928,4293
1712258529195,599616071404226032,4153
1712258529201,599616071411891136,4426
1712258529209,599616071419556240,4420
1712258529217,599616071427221344,4064
1712258529225,599616071434886448,3997
1712258529233,599616071442551552,4220
1712258529241,599616071450216656,4289
1712258529248,599616071457881760,4064
1712258529256,599616071465546864,3738
1712258529264,599616071473211968,3421
1712258529271,599616071480877072,3267
1712258529279,599616071488542176,3306
1712258529287,599616071496207280,3247
1712258529294,599616071503872384,3079
1712258529302,599616071511537488,2903
1712258529310,599616071519202592,2572
1712258529317,599616071526867696,2090
1712258529325,599616071534532800,1707
1712258529333,599616071542197904,1698
1712258529340,599616071549863008,1888
1712258529348,599616071557528112,1868
1712258529356,599616071565193216,1861
1712258529363,599616071572858320,2111
1712258529371,599616071580523424,2228
1712258529379,599616071588188528,2288
1712258529385,599616071595853632,2584
1712258529393,599616071603518736,2680
1712258529401,599616071611183840,2501
1712258529409,599616071618848944,2616
1712258529417,599616071626514048,2939
1712258529425,599616071634179152,3066
1712258529432,599616071641844256,3107
1712258529440,599616071649509360,3242
1712258529448,599616071657174464,3380
1712258529455,599616071664839568,3440
1712258529463,599616071672504672,3405
1712258529471,599616071680169776,3357
1712258529478,599616071687834880,3373
1712258529486,599616071695499984,3313
1712258529494,599616071703165088,3132
1712258529501,599616071710830192,3059
1712258529509,599616071718495296,3203
1712258529517,599616071726160400,3332
1712258529524,599616071733825504,3293
1712258529532,599616071741490608,3256
1712258529540,599616071749155712,3334
1712258529547,599616071756820816,3398
1712258529555,599616071764485920,3421
1712258529563,599616071772151024,3529
1712258529569,599616071779816128,3681
1712258529577,599616071787481232,3738
1712258529585,599616071795146336,3749
1712258529593,599616071802811440,3740
1712258529601,599616071810476544,3655
1712258529609,599616071818141648,3609
1712258529616,599616071825806752,3621
1712258529624,599616071833471856,3575
1712258529632,599616071841136960,3511
1712258529639,599616071848802064,3417
1712258529647,599616071856467168,3263
1712258529655,599616071864132272,3215
1712258529662,599616071871797376,3215
1712258529670,599616071879462480,2893
1712258529678,599616071887127584,2423
1712258529685,599616071894792688,2242
1712258529693,599616071902457792,1930
1712258529701,599616071910092824,1383
1712258529708,599616071917758346,1046
1712258529716,599616071925423868,621
1712258529724,599616071933089390,126
1712258529731,599616071940754912,-34
1712258529739,599616071948420434,183
1712258529747,599616071956085956,2327
1712258529753,599616071963751478,6753
1712258529761,599616071971417000,9601
1712258529769,599616071979082522,9849
1712258529777,599616071986748044,10386
1712258529785,599616071994413566,11226
1712258529793,599616072002079088,12805
1712258529800,599616072009744610,17895
1712258529808,599616072017410132,18797
1712258529816,599616072025075654,18797
1712258529823,599616072032741176,18797
1712258529831,599616072040406698,18797
