value,timestamp
-0.0,1710735488000000
-0.0,1710735488015625
-0.0,1710735488031250
-0.0,1710735488046875
-0.0,1710735488062500
-0.0,1710735488078125
-0.0,1710735488093750
-0.0,1710735488109375
-0.0,1710735488125000
-0.0,1710735488140625
0.0,1710735488156250
0.01,1710735488171875
0.01,1710735488187500
-0.0,1710735488203125
-0.03,1710735488218750
-0.05,1710735488234375
-0.05,1710735488250000
0.0,1710735488265625
0.13,1710735488281250
0.36,1710735488296875
0.66,1710735488312500
1.01,1710735488328125
1.37,1710735488343750
1.72,1710735488359375
2.06,1710735488375000
2.4,1710735488390625
2.79,1710735488406250
3.24,1710735488421875
3.8,1710735488437500
4.42,1710735488453125
5.06,1710735488468750
5.66,1710735488484375
6.2,1710735488500000
6.68,1710735488515625
7.15,1710735488531250
7.68,1710735488546875
8.31,1710735488562500
9.14,1710735488578125
10.09,1710735488593750
11.04,1710735488609375
11.88,1710735488625000
12.56,1710735488640625
13.14,1710735488656250
13.76,1710735488671875
14.65,1710735488687500
15.96,1710735488703125
17.91,1710735488718750
20.32,1710735488734375
22.9,1710735488750000
25.38,1710735488765625
27.58,1710735488781250
29.57,1710735488796875
31.68,1710735488812500
34.32,1710735488828125
37.81,1710735488843750
42.54,1710735488859375
48.15,1710735488875000
54.1,1710735488890625
59.83,1710735488906250
64.97,1710735488921875
69.58,1710735488937500
74.14,1710735488953125
79.34,1710735488968750
85.71,1710735488984375
93.76,1710735489000000
103.0,1710735489015625
112.62,1710735489031250
121.73,1710735489046875
129.77,1710735489062500
136.75,1710735489078125
143.3,1710735489093750
150.75,1710735489109375
157.77,1710735489125000
166.64,1710735489140625
177.95,1710735489156250
191.79,1710735489171875
206.97,1710735489187500
220.57,1710735489203125
228.25,1710735489218750
225.36,1710735489234375
208.53,1710735489250000
176.87,1710735489265625
132.76,1710735489281250
80.05,1710735489296875
23.07,1710735489312500
-34.94,1710735489328125
-92.44,1710735489343750
-149.16,1710735489359375
-205.23,1710735489375000
-260.37,1710735489390625
-313.74,1710735489406250
-363.87,1710735489421875
-409.83,1710735489437500
-450.91,1710735489453125
-486.5,1710735489468750
-515.74,1710735489484375
-537.23,1710735489500000
-549.22,1710735489515625
-549.96,1710735489531250
-538.37,1710735489546875
-514.21,1710735489562500
-478.67,1710735489578125
-433.88,1710735489593750
-382.45,1710735489609375
-327.02,1710735489625000
-269.84,1710735489640625
-212.63,1710735489656250
-156.66,1710735489671875
-102.95,1710735489687500
-52.37,1710735489703125
-5.9,1710735489718750
35.58,1710735489734375
71.43,1710735489750000
101.35,1710735489765625
125.5,1710735489781250
144.38,1710735489796875
158.69,1710735489812500
169.15,1710735489828125
176.37,1710735489843750
180.75,1710735489859375
182.57,1710735489875000
182.07,1710735489890625
179.51,1710735489906250
175.23,1710735489921875
169.65,1710735489937500
163.18,1710735489953125
156.15,1710735489968750
148.81,1710735489984375
141.3,1710735490000000
133.69,1710735490015625
126.02,1710735490031250
118.33,1710735490046875
110.69,1710735490062500
103.16,1710735490078125
95.8,1710735490093750
88.68,1710735490109375
81.83,1710735490125000
75.25,1710735490140625
68.95,1710735490156250
62.95,1710735490171875
57.25,1710735490187500
51.86,1710735490203125
46.78,1710735490218750
42.03,1710735490234375
37.59,1710735490250000
33.45,1710735490265625
29.61,1710735490281250
26.07,1710735490296875
22.81,1710735490312500
19.83,1710735490328125
17.11,1710735490343750
14.67,1710735490359375
12.48,1710735490375000
10.54,1710735490390625
8.83,1710735490406250
7.35,1710735490421875
6.07,1710735490437500
4.97,1710735490453125
4.05,1710735490468750
3.27,1710735490484375
2.62,1710735490500000
2.09,1710735490515625
1.65,1710735490531250
1.3,1710735490546875
1.01,1710735490562500
0.79,1710735490578125
0.61,1710735490593750
0.47,1710735490609375
0.37,1710735490625000
0.28,1710735490640625
0.22,1710735490656250
0.18,1710735490671875
0.15,1710735490687500
0.13,1710735490703125
0.12,1710735490718750
0.13,1710735490734375
0.14,1710735490750000
0.15,1710735490765625
0.18,1710735490781250
0.2,1710735490796875
0.24,1710735490812500
0.28,1710735490828125
0.32,1710735490843750
0.37,1710735490859375
0.42,1710735490875000
0.47,1710735490890625
0.52,1710735490906250
0.57,1710735490921875
0.63,1710735490937500
0.68,1710735490953125
0.74,1710735490968750
0.81,1710735490984375
0.88,1710735491000000
0.95,1710735491015625
1.03,1710735491031250
1.11,1710735491046875
1.21,1710735491062500
1.31,1710735491078125
1.43,1710735491093750
1.56,1710735491109375
1.71,1710735491125000
1.87,1710735491140625
2.06,1710735491156250
2.27,1710735491171875
2.5,1710735491187500
2.76,1710735491203125
3.04,1710735491218750
3.36,1710735491234375
3.71,1710735491250000
4.09,1710735491265625
4.52,1710735491281250
4.97,1710735491296875
5.47,1710735491312500
6.01,1710735491328125
6.58,1710735491343750
7.2,1710735491359375
7.86,1710735491375000
8.57,1710735491390625
9.33,1710735491406250
10.13,1710735491421875
10.98,1710735491437500
11.87,1710735491453125
12.8,1710735491468750
13.78,1710735491484375
14.83,1710735491500000
15.93,1710735491515625
17.11,1710735491531250
18.33,1710735491546875
19.61,1710735491562500
20.91,1710735491578125
22.21,1710735491593750
23.42,1710735491609375
24.46,1710735491625000
25.23,1710735491640625
25.6,1710735491656250
25.47,1710735491671875
24.71,1710735491687500
23.25,1710735491703125
21.04,1710735491718750
18.09,1710735491734375
14.48,1710735491750000
10.28,1710735491765625
5.67,1710735491781250
0.83,1710735491796875
-4.03,1710735491812500
-8.73,1710735491828125
-13.12,1710735491843750
-17.05,1710735491859375
-20.42,1710735491875000
-23.14,1710735491890625
-25.16,1710735491906250
-26.4,1710735491921875
-26.89,1710735491937500
-26.66,1710735491953125
-25.78,1710735491968750
-24.36,1710735491984375
-22.52,1710735492000000
-20.37,1710735492015625
-17.95,1710735492031250
-15.33,1710735492046875
-12.48,1710735492062500
-9.49,1710735492078125
-6.41,1710735492093750
-3.36,1710735492109375
-0.47,1710735492125000
2.13,1710735492140625
4.35,1710735492156250
6.16,1710735492171875
7.67,1710735492187500
9.03,1710735492203125
10.28,1710735492218750
11.43,1710735492234375
12.39,1710735492250000
13.02,1710735492265625
13.16,1710735492281250
12.72,1710735492296875
11.8,1710735492312500
10.69,1710735492328125
9.82,1710735492343750
9.29,1710735492359375
9.13,1710735492375000
9.13,1710735492390625
8.87,1710735492406250
7.88,1710735492421875
5.87,1710735492437500
2.84,1710735492453125
-0.75,1710735492468750
-4.13,1710735492484375
-7.03,1710735492500000
-9.28,1710735492515625
-11.08,1710735492531250
-12.96,1710735492546875
-15.55,1710735492562500
-19.27,1710735492578125
-24.02,1710735492593750
-29.16,1710735492609375
-33.7,1710735492625000
-37.26,1710735492640625
-39.67,1710735492656250
-41.25,1710735492671875
-42.96,1710735492687500
-46.34,1710735492703125
-53.37,1710735492718750
-66.33,1710735492734375
-87.4,1710735492750000
-113.56,1710735492765625
-142.08,1710735492781250
-168.75,1710735492796875
-188.47,1710735492812500
-196.71,1710735492828125
-191.02,1710735492843750
-171.86,1710735492859375
-142.33,1710735492875000
-106.85,1710735492890625
-69.59,1710735492906250
-33.93,1710735492921875
-1.35,1710735492937500
27.9,1710735492953125
53.96,1710735492968750
76.75,1710735492984375
95.89,1710735493000000
110.81,1710735493015625
121.08,1710735493031250
126.54,1710735493046875
126.82,1710735493062500
122.04,1710735493078125
112.77,1710735493093750
100.07,1710735493109375
85.31,1710735493125000
70.09,1710735493140625
55.84,1710735493156250
43.62,1710735493171875
34.01,1710735493187500
26.67,1710735493203125
20.9,1710735493218750
15.62,1710735493234375
9.8,1710735493250000
2.73,1710735493265625
-5.58,1710735493281250
-14.28,1710735493296875
-21.76,1710735493312500
-26.19,1710735493328125
-26.25,1710735493343750
-21.48,1710735493359375
-12.53,1710735493375000
-0.85,1710735493390625
11.7,1710735493406250
23.38,1710735493421875
32.99,1710735493437500
39.98,1710735493453125
44.37,1710735493468750
46.64,1710735493484375
47.46,1710735493500000
47.54,1710735493515625
47.39,1710735493531250
47.2,1710735493546875
46.89,1710735493562500
46.19,1710735493578125
44.85,1710735493593750
42.75,1710735493609375
39.89,1710735493625000
36.36,1710735493640625
32.31,1710735493656250
27.91,1710735493671875
23.39,1710735493687500
19.04,1710735493703125
15.09,1710735493718750
11.66,1710735493734375
8.67,1710735493750000
5.78,1710735493765625
2.59,1710735493781250
-1.26,1710735493796875
-6.0,1710735493812500
-11.65,1710735493828125
-18.09,1710735493843750
-25.11,1710735493859375
-32.49,1710735493875000
-40.0,1710735493890625
-47.41,1710735493906250
-54.53,1710735493921875
-61.18,1710735493937500
-67.37,1710735493953125
-73.24,1710735493968750
-79.06,1710735493984375
-85.16,1710735494000000
-91.64,1710735494015625
-98.21,1710735494031250
-104.11,1710735494046875
-108.18,1710735494062500
-109.21,1710735494078125
-106.35,1710735494093750
-99.38,1710735494109375
-88.83,1710735494125000
-75.76,1710735494140625
-61.45,1710735494156250
-46.91,1710735494171875
-32.67,1710735494187500
-18.79,1710735494203125
-5.09,1710735494218750
8.51,1710735494234375
21.82,1710735494250000
34.34,1710735494265625
45.55,1710735494281250
55.05,1710735494296875
62.69,1710735494312500
68.47,1710735494328125
72.45,1710735494343750
74.55,1710735494359375
74.65,1710735494375000
72.62,1710735494390625
68.48,1710735494406250
62.46,1710735494421875
54.96,1710735494437500
46.43,1710735494453125
37.3,1710735494468750
27.9,1710735494484375
18.38,1710735494500000
8.84,1710735494515625
-0.66,1710735494531250
-10.0,1710735494546875
-18.94,1710735494562500
-27.07,1710735494578125
-33.91,1710735494593750
-38.97,1710735494609375
-41.87,1710735494625000
-42.45,1710735494640625
-40.77,1710735494656250
-37.14,1710735494671875
-32.11,1710735494687500
-26.38,1710735494703125
-20.67,1710735494718750
-15.5,1710735494734375
-11.01,1710735494750000
-6.81,1710735494765625
-2.09,1710735494781250
4.07,1710735494796875
12.26,1710735494812500
22.54,1710735494828125
34.26,1710735494843750
46.35,1710735494859375
57.7,1710735494875000
67.4,1710735494890625
75.0,1710735494906250
80.42,1710735494921875
83.72,1710735494937500
85.03,1710735494953125
84.44,1710735494968750
82.09,1710735494984375
78.2,1710735495000000
73.19,1710735495015625
67.53,1710735495031250
61.67,1710735495046875
55.9,1710735495062500
50.37,1710735495078125
45.02,1710735495093750
39.78,1710735495109375
34.62,1710735495125000
29.62,1710735495140625
24.92,1710735495156250
20.59,1710735495171875
16.54,1710735495187500
12.48,1710735495203125
8.03,1710735495218750
2.84,1710735495234375
-3.25,1710735495250000
-10.12,1710735495265625
-17.45,1710735495281250
-24.81,1710735495296875
-31.84,1710735495312500
-38.35,1710735495328125
-44.42,1710735495343750
-50.36,1710735495359375
-56.67,1710735495375000
-63.8,1710735495390625
-71.94,1710735495406250
-80.73,1710735495421875
-89.18,1710735495437500
-95.94,1710735495453125
-99.62,1710735495468750
-99.4,1710735495484375
-95.29,1710735495500000
-88.05,1710735495515625
-78.88,1710735495531250
-68.92,1710735495546875
-58.98,1710735495562500
-49.45,1710735495578125
-40.53,1710735495593750
-32.34,1710735495609375
-25.08,1710735495625000
-18.81,1710735495640625
-13.36,1710735495656250
-8.15,1710735495671875
-2.42,1710735495687500
4.54,1710735495703125
13.05,1710735495718750
22.9,1710735495734375
33.44,1710735495750000
43.79,1710735495765625
53.13,1710735495781250
60.87,1710735495796875
66.69,1710735495812500
70.49,1710735495828125
72.29,1710735495843750
72.15,1710735495859375
70.08,1710735495875000
66.16,1710735495890625
60.6,1710735495906250
53.68,1710735495921875
45.86,1710735495937500
37.61,1710735495953125
29.36,1710735495968750
21.38,1710735495984375
13.72,1710735496000000
6.26,1710735496015625
-1.3,1710735496031250
-9.37,1710735496046875
-18.3,1710735496062500
-28.2,1710735496078125
-38.66,1710735496093750
-48.61,1710735496109375
-56.41,1710735496125000
-60.26,1710735496140625
-58.88,1710735496156250
-51.97,1710735496171875
-40.42,1710735496187500
-26.06,1710735496203125
-11.05,1710735496218750
2.86,1710735496234375
14.75,1710735496250000
24.57,1710735496265625
32.79,1710735496281250
39.95,1710735496296875
46.23,1710735496312500
51.39,1710735496328125
55.03,1710735496343750
56.81,1710735496359375
56.71,1710735496375000
55.06,1710735496390625
52.39,1710735496406250
49.11,1710735496421875
45.42,1710735496437500
41.4,1710735496453125
37.14,1710735496468750
32.92,1710735496484375
29.19,1710735496500000
26.4,1710735496515625
24.65,1710735496531250
23.6,1710735496546875
22.48,1710735496562500
20.44,1710735496578125
16.93,1710735496593750
11.76,1710735496609375
5.32,1710735496625000
-1.79,1710735496640625
-8.83,1710735496656250
-15.24,1710735496671875
-20.74,1710735496687500
-25.41,1710735496703125
-29.69,1710735496718750
-34.2,1710735496734375
-39.55,1710735496750000
-45.95,1710735496765625
-52.93,1710735496781250
-59.32,1710735496796875
-63.49,1710735496812500
-63.83,1710735496828125
-59.38,1710735496843750
-50.24,1710735496859375
-37.47,1710735496875000
-22.87,1710735496890625
-8.17,1710735496906250
5.3,1710735496921875
17.0,1710735496937500
26.83,1710735496953125
34.93,1710735496968750
41.21,1710735496984375
45.39,1710735497000000
47.17,1710735497015625
46.59,1710735497031250
44.24,1710735497046875
41.11,1710735497062500
38.21,1710735497078125
36.13,1710735497093750
34.8,1710735497109375
33.68,1710735497125000
32.1,1710735497140625
29.73,1710735497156250
26.72,1710735497171875
23.55,1710735497187500
20.75,1710735497203125
18.49,1710735497218750
16.5,1710735497234375
14.21,1710735497250000
11.08,1710735497265625
6.81,1710735497281250
1.59,1710735497296875
-4.14,1710735497312500
-9.79,1710735497328125
-14.88,1710735497343750
-19.2,1710735497359375
-22.87,1710735497375000
-26.26,1710735497390625
-29.96,1710735497406250
-34.61,1710735497421875
-40.67,1710735497437500
-48.15,1710735497453125
-56.39,1710735497468750
-64.03,1710735497484375
-69.29,1710735497500000
-70.5,1710735497515625
-66.71,1710735497531250
-58.0,1710735497546875
-45.52,1710735497562500
-31.01,1710735497578125
-16.27,1710735497593750
-2.59,1710735497609375
9.37,1710735497625000
19.46,1710735497640625
27.73,1710735497656250
34.12,1710735497671875
38.51,1710735497687500
40.81,1710735497703125
41.19,1710735497718750
40.15,1710735497734375
38.49,1710735497750000
36.94,1710735497765625
36.0,1710735497781250
35.69,1710735497796875
35.59,1710735497812500
35.12,1710735497828125
33.82,1710735497843750
31.61,1710735497859375
28.84,1710735497875000
26.03,1710735497890625
23.63,1710735497906250
21.81,1710735497921875
20.29,1710735497937500
18.53,1710735497953125
15.95,1710735497968750
12.2,1710735497984375
7.3,1710735498000000
1.68,1710735498015625
-4.05,1710735498031250
-9.28,1710735498046875
-13.6,1710735498062500
-17.02,1710735498078125
-19.9,1710735498093750
-22.85,1710735498109375
-26.58,1710735498125000
-31.64,1710735498140625
-38.19,1710735498156250
-45.87,1710735498171875
-53.7,1710735498187500
-60.31,1710735498203125
-64.11,1710735498218750
-63.8,1710735498234375
-58.68,1710735498250000
-48.95,1710735498265625
-35.64,1710735498281250
-20.38,1710735498296875
-4.89,1710735498312500
9.45,1710735498328125
21.79,1710735498343750
31.75,1710735498359375
39.29,1710735498375000
44.49,1710735498390625
47.44,1710735498406250
48.41,1710735498421875
47.79,1710735498437500
46.19,1710735498453125
44.24,1710735498468750
42.41,1710735498484375
40.92,1710735498500000
39.67,1710735498515625
38.43,1710735498531250
36.92,1710735498546875
35.09,1710735498562500
33.04,1710735498578125
30.99,1710735498593750
29.1,1710735498609375
27.37,1710735498625000
25.65,1710735498640625
23.62,1710735498656250
20.95,1710735498671875
17.41,1710735498687500
13.05,1710735498703125
8.12,1710735498718750
3.08,1710735498734375
-1.66,1710735498750000
-5.86,1710735498765625
-9.57,1710735498781250
-13.07,1710735498796875
-16.67,1710735498812500
-20.54,1710735498828125
-24.65,1710735498843750
-28.94,1710735498859375
-33.39,1710735498875000
-38.22,1710735498890625
-43.71,1710735498906250
-49.95,1710735498921875
-56.51,1710735498937500
-62.34,1710735498953125
-65.96,1710735498968750
-65.87,1710735498984375
-61.11,1710735499000000
-51.67,1710735499015625
-38.45,1710735499031250
-23.12,1710735499046875
-7.48,1710735499062500
6.91,1710735499078125
19.07,1710735499093750
28.6,1710735499109375
35.57,1710735499125000
40.27,1710735499140625
43.01,1710735499156250
44.12,1710735499171875
43.9,1710735499187500
42.7,1710735499203125
40.89,1710735499218750
38.84,1710735499234375
36.81,1710735499250000
34.98,1710735499265625
33.45,1710735499281250
32.18,1710735499296875
31.13,1710735499312500
30.09,1710735499328125
28.85,1710735499343750
27.13,1710735499359375
24.83,1710735499375000
21.97,1710735499390625
18.77,1710735499406250
15.53,1710735499421875
12.41,1710735499437500
9.41,1710735499453125
6.27,1710735499468750
2.68,1710735499484375
-1.54,1710735499500000
-6.33,1710735499515625
-11.38,1710735499531250
-16.27,1710735499546875
-20.59,1710735499562500
-24.18,1710735499578125
-27.12,1710735499593750
-29.74,1710735499609375
-32.52,1710735499625000
-35.91,1710735499640625
-40.23,1710735499656250
-45.49,1710735499671875
-51.36,1710735499687500
-57.08,1710735499703125
-61.57,1710735499718750
-63.6,1710735499734375
-62.12,1710735499750000
-56.54,1710735499765625
-46.94,1710735499781250
-34.08,1710735499796875
-19.27,1710735499812500
-4.05,1710735499828125
10.17,1710735499843750
22.34,1710735499859375
31.94,1710735499875000
38.85,1710735499890625
43.25,1710735499906250
45.41,1710735499921875
45.7,1710735499937500
44.53,1710735499953125
42.42,1710735499968750
40.05,1710735499984375
37.95,1710735500000000
36.53,1710735500015625
35.84,1710735500031250
35.62,1710735500046875
35.44,1710735500062500
34.92,1710735500078125
33.9,1710735500093750
32.43,1710735500109375
30.68,1710735500125000
28.71,1710735500140625
26.46,1710735500156250
23.7,1710735500171875
20.22,1710735500187500
15.92,1710735500203125
10.96,1710735500218750
5.65,1710735500234375
0.35,1710735500250000
-4.69,1710735500265625
-9.38,1710735500281250
-13.76,1710735500296875
-17.93,1710735500312500
-21.94,1710735500328125
-25.79,1710735500343750
-29.52,1710735500359375
-33.22,1710735500375000
-37.05,1710735500390625
-41.22,1710735500406250
-45.87,1710735500421875
-50.98,1710735500437500
-56.31,1710735500453125
-61.34,1710735500468750
-65.23,1710735500484375
-66.95,1710735500500000
-65.46,1710735500515625
-60.04,1710735500531250
-50.71,1710735500546875
-38.26,1710735500562500
-24.12,1710735500578125
-9.91,1710735500593750
3.05,1710735500609375
14.1,1710735500625000
23.1,1710735500640625
30.18,1710735500656250
35.36,1710735500671875
38.41,1710735500687500
39.03,1710735500703125
37.15,1710735500718750
33.17,1710735500734375
27.92,1710735500750000
22.53,1710735500765625
18.0,1710735500781250
14.98,1710735500796875
13.6,1710735500812500
13.51,1710735500828125
14.05,1710735500843750
14.49,1710735500859375
14.25,1710735500875000
13.01,1710735500890625
10.77,1710735500906250
7.68,1710735500921875
3.87,1710735500937500
-0.6,1710735500953125
-5.7,1710735500968750
-11.4,1710735500984375
-17.43,1710735501000000
-23.38,1710735501015625
-28.77,1710735501031250
-33.25,1710735501046875
-36.75,1710735501062500
-39.59,1710735501078125
-42.21,1710735501093750
-45.13,1710735501109375
-48.76,1710735501125000
-53.24,1710735501140625
-58.38,1710735501156250
-63.64,1710735501171875
-68.09,1710735501187500
-70.6,1710735501203125
-69.95,1710735501218750
-65.19,1710735501234375
-55.85,1710735501250000
-42.14,1710735501265625
-24.9,1710735501281250
-5.48,1710735501296875
14.51,1710735501312500
33.46,1710735501328125
50.0,1710735501343750
63.11,1710735501359375
72.16,1710735501375000
77.01,1710735501390625
77.88,1710735501406250
75.45,1710735501421875
70.66,1710735501437500
64.7,1710735501453125
58.65,1710735501468750
53.36,1710735501484375
49.19,1710735501500000
46.02,1710735501515625
43.42,1710735501531250
40.83,1710735501546875
37.95,1710735501562500
34.71,1710735501578125
31.28,1710735501593750
27.86,1710735501609375
24.46,1710735501625000
20.83,1710735501640625
16.52,1710735501656250
11.14,1710735501671875
4.58,1710735501687500
-2.82,1710735501703125
-10.39,1710735501718750
-17.36,1710735501734375
-23.17,1710735501750000
-27.7,1710735501765625
-31.27,1710735501781250
-34.55,1710735501796875
-38.21,1710735501812500
-42.77,1710735501828125
-48.38,1710735501843750
-54.74,1710735501859375
-61.12,1710735501875000
-66.46,1710735501890625
-69.48,1710735501906250
-69.01,1710735501921875
-64.32,1710735501937500
-55.36,1710735501953125
-42.89,1710735501968750
-28.32,1710735501984375
-13.38,1710735502000000
0.33,1710735502015625
11.74,1710735502031250
20.28,1710735502046875
25.93,1710735502062500
28.97,1710735502078125
29.82,1710735502093750
28.96,1710735502109375
26.95,1710735502125000
24.4,1710735502140625
21.88,1710735502156250
19.75,1710735502171875
18.14,1710735502187500
16.93,1710735502203125
15.8,1710735502218750
14.47,1710735502234375
12.77,1710735502250000
10.7,1710735502265625
8.47,1710735502281250
6.2,1710735502296875
3.96,1710735502312500
1.66,1710735502328125
-0.93,1710735502343750
-4.04,1710735502359375
-7.81,1710735502375000
-12.21,1710735502390625
-17.03,1710735502406250
-21.97,1710735502421875
-26.73,1710735502437500
-31.14,1710735502453125
-35.22,1710735502468750
-39.14,1710735502484375
-43.24,1710735502500000
-47.81,1710735502515625
-53.05,1710735502531250
-58.71,1710735502546875
-64.07,1710735502562500
-67.93,1710735502578125
-68.89,1710735502593750
-65.82,1710735502609375
-58.32,1710735502625000
-46.91,1710735502640625
-32.87,1710735502656250
-17.81,1710735502671875
-3.26,1710735502687500
9.73,1710735502703125
20.55,1710735502718750
28.96,1710735502734375
34.88,1710735502750000
38.28,1710735502765625
39.3,1710735502781250
38.27,1710735502796875
35.83,1710735502812500
32.76,1710735502828125
29.86,1710735502843750
27.66,1710735502859375
26.32,1710735502875000
25.62,1710735502890625
25.09,1710735502906250
24.25,1710735502921875
22.83,1710735502937500
20.81,1710735502953125
18.38,1710735502968750
15.75,1710735502984375
13.0,1710735503000000
10.04,1710735503015625
6.71,1710735503031250
2.94,1710735503046875
-1.15,1710735503062500
-5.28,1710735503078125
-9.02,1710735503093750
-12.08,1710735503109375
-14.31,1710735503125000
-15.82,1710735503140625
-16.95,1710735503156250
-18.23,1710735503171875
-20.28,1710735503187500
-23.58,1710735503203125
-28.17,1710735503218750
-33.37,1710735503234375
-37.81,1710735503250000
-39.71,1710735503265625
-37.49,1710735503281250
-30.41,1710735503296875
-18.95,1710735503312500
-4.59,1710735503328125
10.67,1710735503343750
25.01,1710735503359375
37.29,1710735503375000
47.05,1710735503390625
54.33,1710735503406250
59.29,1710735503421875
62.05,1710735503437500
62.75,1710735503453125
61.59,1710735503468750
59.08,1710735503484375
55.84,1710735503500000
52.5,1710735503515625
49.44,1710735503531250
46.78,1710735503546875
44.32,1710735503562500
41.9,1710735503578125
39.37,1710735503593750
36.75,1710735503609375
34.14,1710735503625000
31.65,1710735503640625
29.24,1710735503656250
26.73,1710735503671875
23.79,1710735503687500
19.95,1710735503703125
14.87,1710735503718750
8.49,1710735503734375
1.26,1710735503750000
-5.85,1710735503765625
-11.66,1710735503781250
-15.2,1710735503796875
-16.25,1710735503812500
-15.51,1710735503828125
-14.49,1710735503843750
-14.99,1710735503859375
-18.41,1710735503875000
-25.26,1710735503890625
-34.99,1710735503906250
-46.2,1710735503921875
-56.99,1710735503937500
-65.45,1710735503953125
-70.02,1710735503968750
-69.77,1710735503984375
-64.57,1710735504000000
-55.05,1710735504015625
-42.45,1710735504031250
-28.32,1710735504046875
-14.25,1710735504062500
-1.52,1710735504078125
8.91,1710735504093750
16.49,1710735504109375
21.06,1710735504125000
22.77,1710735504140625
22.07,1710735504156250
19.61,1710735504171875
16.31,1710735504187500
12.95,1710735504203125
10.19,1710735504218750
8.32,1710735504234375
7.24,1710735504250000
6.6,1710735504265625
5.95,1710735504281250
4.93,1710735504296875
3.37,1710735504312500
1.37,1710735504328125
-0.87,1710735504343750
-3.16,1710735504359375
-5.37,1710735504375000
-7.54,1710735504390625
-9.75,1710735504406250
-12.06,1710735504421875
-14.39,1710735504437500
-16.61,1710735504453125
-18.5,1710735504468750
-19.93,1710735504484375
-20.82,1710735504500000
-21.24,1710735504515625
-21.31,1710735504531250
-21.23,1710735504546875
-21.2,1710735504562500
-21.45,1710735504578125
-22.14,1710735504593750
-23.17,1710735504609375
-24.11,1710735504625000
-24.02,1710735504640625
-21.66,1710735504656250
-15.82,1710735504671875
-5.75,1710735504687500
8.46,1710735504703125
25.75,1710735504718750
44.36,1710735504734375
62.25,1710735504750000
77.52,1710735504765625
88.77,1710735504781250
95.16,1710735504796875
96.4,1710735504812500
92.72,1710735504828125
84.82,1710735504843750
73.82,1710735504859375
61.2,1710735504875000
48.55,1710735504890625
37.29,1710735504906250
28.41,1710735504921875
22.23,1710735504937500
18.45,1710735504953125
16.3,1710735504968750
14.76,1710735504984375
12.92,1710735505000000
10.13,1710735505015625
6.18,1710735505031250
1.15,1710735505046875
-4.59,1710735505062500
-10.65,1710735505078125
-16.66,1710735505093750
-22.37,1710735505109375
-27.68,1710735505125000
-32.58,1710735505140625
-37.18,1710735505156250
-41.62,1710735505171875
-46.16,1710735505187500
-51.06,1710735505203125
-56.58,1710735505218750
-62.85,1710735505234375
-69.63,1710735505250000
-76.17,1710735505265625
-81.17,1710735505281250
-83.05,1710735505296875
-80.38,1710735505312500
-72.52,1710735505328125
-59.89,1710735505343750
-43.97,1710735505359375
-26.83,1710735505375000
-10.53,1710735505390625
3.57,1710735505406250
14.92,1710735505421875
23.69,1710735505437500
30.38,1710735505453125
35.39,1710735505468750
38.87,1710735505484375
40.71,1710735505500000
40.75,1710735505515625
38.94,1710735505531250
35.41,1710735505546875
30.54,1710735505562500
24.87,1710735505578125
18.98,1710735505593750
13.44,1710735505609375
8.63,1710735505625000
4.7,1710735505640625
1.52,1710735505656250
-1.26,1710735505671875
-4.09,1710735505687500
-7.33,1710735505703125
-11.09,1710735505718750
-15.15,1710735505734375
-18.89,1710735505750000
-21.37,1710735505765625
-21.62,1710735505781250
-18.92,1710735505796875
-13.45,1710735505812500
-6.56,1710735505828125
-0.87,1710735505843750
0.48,1710735505859375
-4.96,1710735505875000
-17.72,1710735505890625
-35.69,1710735505906250
-54.44,1710735505921875
-68.69,1710735505937500
-74.09,1710735505953125
-68.79,1710735505968750
-53.88,1710735505984375
-32.71,1710735506000000
-9.53,1710735506015625
11.95,1710735506031250
29.44,1710735506046875
42.11,1710735506062500
50.04,1710735506078125
53.65,1710735506093750
53.26,1710735506109375
49.18,1710735506125000
41.97,1710735506140625
32.74,1710735506156250
23.1,1710735506171875
14.95,1710735506187500
9.94,1710735506203125
9.14,1710735506218750
12.89,1710735506234375
20.85,1710735506250000
31.97,1710735506265625
44.45,1710735506281250
55.87,1710735506296875
63.43,1710735506312500
64.63,1710735506328125
58.15,1710735506343750
44.36,1710735506359375
25.35,1710735506375000
4.29,1710735506390625
-15.61,1710735506406250
-31.98,1710735506421875
-43.72,1710735506437500
-50.89,1710735506453125
-54.28,1710735506468750
-54.97,1710735506484375
-54.09,1710735506500000
-52.83,1710735506515625
-52.44,1710735506531250
-54.16,1710735506546875
-58.98,1710735506562500
-67.32,1710735506578125
-78.72,1710735506593750
-91.74,1710735506609375
-104.05,1710735506625000
-113.0,1710735506640625
-116.19,1710735506656250
-112.28,1710735506671875
-101.3,1710735506687500
-84.68,1710735506703125
-64.71,1710735506718750
-43.91,1710735506734375
-24.3,1710735506750000
-6.95,1710735506765625
7.88,1710735506781250
20.53,1710735506796875
31.46,1710735506812500
40.93,1710735506828125
48.88,1710735506843750
55.07,1710735506859375
59.35,1710735506875000
61.86,1710735506890625
63.08,1710735506906250
63.66,1710735506921875
64.12,1710735506937500
64.58,1710735506953125
64.83,1710735506968750
64.46,1710735506984375
63.2,1710735507000000
61.08,1710735507015625
58.5,1710735507031250
55.98,1710735507046875
53.86,1710735507062500
52.19,1710735507078125
50.6,1710735507093750
48.44,1710735507109375
45.02,1710735507125000
39.87,1710735507140625
32.91,1710735507156250
24.53,1710735507171875
15.47,1710735507187500
6.53,1710735507203125
-1.7,1710735507218750
-9.04,1710735507234375
-15.72,1710735507250000
-22.25,1710735507265625
-29.17,1710735507281250
-36.95,1710735507296875
-45.82,1710735507312500
-55.73,1710735507328125
-66.22,1710735507343750
-76.18,1710735507359375
-83.96,1710735507375000
-87.6,1710735507390625
-85.47,1710735507406250
-76.91,1710735507421875
-62.62,1710735507437500
-44.52,1710735507453125
-25.12,1710735507468750
-6.68,1710735507484375
9.34,1710735507500000
22.44,1710735507515625
32.86,1710735507531250
41.03,1710735507546875
47.33,1710735507562500
51.93,1710735507578125
54.91,1710735507593750
56.45,1710735507609375
56.85,1710735507625000
56.55,1710735507640625
55.93,1710735507656250
55.18,1710735507671875
54.3,1710735507687500
53.14,1710735507703125
51.56,1710735507718750
49.56,1710735507734375
47.28,1710735507750000
44.9,1710735507765625
42.49,1710735507781250
39.93,1710735507796875
36.99,1710735507812500
33.4,1710735507828125
29.03,1710735507843750
23.89,1710735507859375
18.05,1710735507875000
11.61,1710735507890625
4.59,1710735507906250
-2.92,1710735507921875
-10.65,1710735507937500
-18.17,1710735507953125
-25.01,1710735507968750
-30.88,1710735507984375
-35.92,1710735508000000
-40.73,1710735508015625
-46.15,1710735508031250
-52.97,1710735508046875
-61.54,1710735508062500
-71.58,1710735508078125
-82.05,1710735508093750
-91.3,1710735508109375
-97.33,1710735508125000
-98.29,1710735508140625
-93.0,1710735508156250
-81.36,1710735508171875
-64.54,1710735508187500
-44.57,1710735508203125
-23.88,1710735508218750
-4.56,1710735508234375
12.08,1710735508250000
25.58,1710735508265625
36.1,1710735508281250
43.95,1710735508296875
49.45,1710735508312500
52.77,1710735508328125
54.17,1710735508343750
54.1,1710735508359375
53.22,1710735508375000
52.16,1710735508390625
51.36,1710735508406250
50.79,1710735508421875
50.03,1710735508437500
48.56,1710735508453125
46.1,1710735508468750
42.8,1710735508484375
39.21,1710735508500000
35.99,1710735508515625
33.49,1710735508531250
31.52,1710735508546875
29.46,1710735508562500
26.46,1710735508578125
21.91,1710735508593750
15.68,1710735508609375
8.14,1710735508625000
-0.04,1710735508640625
-8.08,1710735508656250
-15.44,1710735508671875
-21.87,1710735508687500
-27.48,1710735508703125
-32.81,1710735508718750
-38.66,1710735508734375
-45.9,1710735508750000
-55.01,1710735508765625
-65.65,1710735508781250
-76.47,1710735508796875
-85.3,1710735508812500
-89.76,1710735508828125
-88.03,1710735508843750
-79.56,1710735508859375
-65.15,1710735508875000
-46.75,1710735508890625
-26.75,1710735508906250
-7.36,1710735508921875
9.9,1710735508937500
24.22,1710735508953125
35.5,1710735508968750
43.97,1710735508984375
49.94,1710735509000000
53.74,1710735509015625
55.61,1710735509031250
55.86,1710735509046875
54.96,1710735509062500
53.54,1710735509078125
52.27,1710735509093750
51.6,1710735509109375
51.54,1710735509125000
51.64,1710735509140625
51.21,1710735509156250
49.64,1710735509171875
46.78,1710735509187500
42.96,1710735509203125
38.85,1710735509218750
35.0,1710735509234375
31.61,1710735509250000
28.29,1710735509265625
24.34,1710735509281250
19.08,1710735509296875
12.18,1710735509312500
3.9,1710735509328125
-5.04,1710735509343750
-13.79,1710735509359375
-21.69,1710735509375000
-28.52,1710735509390625
-34.56,1710735509406250
-40.5,1710735509421875
-47.12,1710735509437500
-55.07,1710735509453125
-64.57,1710735509468750
-75.2,1710735509484375
-85.87,1710735509500000
-94.91,1710735509515625
-100.34,1710735509531250
-100.47,1710735509546875
-94.38,1710735509562500
-82.21,1710735509578125
-65.24,1710735509593750
-45.48,1710735509609375
-25.04,1710735509625000
-5.61,1710735509640625
11.76,1710735509656250
26.57,1710735509671875
38.66,1710735509687500
47.88,1710735509703125
54.15,1710735509718750
57.55,1710735509734375
58.47,1710735509750000
57.7,1710735509765625
56.15,1710735509781250
54.73,1710735509796875
53.99,1710735509812500
54.01,1710735509828125
54.44,1710735509843750
54.64,1710735509859375
53.96,1710735509875000
52.01,1710735509890625
48.81,1710735509906250
44.74,1710735509921875
40.4,1710735509937500
36.31,1710735509953125
32.61,1710735509968750
29.04,1710735509984375
25.05,1710735510000000
20.15,1710735510015625
14.07,1710735510031250
6.92,1710735510046875
-0.88,1710735510062500
-8.78,1710735510078125
-16.38,1710735510093750
-23.49,1710735510109375
-30.24,1710735510125000
-37.02,1710735510140625
-44.36,1710735510156250
-52.75,1710735510171875
-62.39,1710735510187500
-73.04,1710735510203125
-83.88,1710735510218750
-93.58,1710735510234375
-100.43,1710735510250000
-102.77,1710735510265625
-99.42,1710735510281250
-90.01,1710735510296875
-75.21,1710735510312500
-56.54,1710735510328125
-36.01,1710735510343750
-15.59,1710735510359375
3.21,1710735510375000
19.56,1710735510390625
33.15,1710735510406250
43.96,1710735510421875
52.06,1710735510437500
57.55,1710735510453125
60.64,1710735510468750
61.74,1710735510484375
61.44,1710735510500000
60.35,1710735510515625
59.06,1710735510531250
57.96,1710735510546875
57.3,1710735510562500
57.13,1710735510578125
57.31,1710735510593750
57.5,1710735510609375
57.22,1710735510625000
55.96,1710735510640625
53.42,1710735510656250
49.58,1710735510671875
44.77,1710735510687500
39.42,1710735510703125
33.87,1710735510718750
28.22,1710735510734375
22.35,1710735510750000
16.06,1710735510765625
9.28,1710735510781250
2.12,1710735510796875
-5.18,1710735510812500
-12.43,1710735510828125
-19.55,1710735510843750
-26.58,1710735510859375
-33.64,1710735510875000
-40.84,1710735510890625
-48.31,1710735510906250
-56.21,1710735510921875
-64.72,1710735510937500
-73.92,1710735510953125
-83.51,1710735510968750
-92.64,1710735510984375
-99.81,1710735511000000
-103.16,1710735511015625
-101.02,1710735511031250
-92.5,1710735511046875
-77.9,1710735511062500
-58.79,1710735511078125
-37.47,1710735511093750
-16.4,1710735511109375
2.62,1710735511125000
18.67,1710735511140625
31.65,1710735511156250
41.87,1710735511171875
49.63,1710735511187500
55.0,1710735511203125
57.84,1710735511218750
58.21,1710735511234375
56.54,1710735511250000
53.76,1710735511265625
51.01,1710735511281250
49.26,1710735511296875
48.95,1710735511312500
49.82,1710735511328125
51.12,1710735511343750
51.89,1710735511359375
51.43,1710735511375000
49.48,1710735511390625
46.33,1710735511406250
42.54,1710735511421875
38.68,1710735511437500
34.98,1710735511453125
31.23,1710735511468750
26.91,1710735511484375
21.5,1710735511500000
14.82,1710735511515625
7.14,1710735511531250
-0.88,1710735511546875
-8.56,1710735511562500
-15.41,1710735511578125
-21.37,1710735511593750
-26.79,1710735511609375
-32.25,1710735511625000
-38.34,1710735511640625
-45.51,1710735511656250
-53.96,1710735511671875
-63.45,1710735511687500
-73.16,1710735511703125
-81.74,1710735511718750
-87.38,1710735511734375
-88.37,1710735511750000
-83.52,1710735511765625
-72.73,1710735511781250
-56.99,1710735511796875
-38.15,1710735511812500
-18.34,1710735511828125
0.55,1710735511843750
17.2,1710735511859375
30.92,1710735511875000
41.37,1710735511890625
48.44,1710735511906250
52.18,1710735511921875
52.83,1710735511937500
51.04,1710735511953125
47.8,1710735511968750
44.26,1710735511984375
41.46,1710735512000000
39.96,1710735512015625
39.72,1710735512031250
40.26,1710735512046875
40.87,1710735512062500
41.0,1710735512078125
40.43,1710735512093750
39.22,1710735512109375
37.56,1710735512125000
35.51,1710735512140625
32.95,1710735512156250
29.56,1710735512171875
24.99,1710735512187500
19.08,1710735512203125
11.95,1710735512218750
4.01,1710735512234375
-4.16,1710735512250000
-11.93,1710735512265625
-18.91,1710735512281250
-25.0,1710735512296875
-30.49,1710735512312500
-35.99,1710735512328125
-42.27,1710735512343750
-49.93,1710735512359375
-59.19,1710735512375000
-69.63,1710735512390625
-80.04,1710735512406250
-88.71,1710735512421875
-93.63,1710735512437500
-93.09,1710735512453125
-86.16,1710735512468750
-73.1,1710735512484375
-55.3,1710735512500000
-34.99,1710735512515625
-14.62,1710735512531250
3.86,1710735512546875
19.24,1710735512562500
31.15,1710735512578125
39.76,1710735512593750
45.37,1710735512609375
48.34,1710735512625000
49.04,1710735512640625
48.01,1710735512656250
46.0,1710735512671875
43.91,1710735512687500
42.43,1710735512703125
41.83,1710735512718750
41.89,1710735512734375
42.02,1710735512750000
41.6,1710735512765625
40.29,1710735512781250
38.15,1710735512796875
35.57,1710735512812500
33.02,1710735512828125
30.66,1710735512843750
28.26,1710735512859375
25.21,1710735512875000
20.82,1710735512890625
14.69,1710735512906250
6.96,1710735512921875
-1.77,1710735512937500
-10.57,1710735512953125
-18.67,1710735512968750
-25.68,1710735512984375
-31.71,1710735513000000
-37.3,1710735513015625
-43.22,1710735513031250
-50.24,1710735513046875
-58.89,1710735513062500
-69.17,1710735513078125
-80.36,1710735513093750
-90.97,1710735513109375
-98.95,1710735513125000
-102.17,1710735513140625
-99.09,1710735513156250
-89.31,1710735513171875
-73.69,1710735513187500
-54.07,1710735513203125
-32.78,1710735513218750
-11.99,1710735513234375
6.7,1710735513250000
22.4,1710735513265625
34.89,1710735513281250
44.3,1710735513296875
50.97,1710735513312500
55.23,1710735513328125
57.38,1710735513343750
57.83,1710735513359375
57.04,1710735513375000
55.65,1710735513390625
54.22,1710735513406250
53.14,1710735513421875
52.5,1710735513437500
52.12,1710735513453125
51.64,1710735513468750
50.72,1710735513484375
49.2,1710735513500000
46.99,1710735513515625
44.13,1710735513531250
40.63,1710735513546875
36.54,1710735513562500
31.84,1710735513578125
26.53,1710735513593750
20.59,1710735513609375
13.96,1710735513625000
6.65,1710735513640625
-1.21,1710735513656250
-9.29,1710735513671875
-17.17,1710735513687500
-24.41,1710735513703125
-30.89,1710735513718750
-36.85,1710735513734375
-42.87,1710735513750000
-49.69,1710735513765625
-57.92,1710735513781250
-67.8,1710735513796875
-78.95,1710735513812500
-90.36,1710735513828125
-100.25,1710735513843750
-106.54,1710735513859375
-107.26,1710735513875000
-101.15,1710735513890625
-88.22,1710735513906250
-69.8,1710735513921875
-48.25,1710735513937500
-26.18,1710735513953125
-5.72,1710735513968750
11.95,1710735513984375
26.58,1710735514000000
38.51,1710735514015625
48.18,1710735514031250
55.76,1710735514046875
61.23,1710735514062500
64.58,1710735514078125
66.05,1710735514093750
66.18,1710735514109375
65.73,1710735514125000
65.3,1710735514140625
65.17,1710735514156250
65.22,1710735514171875
65.04,1710735514187500
64.26,1710735514203125
62.67,1710735514218750
60.32,1710735514234375
57.4,1710735514250000
54.13,1710735514265625
50.59,1710735514281250
46.72,1710735514296875
42.43,1710735514312500
37.59,1710735514328125
32.14,1710735514343750
26.06,1710735514359375
19.34,1710735514375000
12.04,1710735514390625
4.27,1710735514406250
-3.71,1710735514421875
-11.52,1710735514437500
-18.82,1710735514453125
-25.38,1710735514468750
-31.28,1710735514484375
-36.89,1710735514500000
-42.81,1710735514515625
-49.71,1710735514531250
-58.13,1710735514546875
-68.24,1710735514562500
-79.78,1710735514578125
-91.81,1710735514593750
-102.72,1710735514609375
-110.39,1710735514625000
-112.73,1710735514640625
-108.26,1710735514656250
-96.75,1710735514671875
-79.36,1710735514687500
-58.38,1710735514703125
-36.48,1710735514718750
-15.9,1710735514734375
2.04,1710735514750000
17.05,1710735514765625
29.52,1710735514781250
40.01,1710735514796875
48.88,1710735514812500
56.16,1710735514828125
61.75,1710735514843750
65.61,1710735514859375
67.91,1710735514875000
69.03,1710735514890625
69.43,1710735514906250
69.43,1710735514921875
69.15,1710735514937500
68.56,1710735514953125
67.56,1710735514968750
66.19,1710735514984375
64.64,1710735515000000
63.15,1710735515015625
61.76,1710735515031250
60.2,1710735515046875
57.93,1710735515062500
54.38,1710735515078125
49.31,1710735515093750
42.96,1710735515109375
36.0,1710735515125000
29.2,1710735515140625
23.09,1710735515156250
17.72,1710735515171875
12.71,1710735515187500
7.5,1710735515203125
1.67,1710735515218750
-4.84,1710735515234375
-11.8,1710735515250000
-18.83,1710735515265625
-25.59,1710735515281250
-31.97,1710735515296875
-38.05,1710735515312500
-44.11,1710735515328125
-50.53,1710735515343750
-57.79,1710735515359375
-66.35,1710735515375000
-76.47,1710735515390625
-88.02,1710735515406250
-100.12,1710735515421875
-111.06,1710735515437500
-118.57,1710735515453125
-120.37,1710735515468750
-114.99,1710735515484375
-102.35,1710735515500000
-83.85,1710735515515625
-61.96,1710735515531250
-39.42,1710735515546875
-18.41,1710735515562500
-0.12,1710735515578125
15.22,1710735515593750
27.96,1710735515609375
38.54,1710735515625000
47.18,1710735515640625
53.89,1710735515656250
58.66,1710735515671875
61.68,1710735515687500
63.37,1710735515703125
64.28,1710735515718750
64.87,1710735515734375
65.37,1710735515750000
65.75,1710735515765625
65.86,1710735515781250
65.53,1710735515796875
64.69,1710735515812500
63.34,1710735515828125
61.53,1710735515843750
59.3,1710735515859375
56.69,1710735515875000
53.71,1710735515890625
50.26,1710735515906250
46.23,1710735515921875
41.52,1710735515937500
36.14,1710735515953125
30.31,1710735515968750
24.39,1710735515984375
18.75,1710735516000000
13.52,1710735516015625
8.54,1710735516031250
3.42,1710735516046875
-2.22,1710735516062500
-8.48,1710735516078125
-15.15,1710735516093750
-21.76,1710735516109375
-27.95,1710735516125000
-33.56,1710735516140625
-38.8,1710735516156250
-44.06,1710735516171875
-49.84,1710735516187500
-56.58,1710735516203125
-64.62,1710735516218750
-74.06,1710735516234375
-84.54,1710735516250000
-95.02,1710735516265625
-103.73,1710735516281250
-108.55,1710735516296875
-107.55,1710735516312500
-99.75,1710735516328125
-85.51,1710735516343750
-66.46,1710735516359375
-45.11,1710735516375000
-23.93,1710735516390625
-4.81,1710735516406250
11.33,1710735516421875
24.41,1710735516437500
34.85,1710735516453125
43.1,1710735516468750
49.49,1710735516484375
54.12,1710735516500000
57.05,1710735516515625
58.47,1710735516531250
58.78,1710735516546875
58.53,1710735516562500
58.25,1710735516578125
58.27,1710735516593750
58.6,1710735516609375
59.01,1710735516625000
59.2,1710735516640625
58.92,1710735516656250
58.15,1710735516671875
56.94,1710735516687500
55.33,1710735516703125
53.18,1710735516718750
50.25,1710735516734375
46.3,1710735516750000
41.34,1710735516765625
35.63,1710735516781250
29.62,1710735516796875
23.79,1710735516812500
18.38,1710735516828125
13.38,1710735516843750
8.57,1710735516859375
3.65,1710735516875000
-1.59,1710735516890625
-7.24,1710735516906250
-13.24,1710735516921875
-19.45,1710735516937500
-25.64,1710735516953125
-31.62,1710735516968750
-37.27,1710735516984375
-42.68,1710735517000000
-48.14,1710735517015625
-54.12,1710735517031250
-61.13,1710735517046875
-69.39,1710735517062500
-78.55,1710735517078125
-87.51,1710735517093750
-94.54,1710735517109375
-97.61,1710735517125000
-95.01,1710735517140625
-85.98,1710735517156250
-71.0,1710735517171875
-51.82,1710735517187500
-30.89,1710735517203125
-10.7,1710735517218750
6.87,1710735517234375
20.9,1710735517250000
31.32,1710735517265625
38.63,1710735517281250
43.5,1710735517296875
46.46,1710735517312500
47.9,1710735517328125
48.12,1710735517343750
47.47,1710735517359375
46.41,1710735517375000
45.41,1710735517390625
44.9,1710735517406250
45.07,1710735517421875
45.82,1710735517437500
46.81,1710735517453125
47.6,1710735517468750
47.77,1710735517484375
47.14,1710735517500000
45.72,1710735517515625
43.58,1710735517531250
40.79,1710735517546875
37.34,1710735517562500
33.17,1710735517578125
28.27,1710735517593750
22.74,1710735517609375
16.81,1710735517625000
10.7,1710735517640625
4.57,1710735517656250
-1.6,1710735517671875
-7.82,1710735517687500
-14.08,1710735517703125
-20.22,1710735517718750
-25.95,1710735517734375
-31.1,1710735517750000
-35.71,1710735517765625
-40.19,1710735517781250
-45.15,1710735517796875
-51.29,1710735517812500
-58.97,1710735517828125
-68.09,1710735517843750
-77.91,1710735517859375
-87.09,1710735517875000
-93.91,1710735517890625
-96.64,1710735517906250
-93.96,1710735517921875
-85.35,1710735517937500
-71.34,1710735517953125
-53.39,1710735517968750
-33.54,1710735517984375
-13.92,1710735518000000
3.79,1710735518015625
18.58,1710735518031250
30.15,1710735518046875
38.64,1710735518062500
44.46,1710735518078125
48.03,1710735518093750
49.75,1710735518109375
50.04,1710735518125000
49.35,1710735518140625
48.18,1710735518156250
46.99,1710735518171875
46.13,1710735518187500
45.75,1710735518203125
45.78,1710735518218750
46.01,1710735518234375
46.14,1710735518250000
45.84,1710735518265625
44.85,1710735518281250
43.04,1710735518296875
40.38,1710735518312500
36.99,1710735518328125
33.01,1710735518343750
28.62,1710735518359375
23.87,1710735518375000
18.78,1710735518390625
13.3,1710735518406250
7.39,1710735518421875
1.09,1710735518437500
-5.46,1710735518453125
-12.08,1710735518468750
-18.58,1710735518484375
-24.82,1710735518500000
-30.71,1710735518515625
-36.23,1710735518531250
-41.47,1710735518546875
-46.69,1710735518562500
-52.33,1710735518578125
-59.05,1710735518593750
-67.36,1710735518609375
-77.27,1710735518625000
-87.98,1710735518640625
-97.8,1710735518656250
-104.45,1710735518671875
-105.78,1710735518687500
-100.47,1710735518703125
-88.53,1710735518718750
-71.29,1710735518734375
-51.01,1710735518750000
-30.18,1710735518765625
-10.84,1710735518781250
5.78,1710735518796875
19.3,1710735518812500
29.95,1710735518828125
38.21,1710735518843750
44.53,1710735518859375
49.15,1710735518875000
52.2,1710735518890625
53.77,1710735518906250
54.09,1710735518921875
53.54,1710735518937500
52.63,1710735518953125
51.83,1710735518968750
51.39,1710735518984375
51.36,1710735519000000
51.55,1710735519015625
51.66,1710735519031250
51.33,1710735519046875
50.28,1710735519062500
48.34,1710735519078125
45.44,1710735519093750
41.62,1710735519109375
36.96,1710735519125000
31.65,1710735519140625
25.81,1710735519156250
19.64,1710735519171875
13.3,1710735519187500
6.94,1710735519203125
0.67,1710735519218750
-5.42,1710735519234375
-11.33,1710735519250000
-17.11,1710735519265625
-22.86,1710735519281250
-28.67,1710735519296875
-34.54,1710735519312500
-40.48,1710735519328125
-46.54,1710735519343750
-52.94,1710735519359375
-60.03,1710735519375000
-68.2,1710735519390625
-77.55,1710735519406250
-87.52,1710735519421875
-96.78,1710735519437500
-103.35,1710735519453125
-105.11,1710735519468750
-100.5,1710735519484375
-89.19,1710735519500000
-72.26,1710735519515625
-51.9,1710735519531250
-30.77,1710735519546875
-11.11,1710735519562500
5.71,1710735519578125
19.39,1710735519593750
30.31,1710735519609375
39.05,1710735519625000
46.04,1710735519640625
51.37,1710735519656250
55.01,1710735519671875
57.09,1710735519687500
58.01,1710735519703125
58.36,1710735519718750
58.65,1710735519734375
59.13,1710735519750000
59.7,1710735519765625
60.06,1710735519781250
59.92,1710735519796875
59.2,1710735519812500
57.93,1710735519828125
56.2,1710735519843750
54.0,1710735519859375
51.21,1710735519875000
47.68,1710735519890625
43.39,1710735519906250
38.5,1710735519921875
33.26,1710735519937500
27.89,1710735519953125
22.48,1710735519968750
17.04,1710735519984375
11.47,1710735520000000
5.76,1710735520015625
-0.1,1710735520031250
-6.11,1710735520046875
-12.26,1710735520062500
-18.57,1710735520078125
-24.99,1710735520093750
-31.4,1710735520109375
-37.75,1710735520125000
-44.1,1710735520140625
-50.78,1710735520156250
-58.31,1710735520171875
-67.2,1710735520187500
-77.49,1710735520203125
-88.51,1710735520218750
-98.67,1710735520234375
-105.8,1710735520250000
-107.75,1710735520265625
-103.05,1710735520281250
-91.48,1710735520296875
-74.23,1710735520312500
-53.55,1710735520328125
-32.03,1710735520343750
-11.93,1710735520359375
5.33,1710735520375000
19.33,1710735520390625
30.32,1710735520406250
38.93,1710735520421875
45.77,1710735520437500
51.29,1710735520453125
55.76,1710735520468750
59.38,1710735520484375
62.21,1710735520500000
64.29,1710735520515625
65.56,1710735520531250
65.95,1710735520546875
65.43,1710735520562500
64.14,1710735520578125
62.39,1710735520593750
60.57,1710735520609375
58.97,1710735520625000
57.64,1710735520640625
56.35,1710735520656250
54.65,1710735520671875
52.0,1710735520687500
48.04,1710735520703125
42.71,1710735520718750
36.35,1710735520734375
29.54,1710735520750000
22.97,1710735520765625
17.14,1710735520781250
12.26,1710735520796875
8.08,1710735520812500
4.1,1710735520828125
-0.26,1710735520843750
-5.34,1710735520859375
-11.17,1710735520875000
-17.47,1710735520890625
-23.74,1710735520906250
-29.56,1710735520921875
-34.75,1710735520937500
-39.46,1710735520953125
-44.15,1710735520968750
-49.51,1710735520984375
-56.24,1710735521000000
-64.74,1710735521015625
-74.86,1710735521031250
-85.65,1710735521046875
-95.4,1710735521062500
-101.89,1710735521078125
-103.03,1710735521093750
-97.49,1710735521109375
-85.19,1710735521125000
-67.47,1710735521140625
-46.67,1710735521156250
-25.43,1710735521171875
-5.94,1710735521187500
10.54,1710735521203125
23.74,1710735521218750
34.0,1710735521234375
41.84,1710735521250000
47.6,1710735521265625
51.42,1710735521281250
53.5,1710735521296875
54.2,1710735521312500
54.25,1710735521328125
54.36,1710735521343750
55.01,1710735521359375
56.26,1710735521375000
57.71,1710735521390625
58.8,1710735521406250
59.11,1710735521421875
58.46,1710735521437500
56.97,1710735521453125
54.88,1710735521468750
52.45,1710735521484375
49.83,1710735521500000
47.0,1710735521515625
43.85,1710735521531250
40.21,1710735521546875
35.97,1710735521562500
31.16,1710735521578125
25.99,1710735521593750
20.77,1710735521609375
15.7,1710735521625000
10.73,1710735521640625
5.65,1710735521656250
0.15,1710735521671875
-5.85,1710735521687500
-12.11,1710735521703125
-18.18,1710735521718750
-23.58,1710735521734375
-28.02,1710735521750000
-31.64,1710735521765625
-34.87,1710735521781250
-38.31,1710735521796875
-42.72,1710735521812500
-48.78,1710735521828125
-56.91,1710735521843750
-67.02,1710735521859375
-78.26,1710735521875000
-88.91,1710735521890625
-96.7,1710735521906250
-99.37,1710735521921875
-95.49,1710735521937500
-84.88,1710735521953125
-68.78,1710735521968750
-49.43,1710735521984375
-29.38,1710735522000000
-10.81,1710735522015625
4.9,1710735522031250
17.29,1710735522046875
26.61,1710735522062500
33.47,1710735522078125
38.54,1710735522093750
42.31,1710735522109375
45.07,1710735522125000
46.98,1710735522140625
48.15,1710735522156250
48.77,1710735522171875
49.05,1710735522187500
49.22,1710735522203125
49.43,1710735522218750
49.69,1710735522234375
49.87,1710735522250000
49.8,1710735522265625
49.36,1710735522281250
48.45,1710735522296875
47.07,1710735522312500
45.18,1710735522328125
42.76,1710735522343750
39.68,1710735522359375
35.8,1710735522375000
31.05,1710735522390625
25.55,1710735522406250
19.65,1710735522421875
13.79,1710735522437500
8.39,1710735522453125
3.62,1710735522468750
-0.62,1710735522484375
-4.64,1710735522500000
-8.81,1710735522515625
-13.31,1710735522531250
-18.12,1710735522546875
-23.07,1710735522562500
-27.95,1710735522578125
-32.66,1710735522593750
-37.31,1710735522609375
-42.2,1710735522625000
-47.73,1710735522640625
-54.21,1710735522656250
-61.71,1710735522671875
-69.82,1710735522687500
-77.56,1710735522703125
-83.47,1710735522718750
-85.9,1710735522734375
-83.58,1710735522750000
-76.01,1710735522765625
-63.64,1710735522781250
-47.86,1710735522796875
-30.49,1710735522812500
-13.37,1710735522828125
2.12,1710735522843750
15.18,1710735522859375
25.58,1710735522875000
33.48,1710735522890625
39.16,1710735522906250
42.95,1710735522921875
45.09,1710735522937500
45.79,1710735522953125
45.33,1710735522968750
44.08,1710735522984375
42.53,1710735523000000
41.18,1710735523015625
40.36,1710735523031250
40.18,1710735523046875
40.5,1710735523062500
41.0,1710735523078125
41.36,1710735523093750
41.34,1710735523109375
40.78,1710735523125000
39.57,1710735523140625
37.55,1710735523156250
34.61,1710735523171875
30.72,1710735523187500
26.06,1710735523203125
20.97,1710735523218750
15.9,1710735523234375
11.23,1710735523250000
7.12,1710735523265625
3.5,1710735523281250
0.1,1710735523296875
-3.37,1710735523312500
-7.18,1710735523328125
-11.44,1710735523343750
-16.12,1710735523359375
-21.03,1710735523375000
-25.89,1710735523390625
-30.41,1710735523406250
-34.44,1710735523421875
-38.11,1710735523437500
-41.82,1710735523453125
-46.21,1710735523468750
-51.88,1710735523484375
-59.11,1710735523500000
-67.5,1710735523515625
-75.96,1710735523531250
-82.72,1710735523546875
-85.84,1710735523562500
-83.68,1710735523578125
-75.54,1710735523593750
-61.91,1710735523609375
-44.42,1710735523625000
-25.38,1710735523640625
-7.12,1710735523656250
8.6,1710735523671875
20.93,1710735523687500
29.79,1710735523703125
35.64,1710735523718750
39.08,1710735523734375
40.6,1710735523750000
40.66,1710735523765625
39.71,1710735523781250
38.27,1710735523796875
36.89,1710735523812500
36.03,1710735523828125
35.88,1710735523843750
36.3,1710735523859375
36.9,1710735523875000
37.15,1710735523890625
36.74,1710735523906250
35.57,1710735523921875
33.84,1710735523937500
31.88,1710735523953125
29.95,1710735523968750
28.08,1710735523984375
26.11,1710735524000000
23.8,1710735524015625
20.94,1710735524031250
17.47,1710735524046875
13.38,1710735524062500
8.71,1710735524078125
3.49,1710735524093750
-2.12,1710735524109375
-7.85,1710735524125000
-13.28,1710735524140625
-18.01,1710735524156250
-21.88,1710735524171875
-24.97,1710735524187500
-27.71,1710735524203125
-30.56,1710735524218750
-33.92,1710735524234375
-38.01,1710735524250000
-42.95,1710735524265625
-48.82,1710735524281250
-55.56,1710735524296875
-62.86,1710735524312500
-69.84,1710735524328125
-75.03,1710735524343750
-76.69,1710735524359375
-73.39,1710735524375000
-64.56,1710735524390625
-50.87,1710735524406250
-34.09,1710735524421875
-16.59,1710735524437500
-0.65,1710735524453125
12.27,1710735524468750
21.69,1710735524484375
28.0,1710735524500000
32.03,1710735524515625
34.6,1710735524531250
36.19,1710735524546875
36.98,1710735524562500
36.99,1710735524578125
36.33,1710735524593750
35.27,1710735524609375
34.16,1710735524625000
33.34,1710735524640625
32.96,1710735524656250
32.92,1710735524671875
33.0,1710735524687500
32.91,1710735524703125
32.48,1710735524718750
31.61,1710735524734375
30.39,1710735524750000
28.9,1710735524765625
27.16,1710735524781250
25.06,1710735524796875
22.33,1710735524812500
18.64,1710735524828125
13.81,1710735524843750
7.92,1710735524859375
1.36,1710735524875000
-5.23,1710735524890625
-11.24,1710735524906250
-16.3,1710735524921875
-20.34,1710735524937500
-23.61,1710735524953125
-26.5,1710735524968750
-29.43,1710735524984375
-32.9,1710735525000000
-37.35,1710735525015625
-43.08,1710735525031250
-50.12,1710735525046875
-57.93,1710735525062500
-65.36,1710735525078125
-70.83,1710735525093750
-72.67,1710735525109375
-69.73,1710735525125000
-61.67,1710735525140625
-49.18,1710735525156250
-33.77,1710735525171875
-17.36,1710735525187500
-1.79,1710735525203125
11.61,1710735525218750
22.16,1710735525234375
29.79,1710735525250000
34.79,1710735525265625
37.55,1710735525281250
38.46,1710735525296875
37.88,1710735525312500
36.25,1710735525328125
34.16,1710735525343750
32.31,1710735525359375
31.21,1710735525375000
31.05,1710735525390625
31.6,1710735525406250
32.33,1710735525421875
32.62,1710735525437500
32.04,1710735525453125
30.5,1710735525468750
28.16,1710735525484375
25.39,1710735525500000
22.51,1710735525515625
19.7,1710735525531250
16.95,1710735525546875
13.99,1710735525562500
10.42,1710735525578125
5.88,1710735525593750
0.28,1710735525609375
-6.16,1710735525625000
-12.84,1710735525640625
-19.07,1710735525656250
-24.26,1710735525671875
-28.25,1710735525687500
-31.34,1710735525703125
-34.24,1710735525718750
-37.77,1710735525734375
-42.72,1710735525750000
-49.51,1710735525765625
-57.98,1710735525781250
-67.27,1710735525796875
-75.87,1710735525812500
-81.86,1710735525828125
-83.38,1710735525843750
-79.29,1710735525859375
-69.45,1710735525875000
-54.88,1710735525890625
-37.49,1710735525906250
-19.44,1710735525921875
-2.78,1710735525937500
11.07,1710735525953125
21.51,1710735525968750
28.67,1710735525984375
33.2,1710735526000000
35.99,1710735526015625
37.8,1710735526031250
39.02,1710735526046875
39.8,1710735526062500
40.04,1710735526078125
39.71,1710735526093750
38.96,1710735526109375
38.03,1710735526125000
37.12,1710735526140625
36.25,1710735526156250
35.25,1710735526171875
33.86,1710735526187500
32.02,1710735526203125
29.82,1710735526218750
27.53,1710735526234375
25.31,1710735526250000
23.13,1710735526265625
20.72,1710735526281250
17.74,1710735526296875
13.85,1710735526312500
8.95,1710735526328125
3.17,1710735526343750
-3.16,1710735526359375
-9.61,1710735526375000
-15.73,1710735526390625
-21.22,1710735526406250
-26.0,1710735526421875
-30.23,1710735526437500
-34.27,1710735526453125
-38.6,1710735526468750
-43.72,1710735526484375
-50.16,1710735526500000
-58.24,1710735526515625
-67.84,1710735526531250
-78.1,1710735526546875
-87.34,1710735526562500
-93.33,1710735526578125
-93.98,1710735526593750
-88.06,1710735526609375
-75.78,1710735526625000
-58.8,1710735526640625
-39.67,1710735526656250
-21.01,1710735526671875
-4.7,1710735526687500
8.45,1710735526703125
18.63,1710735526718750
26.57,1710735526734375
32.99,1710735526750000
38.35,1710735526765625
42.73,1710735526781250
46.03,1710735526796875
48.22,1710735526812500
49.44,1710735526828125
50.03,1710735526843750
50.39,1710735526859375
50.71,1710735526875000
50.92,1710735526890625
50.78,1710735526906250
50.0,1710735526921875
48.48,1710735526937500
46.31,1710735526953125
43.74,1710735526968750
40.99,1710735526984375
38.15,1710735527000000
35.25,1710735527015625
32.23,1710735527031250
28.97,1710735527046875
25.24,1710735527062500
20.76,1710735527078125
15.29,1710735527093750
8.77,1710735527109375
1.48,1710735527125000
-5.99,1710735527140625
-12.95,1710735527156250
-18.92,1710735527171875
-23.76,1710735527187500
-27.79,1710735527203125
-31.6,1710735527218750
-35.89,1710735527234375
-41.27,1710735527250000
-48.25,1710735527265625
-57.05,1710735527281250
-67.44,1710735527296875
-78.57,1710735527312500
-88.91,1710735527328125
-96.47,1710735527343750
-99.2,1710735527359375
-95.71,1710735527375000
-85.66,1710735527390625
-70.01,1710735527406250
-50.76,1710735527421875
-30.4,1710735527437500
-11.26,1710735527453125
5.14,1710735527468750
18.3,1710735527484375
28.57,1710735527500000
36.8,1710735527515625
43.8,1710735527531250
50.0,1710735527546875
55.36,1710735527562500
59.56,1710735527578125
62.28,1710735527593750
63.46,1710735527609375
63.29,1710735527625000
62.19,1710735527640625
60.61,1710735527656250
58.95,1710735527671875
57.5,1710735527687500
56.41,1710735527703125
55.69,1710735527718750
55.14,1710735527734375
54.4,1710735527750000
53.02,1710735527765625
50.66,1710735527781250
47.21,1710735527796875
42.81,1710735527812500
37.73,1710735527828125
32.22,1710735527843750
26.45,1710735527859375
20.43,1710735527875000
14.22,1710735527890625
7.94,1710735527906250
1.79,1710735527921875
-4.04,1710735527937500
-9.45,1710735527953125
-14.54,1710735527968750
-19.49,1710735527984375
-24.62,1710735528000000
-30.27,1710735528015625
-36.79,1710735528031250
-44.55,1710735528046875
-53.76,1710735528062500
-64.27,1710735528078125
-75.29,1710735528093750
-85.31,1710735528109375
-92.32,1710735528125000
-94.33,1710735528140625
-90.04,1710735528156250
-79.31,1710735528171875
-63.34,1710735528187500
-44.29,1710735528203125
-24.66,1710735528218750
-6.54,1710735528234375
8.86,1710735528250000
21.3,1710735528265625
31.25,1710735528281250
39.34,1710735528296875
46.09,1710735528312500
51.63,1710735528328125
55.85,1710735528343750
58.61,1710735528359375
59.95,1710735528375000
60.17,1710735528390625
59.7,1710735528406250
58.97,1710735528421875
58.21,1710735528437500
57.5,1710735528453125
56.79,1710735528468750
56.05,1710735528484375
55.29,1710735528500000
54.48,1710735528515625
53.51,1710735528531250
52.07,1710735528546875
49.72,1710735528562500
46.16,1710735528578125
41.39,1710735528593750
35.74,1710735528609375
29.82,1710735528625000
24.15,1710735528640625
18.97,1710735528656250
14.13,1710735528671875
9.17,1710735528687500
3.72,1710735528703125
-2.41,1710735528718750
-8.98,1710735528734375
-15.55,1710735528750000
-21.69,1710735528765625
-27.21,1710735528781250
-32.28,1710735528796875
-37.44,1710735528812500
-43.37,1710735528828125
-50.59,1710735528843750
-59.31,1710735528859375
-69.04,1710735528875000
-78.59,1710735528890625
-86.15,1710735528906250
-89.74,1710735528921875
-87.81,1710735528937500
-79.81,1710735528953125
-66.48,1710735528968750
-49.64,1710735528984375
-31.64,1710735529000000
-14.53,1710735529015625
0.44,1710735529031250
12.94,1710735529046875
23.26,1710735529062500
31.87,1710735529078125
39.03,1710735529093750
44.68,1710735529109375
48.63,1710735529125000
50.79,1710735529140625
51.36,1710735529156250
50.86,1710735529171875
49.95,1710735529187500
49.24,1710735529203125
49.01,1710735529218750
49.28,1710735529234375
49.76,1710735529250000
50.03,1710735529265625
49.7,1710735529281250
48.57,1710735529296875
46.62,1710735529312500
43.99,1710735529328125
40.85,1710735529343750
37.33,1710735529359375
33.47,1710735529375000
29.26,1710735529390625
24.73,1710735529406250
19.91,1710735529421875
14.91,1710735529437500
9.8,1710735529453125
4.64,1710735529468750
-0.5,1710735529484375
-5.55,1710735529500000
-10.4,1710735529515625
-15.0,1710735529531250
-19.39,1710735529546875
-23.73,1710735529562500
-28.3,1710735529578125
-33.39,1710735529593750
-39.35,1710735529609375
-46.39,1710735529625000
-54.43,1710735529640625
-62.92,1710735529656250
-70.73,1710735529671875
-76.22,1710735529687500
-77.65,1710735529703125
-73.77,1710735529718750
-64.31,1710735529734375
-50.21,1710735529750000
-33.33,1710735529765625
-15.9,1710735529781250
0.23,1710735529796875
13.93,1710735529812500
24.91,1710735529828125
33.3,1710735529843750
39.35,1710735529859375
43.22,1710735529875000
44.93,1710735529890625
44.67,1710735529906250
42.94,1710735529921875
40.56,1710735529937500
38.47,1710735529953125
37.39,1710735529968750
37.53,1710735529984375
38.53,1710735530000000
39.63,1710735530015625
40.01,1710735530031250
39.12,1710735530046875
36.86,1710735530062500
33.61,1710735530078125
29.93,1710735530093750
26.39,1710735530109375
23.21,1710735530125000
20.3,1710735530140625
17.29,1710735530156250
13.74,1710735530171875
9.39,1710735530187500
4.27,1710735530203125
-1.32,1710735530218750
-6.96,1710735530234375
-12.24,1710735530250000
-16.99,1710735530265625
-21.29,1710735530281250
-25.45,1710735530296875
-29.98,1710735530312500
-35.35,1710735530328125
-41.94,1710735530343750
-49.81,1710735530359375
-58.55,1710735530375000
-67.11,1710735530390625
-73.89,1710735530406250
-77.12,1710735530421875
-75.33,1710735530437500
-67.93,1710735530453125
-55.5,1710735530468750
-39.66,1710735530484375
-22.58,1710735530500000
-6.32,1710735530515625
7.72,1710735530531250
18.98,1710735530546875
27.57,1710735530562500
33.9,1710735530578125
38.3,1710735530593750
40.93,1710735530609375
41.86,1710735530625000
41.35,1710735530640625
39.88,1710735530656250
38.12,1710735530671875
36.68,1710735530687500
35.97,1710735530703125
36.02,1710735530718750
36.54,1710735530734375
37.08,1710735530750000
37.16,1710735530765625
36.42,1710735530781250
34.72,1710735530796875
32.16,1710735530812500
29.01,1710735530828125
25.6,1710735530843750
22.12,1710735530859375
18.47,1710735530875000
14.34,1710735530890625
9.38,1710735530906250
3.47,1710735530921875
-3.13,1710735530937500
-9.81,1710735530953125
-15.88,1710735530968750
-20.94,1710735530984375
-25.03,1710735531000000
-28.65,1710735531015625
-32.47,1710735531031250
-37.08,1710735531046875
-42.82,1710735531062500
-49.8,1710735531078125
-57.92,1710735531093750
-66.84,1710735531109375
-75.93,1710735531125000
-83.98,1710735531140625
-89.36,1710735531156250
-90.29,1710735531171875
-85.49,1710735531187500
-74.7,1710735531203125
-58.96,1710735531218750
-40.37,1710735531234375
-21.39,1710735531250000
-4.08,1710735531265625
10.39,1710735531281250
21.78,1710735531296875
30.46,1710735531312500
36.99,1710735531328125
41.77,1710735531343750
45.03,1710735531359375
46.9,1710735531375000
47.59,1710735531390625
47.39,1710735531406250
46.65,1710735531421875
45.69,1710735531437500
44.71,1710735531453125
43.78,1710735531468750
42.95,1710735531484375
42.19,1710735531500000
41.39,1710735531515625
40.38,1710735531531250
38.89,1710735531546875
36.66,1710735531562500
33.51,1710735531578125
29.48,1710735531593750
24.79,1710735531609375
19.79,1710735531625000
14.8,1710735531640625
10.02,1710735531656250
5.44,1710735531671875
0.85,1710735531687500
-3.96,1710735531703125
-9.1,1710735531718750
-14.51,1710735531734375
-20.03,1710735531750000
-25.37,1710735531765625
-30.38,1710735531781250
-35.03,1710735531796875
-39.47,1710735531812500
-44.08,1710735531828125
-49.35,1710735531843750
-55.78,1710735531859375
-63.71,1710735531875000
-72.9,1710735531890625
-82.36,1710735531906250
-90.34,1710735531921875
-94.7,1710735531937500
-93.6,1710735531953125
-86.17,1710735531968750
-72.91,1710735531984375
-55.56,1710735532000000
-36.47,1710735532015625
-17.83,1710735532031250
-1.16,1710735532046875
12.86,1710735532062500
24.19,1710735532078125
33.09,1710735532093750
39.78,1710735532109375
44.41,1710735532125000
47.19,1710735532140625
48.45,1710735532156250
48.67,1710735532171875
48.41,1710735532187500
48.13,1710735532203125
48.02,1710735532218750
48.02,1710735532234375
47.92,1710735532250000
47.48,1710735532265625
46.6,1710735532281250
45.31,1710735532296875
43.73,1710735532312500
41.91,1710735532328125
39.84,1710735532343750
37.36,1710735532359375
34.28,1710735532375000
30.53,1710735532390625
26.15,1710735532406250
21.31,1710735532421875
16.18,1710735532437500
10.91,1710735532453125
5.53,1710735532468750
0.05,1710735532484375
-5.56,1710735532500000
-11.26,1710735532515625
-16.95,1710735532531250
-22.48,1710735532546875
-27.71,1710735532562500
-32.52,1710735532578125
-36.94,1710735532593750
-41.2,1710735532609375
-45.75,1710735532625000
-51.17,1710735532640625
-57.89,1710735532656250
-65.93,1710735532671875
-74.48,1710735532687500
-81.98,1710735532703125
-86.37,1710735532718750
-85.69,1710735532734375
-78.86,1710735532750000
-66.09,1710735532765625
-48.99,1710735532781250
-29.99,1710735532796875
-11.57,1710735532812500
4.49,1710735532828125
17.47,1710735532843750
27.53,1710735532859375
35.23,1710735532875000
41.02,1710735532890625
44.97,1710735532906250
46.93,1710735532921875
46.9,1710735532937500
45.27,1710735532953125
42.88,1710735532968750
40.78,1710735532984375
39.76,1710735533000000
40.08,1710735533015625
41.35,1710735533031250
42.78,1710735533046875
43.48,1710735533062500
42.95,1710735533078125
41.13,1710735533093750
38.43,1710735533109375
35.42,1710735533125000
32.5,1710735533140625
29.73,1710735533156250
26.76,1710735533171875
23.07,1710735533187500
18.25,1710735533203125
12.21,1710735533218750
5.33,1710735533234375
-1.76,1710735533250000
-8.38,1710735533265625
-14.06,1710735533281250
-18.65,1710735533296875
-22.42,1710735533312500
-25.83,1710735533328125
-29.47,1710735533343750
-33.98,1710735533359375
-39.86,1710735533375000
-47.28,1710735533390625
-56.01,1710735533406250
-65.23,1710735533421875
-73.6,1710735533437500
-79.45,1710735533453125
-81.17,1710735533468750
-77.68,1710735533484375
-68.74,1710735533500000
-55.07,1710735533515625
-38.2,1710735533531250
-20.07,1710735533546875
-2.59,1710735533562500
12.76,1710735533578125
25.09,1710735533593750
34.15,1710735533609375
40.1,1710735533625000
43.38,1710735533640625
44.51,1710735533656250
44.03,1710735533671875
42.56,1710735533687500
40.77,1710735533703125
39.28,1710735533718750
38.55,1710735533734375
38.7,1710735533750000
39.48,1710735533765625
40.37,1710735533781250
40.79,1710735533796875
40.34,1710735533812500
38.91,1710735533828125
36.66,1710735533843750
33.9,1710735533859375
30.82,1710735533875000
27.53,1710735533890625
23.98,1710735533906250
20.09,1710735533921875
15.75,1710735533937500
10.84,1710735533953125
5.32,1710735533968750
-0.82,1710735533984375
-7.41,1710735534000000
-14.2,1710735534015625
-20.82,1710735534031250
-27.0,1710735534046875
-32.6,1710735534062500
-37.68,1710735534078125
-42.47,1710735534093750
-47.39,1710735534109375
-52.97,1710735534125000
-59.73,1710735534140625
-68.04,1710735534156250
-77.7,1710735534171875
-87.71,1710735534187500
-96.23,1710735534203125
-100.88,1710735534218750
-99.56,1710735534234375
-91.23,1710735534250000
-76.34,1710735534265625
-56.84,1710735534281250
-35.52,1710735534296875
-15.06,1710735534312500
2.66,1710735534328125
16.86,1710735534343750
27.76,1710735534359375
35.98,1710735534375000
42.14,1710735534390625
46.54,1710735534406250
49.28,1710735534421875
50.46,1710735534437500
50.38,1710735534453125
49.55,1710735534468750
48.58,1710735534484375
47.97,1710735534500000
47.89,1710735534515625
48.26,1710735534531250
48.74,1710735534546875
48.91,1710735534562500
48.41,1710735534578125
46.96,1710735534593750
44.48,1710735534609375
41.01,1710735534625000
36.76,1710735534640625
32.0,1710735534656250
27.0,1710735534671875
21.92,1710735534687500
16.76,1710735534703125
11.43,1710735534718750
5.81,1710735534734375
-0.14,1710735534750000
-6.35,1710735534765625
-12.62,1710735534781250
-18.74,1710735534796875
-24.56,1710735534812500
-30.02,1710735534828125
-35.2,1710735534843750
-40.35,1710735534859375
-45.86,1710735534875000
-52.26,1710735534890625
-60.07,1710735534906250
-69.57,1710735534921875
-80.61,1710735534937500
-92.3,1710735534953125
-103.01,1710735534968750
-110.52,1710735534984375
-112.69,1710735535000000
-108.01,1710735535015625
-96.22,1710735535031250
-78.45,1710735535046875
-56.94,1710735535062500
-34.37,1710735535078125
-13.17,1710735535093750
5.07,1710735535109375
19.7,1710735535125000
30.89,1710735535140625
39.19,1710735535156250
45.28,1710735535171875
49.68,1710735535187500
52.78,1710735535203125
54.83,1710735535218750
56.13,1710735535234375
56.94,1710735535250000
57.59,1710735535265625
58.26,1710735535281250
59.03,1710735535296875
59.75,1710735535312500
60.23,1710735535328125
60.24,1710735535343750
59.61,1710735535359375
58.31,1710735535375000
56.31,1710735535390625
53.6,1710735535406250
50.13,1710735535421875
45.93,1710735535437500
41.07,1710735535453125
35.7,1710735535468750
30.05,1710735535484375
24.21,1710735535500000
18.16,1710735535515625
11.7,1710735535531250
4.72,1710735535546875
-2.75,1710735535562500
-10.35,1710735535578125
-17.59,1710735535593750
-24.06,1710735535609375
-29.66,1710735535625000
-34.77,1710735535640625
-40.09,1710735535656250
-46.51,1710735535671875
-54.62,1710735535687500
-64.56,1710735535703125
-75.74,1710735535718750
-86.88,1710735535734375
-96.14,1710735535750000
-101.45,1710735535765625
-101.05,1710735535781250
-93.94,1710735535796875
-80.35,1710735535812500
-61.67,1710735535828125
-40.22,1710735535843750
-18.56,1710735535859375
1.22,1710735535875000
17.83,1710735535890625
30.92,1710735535906250
40.73,1710735535921875
47.73,1710735535937500
52.36,1710735535953125
55.02,1710735535968750
56.07,1710735535984375
56.02,1710735536000000
55.48,1710735536015625
54.99,1710735536031250
54.92,1710735536046875
55.27,1710735536062500
55.81,1710735536078125
56.15,1710735536093750
55.97,1710735536109375
55.12,1710735536125000
53.67,1710735536140625
51.77,1710735536156250
49.53,1710735536171875
46.93,1710735536187500
43.77,1710735536203125
39.77,1710735536218750
34.66,1710735536234375
28.32,1710735536250000
20.93,1710735536265625
12.91,1710735536281250
4.88,1710735536296875
-2.57,1710735536312500
-9.0,1710735536328125
-14.36,1710735536343750
-18.96,1710735536359375
-23.42,1710735536375000
-28.46,1710735536390625
-34.71,1710735536406250
-42.58,1710735536421875
-52.14,1710735536437500
-63.04,1710735536453125
-74.36,1710735536468750
-84.66,1710735536484375
-92.01,1710735536500000
-94.43,1710735536515625
-90.45,1710735536531250
-79.6,1710735536546875
-62.81,1710735536562500
-42.13,1710735536578125
-20.27,1710735536593750
0.28,1710735536609375
17.8,1710735536625000
31.62,1710735536640625
41.94,1710735536656250
49.35,1710735536671875
54.5,1710735536687500
57.79,1710735536703125
59.43,1710735536718750
59.57,1710735536734375
58.53,1710735536750000
56.84,1710735536765625
55.17,1710735536781250
54.14,1710735536796875
54.08,1710735536812500
54.89,1710735536828125
56.03,1710735536843750
56.7,1710735536859375
56.18,1710735536875000
54.08,1710735536890625
50.55,1710735536906250
46.1,1710735536921875
41.33,1710735536937500
36.61,1710735536953125
31.9,1710735536968750
26.79,1710735536984375
20.84,1710735537000000
13.77,1710735537015625
5.71,1710735537031250
-2.85,1710735537046875
-11.27,1710735537062500
-18.98,1710735537078125
-25.71,1710735537093750
-31.51,1710735537109375
-36.83,1710735537125000
-42.32,1710735537140625
-48.72,1710735537156250
-56.69,1710735537171875
-66.6,1710735537187500
-78.18,1710735537203125
-90.46,1710735537218750
-101.68,1710735537234375
-109.55,1710735537250000
-111.82,1710735537265625
-106.9,1710735537281250
-94.55,1710735537296875
-76.03,1710735537312500
-53.8,1710735537328125
-30.75,1710735537343750
-9.36,1710735537359375
8.89,1710735537375000
23.68,1710735537390625
35.35,1710735537406250
44.5,1710735537421875
51.48,1710735537437500
56.41,1710735537453125
59.32,1710735537468750
60.43,1710735537484375
60.28,1710735537500000
59.64,1710735537515625
59.24,1710735537531250
59.49,1710735537546875
60.39,1710735537562500
61.49,1710735537578125
62.13,1710735537593750
61.72,1710735537609375
59.96,1710735537625000
56.94,1710735537640625
53.13,1710735537656250
49.05,1710735537671875
45.06,1710735537687500
41.17,1710735537703125
36.98,1710735537718750
31.96,1710735537734375
25.75,1710735537750000
18.35,1710735537765625
10.19,1710735537781250
1.89,1710735537796875
-6.0,1710735537812500
-13.22,1710735537828125
-19.79,1710735537843750
-25.96,1710735537859375
-32.05,1710735537875000
-38.35,1710735537890625
-45.25,1710735537906250
-53.14,1710735537921875
-62.43,1710735537937500
-73.28,1710735537953125
-85.28,1710735537968750
-97.25,1710735537984375
-107.22,1710735538000000
-112.8,1710735538015625
-111.86,1710735538031250
-103.34,1710735538046875
-87.67,1710735538062500
-66.76,1710735538078125
-43.41,1710735538093750
-20.46,1710735538109375
-0.0,1710735538125000
17.0,1710735538140625
30.59,1710735538156250
41.32,1710735538171875
49.74,1710735538187500
56.18,1710735538203125
60.78,1710735538218750
63.73,1710735538234375
65.36,1710735538250000
66.16,1710735538265625
66.58,1710735538281250
66.88,1710735538296875
67.11,1710735538312500
67.17,1710735538328125
66.95,1710735538343750
66.4,1710735538359375
65.47,1710735538375000
64.12,1710735538390625
62.24,1710735538406250
59.63,1710735538421875
56.13,1710735538437500
51.69,1710735538453125
46.35,1710735538468750
40.27,1710735538484375
33.65,1710735538500000
26.66,1710735538515625
19.46,1710735538531250
12.16,1710735538546875
4.84,1710735538562500
-2.39,1710735538578125
-9.41,1710735538593750
-16.13,1710735538609375
-22.47,1710735538625000
-28.5,1710735538640625
-34.45,1710735538656250
-40.72,1710735538671875
-47.83,1710735538687500
-56.3,1710735538703125
-66.35,1710735538718750
-77.71,1710735538734375
-89.43,1710735538750000
-99.76,1710735538765625
-106.56,1710735538781250
-107.8,1710735538796875
-102.26,1710735538812500
-89.94,1710735538828125
-72.17,1710735538843750
-51.17,1710735538859375
-29.45,1710735538875000
-9.07,1710735538890625
8.62,1710735538906250
23.12,1710735538921875
34.53,1710735538937500
43.21,1710735538953125
49.58,1710735538968750
53.98,1710735538984375
56.67,1710735539000000
57.9,1710735539015625
58.03,1710735539031250
57.52,1710735539046875
56.86,1710735539062500
56.46,1710735539078125
56.43,1710735539093750
56.62,1710735539109375
56.66,1710735539125000
56.16,1710735539140625
54.91,1710735539156250
52.91,1710735539171875
50.34,1710735539187500
47.37,1710735539203125
44.04,1710735539218750
40.25,1710735539234375
35.8,1710735539250000
30.59,1710735539265625
24.64,1710735539281250
18.13,1710735539296875
11.34,1710735539312500
4.53,1710735539328125
-2.09,1710735539343750
-8.43,1710735539359375
-14.48,1710735539375000
-20.28,1710735539390625
-25.94,1710735539406250
-31.61,1710735539421875
-37.6,1710735539437500
-44.32,1710735539453125
-52.22,1710735539468750
-61.46,1710735539484375
-71.57,1710735539500000
-81.33,1710735539515625
-88.81,1710735539531250
-91.91,1710735539546875
-89.03,1710735539562500
-79.64,1710735539578125
-64.59,1710735539593750
-45.81,1710735539609375
-25.76,1710735539625000
-6.68,1710735539640625
9.91,1710735539656250
23.36,1710735539671875
33.68,1710735539687500
41.21,1710735539703125
46.27,1710735539718750
49.01,1710735539734375
49.58,1710735539750000
48.31,1710735539765625
45.87,1710735539781250
43.27,1710735539796875
41.55,1710735539812500
41.31,1710735539828125
42.48,1710735539843750
44.32,1710735539859375
45.75,1710735539875000
45.88,1710735539890625
44.4,1710735539906250
41.66,1710735539921875
38.37,1710735539937500
35.17,1710735539953125
32.21,1710735539968750
29.09,1710735539984375
25.13,1710735540000000
19.74,1710735540015625
12.78,1710735540031250
4.68,1710735540046875
-3.74,1710735540062500
-11.61,1710735540078125
-18.35,1710735540093750
-23.89,1710735540109375
-28.64,1710735540125000
-33.32,1710735540140625
-38.72,1710735540156250
-45.46,1710735540171875
-53.79,1710735540187500
-63.53,1710735540203125
-73.97,1710735540218750
-83.83,1710735540234375
-91.36,1710735540250000
-94.66,1710735540265625
-92.18,1710735540281250
-83.23,1710735540296875
-68.41,1710735540312500
-49.48,1710735540328125
-28.95,1710735540343750
-9.26,1710735540359375
7.79,1710735540375000
21.42,1710735540390625
31.65,1710735540406250
38.99,1710735540421875
43.95,1710735540437500
46.9,1710735540453125
48.06,1710735540468750
47.72,1710735540484375
46.38,1710735540500000
44.75,1710735540515625
43.54,1710735540531250
43.25,1710735540546875
43.95,1710735540562500
45.24,1710735540578125
46.42,1710735540593750
46.76,1710735540609375
45.81,1710735540625000
43.55,1710735540640625
40.3,1710735540656250
36.6,1710735540671875
32.82,1710735540687500
29.07,1710735540703125
25.13,1710735540718750
20.58,1710735540734375
15.03,1710735540750000
8.33,1710735540765625
0.68,1710735540781250
-7.43,1710735540796875
-15.39,1710735540812500
-22.68,1710735540828125
-29.12,1710735540843750
-34.86,1710735540859375
-40.37,1710735540875000
-46.24,1710735540890625
-53.02,1710735540906250
-61.1,1710735540921875
-70.53,1710735540937500
-80.97,1710735540953125
-91.51,1710735540968750
-100.68,1710735540984375
-106.62,1710735541000000
-107.43,1710735541015625
-101.83,1710735541031250
-89.65,1710735541046875
-72.04,1710735541062500
-51.18,1710735541078125
-29.62,1710735541093750
-9.53,1710735541109375
7.77,1710735541125000
21.86,1710735541140625
32.94,1710735541156250
41.43,1710735541171875
47.73,1710735541187500
52.1,1710735541203125
54.81,1710735541218750
56.23,1710735541234375
56.83,1710735541250000
57.1,1710735541265625
57.38,1710735541281250
57.78,1710735541296875
58.19,1710735541312500
58.4,1710735541328125
58.15,1710735541343750
57.26,1710735541359375
55.63,1710735541375000
53.23,1710735541390625
50.08,1710735541406250
46.28,1710735541421875
41.94,1710735541437500
37.18,1710735541453125
32.09,1710735541468750
26.67,1710735541484375
20.82,1710735541500000
14.43,1710735541515625
7.48,1710735541531250
0.13,1710735541546875
-7.36,1710735541562500
-14.64,1710735541578125
-21.45,1710735541593750
-27.67,1710735541609375
-33.43,1710735541625000
-39.05,1710735541640625
-45.01,1710735541656250
-51.85,1710735541671875
-60.03,1710735541687500
-69.73,1710735541703125
-80.58,1710735541718750
-91.42,1710735541734375
-100.35,1710735541750000
-105.09,1710735541765625
-103.63,1710735541781250
-95.0,1710735541796875
-79.75,1710735541812500
-59.78,1710735541828125
-37.88,1710735541843750
-16.72,1710735541859375
1.83,1710735541875000
16.98,1710735541890625
28.88,1710735541906250
38.08,1710735541921875
45.13,1710735541937500
50.34,1710735541953125
53.81,1710735541968750
55.64,1710735541984375
56.09,1710735542000000
55.64,1710735542015625
54.89,1710735542031250
54.4,1710735542046875
54.49,1710735542062500
55.14,1710735542078125
55.97,1710735542093750
56.46,1710735542109375
56.08,1710735542125000
54.56,1710735542140625
51.96,1710735542156250
48.57,1710735542171875
44.83,1710735542187500
40.97,1710735542203125
37.03,1710735542218750
32.79,1710735542234375
27.94,1710735542250000
22.18,1710735542265625
15.49,1710735542281250
8.09,1710735542296875
0.45,1710735542312500
-6.85,1710735542328125
-13.41,1710735542343750
-19.06,1710735542359375
-23.99,1710735542375000
-28.67,1710735542390625
-33.66,1710735542406250
-39.5,1710735542421875
-46.58,1710735542437500
-55.02,1710735542453125
-64.62,1710735542468750
-74.66,1710735542484375
-83.82,1710735542500000
-90.3,1710735542515625
-92.18,1710735542531250
-88.02,1710735542546875
-77.4,1710735542562500
-61.17,1710735542578125
-41.34,1710735542593750
-20.42,1710735542609375
-0.82,1710735542625000
15.82,1710735542640625
28.78,1710735542656250
38.1,1710735542671875
44.24,1710735542687500
47.76,1710735542703125
49.17,1710735542718750
48.99,1710735542734375
47.78,1710735542750000
46.17,1710735542765625
44.77,1710735542781250
43.96,1710735542796875
43.81,1710735542812500
44.08,1710735542828125
44.35,1710735542843750
44.23,1710735542859375
43.5,1710735542875000
42.17,1710735542890625
40.36,1710735542906250
38.29,1710735542921875
36.02,1710735542937500
33.49,1710735542953125
30.43,1710735542968750
26.47,1710735542984375
21.26,1710735543000000
14.73,1710735543015625
7.11,1710735543031250
-0.99,1710735543046875
-8.82,1710735543062500
-15.78,1710735543078125
-21.59,1710735543093750
-26.46,1710735543109375
-30.93,1710735543125000
-35.76,1710735543140625
-41.69,1710735543156250
-49.18,1710735543171875
-58.28,1710735543187500
-68.46,1710735543203125
-78.54,1710735543218750
-86.83,1710735543234375
-91.4,1710735543250000
-90.63,1710735543265625
-83.7,1710735543281250
-70.88,1710735543296875
-53.59,1710735543312500
-33.99,1710735543328125
-14.42,1710735543343750
3.23,1710735543359375
17.88,1710735543375000
29.33,1710735543390625
37.92,1710735543406250
44.2,1710735543421875
48.54,1710735543437500
51.08,1710735543453125
51.87,1710735543468750
51.07,1710735543484375
49.13,1710735543500000
46.78,1710735543515625
44.76,1710735543531250
43.55,1710735543546875
43.18,1710735543562500
43.26,1710735543578125
43.17,1710735543593750
42.34,1710735543609375
40.49,1710735543625000
37.66,1710735543640625
34.18,1710735543656250
30.42,1710735543671875
26.59,1710735543687500
22.67,1710735543703125
18.39,1710735543718750
13.38,1710735543734375
7.39,1710735543750000
0.45,1710735543765625
-7.13,1710735543781250
-14.83,1710735543796875
-22.13,1710735543812500
-28.6,1710735543828125
-34.05,1710735543843750
-38.63,1710735543859375
-42.79,1710735543875000
-47.26,1710735543890625
-52.93,1710735543906250
-60.55,1710735543921875
-70.34,1710735543937500
-81.68,1710735543953125
-93.0,1710735543968750
-101.99,1710735543984375
-106.22,1710735544000000
-103.81,1710735544015625
-94.09,1710735544031250
-77.87,1710735544046875
-57.22,1710735544062500
-34.88,1710735544078125
-13.49,1710735544093750
5.05,1710735544109375
19.96,1710735544125000
31.31,1710735544140625
39.76,1710735544156250
46.01,1710735544171875
50.52,1710735544187500
53.55,1710735544203125
55.24,1710735544218750
55.82,1710735544234375
55.65,1710735544250000
55.15,1710735544265625
54.67,1710735544281250
54.35,1710735544296875
54.09,1710735544312500
53.7,1710735544328125
52.92,1710735544343750
51.56,1710735544359375
49.57,1710735544375000
46.99,1710735544390625
43.96,1710735544406250
40.57,1710735544421875
36.83,1710735544437500
32.65,1710735544453125
27.86,1710735544468750
22.3,1710735544484375
15.96,1710735544500000
8.98,1710735544515625
1.63,1710735544531250
-5.72,1710735544546875
-12.84,1710735544562500
-19.49,1710735544578125
-25.59,1710735544593750
-31.05,1710735544609375
-35.96,1710735544625000
-40.54,1710735544640625
-45.28,1710735544656250
-50.85,1710735544671875
-57.84,1710735544687500
-66.56,1710735544703125
-76.64,1710735544718750
-86.89,1710735544734375
-95.41,1710735544750000
-99.97,1710735544765625
-98.63,1710735544781250
-90.4,1710735544796875
-75.67,1710735544812500
-56.19,1710735544828125
-34.61,1710735544843750
-13.64,1710735544859375
4.61,1710735544875000
19.15,1710735544890625
30.05,1710735544906250
37.99,1710735544921875
43.76,1710735544937500
47.92,1710735544953125
50.71,1710735544968750
52.19,1710735544984375
52.52,1710735545000000
52.03,1710735545015625
51.2,1710735545031250
50.46,1710735545046875
50.03,1710735545062500
49.83,1710735545078125
49.57,1710735545093750
48.88,1710735545109375
47.49,1710735545125000
45.36,1710735545140625
42.64,1710735545156250
39.61,1710735545171875
36.53,1710735545187500
33.54,1710735545203125
30.51,1710735545218750
27.11,1710735545234375
22.9,1710735545250000
17.57,1710735545265625
11.11,1710735545281250
3.92,1710735545296875
-3.35,1710735545312500
-9.99,1710735545328125
-15.53,1710735545343750
-20.0,1710735545359375
-23.83,1710735545375000
-27.82,1710735545390625
-32.79,1710735545406250
-39.36,1710735545421875
-47.66,1710735545437500
-57.26,1710735545453125
-67.05,1710735545468750
-75.35,1710735545484375
-80.2,1710735545500000
-79.92,1710735545515625
-73.65,1710735545531250
-61.71,1710735545546875
-45.57,1710735545562500
-27.44,1710735545578125
-9.5,1710735545593750
6.64,1710735545609375
20.19,1710735545625000
31.01,1710735545640625
39.23,1710735545656250
44.9,1710735545671875
47.95,1710735545687500
48.37,1710735545703125
46.48,1710735545718750
43.09,1710735545734375
39.38,1710735545750000
36.44,1710735545765625
35.02,1710735545781250
35.21,1710735545796875
36.52,1710735545812500
38.07,1710735545828125
39.01,1710735545843750
38.76,1710735545859375
37.19,1710735545875000
34.59,1710735545890625
31.37,1710735545906250
27.86,1710735545921875
24.14,1710735545937500
20.02,1710735545953125
15.15,1710735545968750
9.32,1710735545984375
2.6,1710735546000000
-4.57,1710735546015625
-11.52,1710735546031250
-17.6,1710735546046875
-22.52,1710735546062500
-26.45,1710735546078125
-30.0,1710735546093750
-34.0,1710735546109375
-39.18,1710735546125000
-45.99,1710735546140625
-54.41,1710735546156250
-63.87,1710735546171875
-73.32,1710735546187500
-81.26,1710735546203125
-86.01,1710735546218750
-86.09,1710735546234375
-80.6,1710735546250000
-69.61,1710735546265625
-54.23,1710735546281250
-36.32,1710735546296875
-17.97,1710735546312500
-0.96,1710735546328125
13.64,1710735546343750
25.39,1710735546359375
34.34,1710735546375000
40.64,1710735546390625
44.48,1710735546406250
46.04,1710735546421875
45.68,1710735546437500
44.01,1710735546453125
41.8,1710735546468750
39.86,1710735546484375
38.67,1710735546500000
38.33,1710735546515625
38.56,1710735546531250
38.82,1710735546546875
38.6,1710735546562500
37.63,1710735546578125
35.92,1710735546593750
33.63,1710735546609375
30.99,1710735546625000
28.1,1710735546640625
24.91,1710735546656250
21.25,1710735546671875
16.92,1710735546687500
11.82,1710735546703125
6.03,1710735546718750
-0.22,1710735546734375
-6.61,1710735546750000
-12.83,1710735546765625
-18.68,1710735546781250
-24.07,1710735546796875
-29.06,1710735546812500
-33.79,1710735546828125
-38.52,1710735546843750
-43.6,1710735546859375
-49.52,1710735546875000
-56.8,1710735546890625
-65.66,1710735546906250
-75.82,1710735546921875
-86.13,1710735546937500
-94.71,1710735546953125
-99.24,1710735546968750
-97.79,1710735546984375
-89.46,1710735547000000
-74.76,1710735547015625
-55.54,1710735547031250
-34.38,1710735547046875
-13.88,1710735547062500
4.07,1710735547078125
18.56,1710735547093750
29.55,1710735547109375
37.52,1710735547125000
43.09,1710735547140625
46.75,1710735547156250
48.8,1710735547171875
49.49,1710735547187500
49.11,1710735547203125
48.08,1710735547218750
46.9,1710735547234375
46.03,1710735547250000
45.71,1710735547265625
45.95,1710735547281250
46.5,1710735547296875
46.93,1710735547312500
46.87,1710735547328125
45.98,1710735547343750
44.14,1710735547359375
41.37,1710735547375000
37.8,1710735547390625
33.6,1710735547406250
29.01,1710735547421875
24.19,1710735547437500
19.21,1710735547453125
14.07,1710735547468750
8.62,1710735547484375
2.73,1710735547500000
-3.63,1710735547515625
-10.31,1710735547531250
-16.96,1710735547546875
-23.22,1710735547562500
-28.82,1710735547578125
-33.78,1710735547593750
-38.41,1710735547609375
-43.25,1710735547625000
-48.89,1710735547640625
-55.82,1710735547656250
-64.11,1710735547671875
-73.23,1710735547687500
-81.93,1710735547703125
-88.3,1710735547718750
-90.3,1710735547734375
-86.32,1710735547750000
-75.87,1710735547765625
-59.89,1710735547781250
-40.54,1710735547796875
-20.43,1710735547812500
-1.86,1710735547828125
13.86,1710735547843750
26.46,1710735547859375
36.3,1710735547875000
43.88,1710735547890625
49.41,1710735547906250
52.9,1710735547921875
54.36,1710735547937500
54.06,1710735547953125
52.66,1710735547968750
50.92,1710735547984375
49.52,1710735548000000
48.73,1710735548015625
48.42,1710735548031250
48.21,1710735548046875
47.72,1710735548062500
46.69,1710735548078125
45.1,1710735548093750
43.06,1710735548109375
40.68,1710735548125000
37.96,1710735548140625
34.76,1710735548156250
30.91,1710735548171875
26.35,1710735548187500
21.18,1710735548203125
15.68,1710735548218750
10.18,1710735548234375
4.92,1710735548250000
-0.03,1710735548265625
-4.68,1710735548281250
-9.09,1710735548296875
-13.25,1710735548312500
-17.2,1710735548328125
-21.12,1710735548343750
-25.35,1710735548359375
-30.35,1710735548375000
-36.58,1710735548390625
-44.23,1710735548406250
-53.06,1710735548421875
-62.29,1710735548437500
-70.57,1710735548453125
-76.16,1710735548468750
-77.36,1710735548484375
-72.91,1710735548500000
-62.61,1710735548515625
-47.49,1710735548531250
-29.61,1710735548546875
-11.47,1710735548562500
4.78,1710735548578125
17.96,1710735548593750
27.85,1710735548609375
34.97,1710735548625000
39.97,1710735548640625
43.23,1710735548656250
44.84,1710735548671875
44.86,1710735548687500
43.48,1710735548703125
41.26,1710735548718750
38.91,1710735548734375
37.08,1710735548750000
36.06,1710735548765625
35.72,1710735548781250
35.65,1710735548796875
35.38,1710735548812500
34.59,1710735548828125
33.24,1710735548843750
31.47,1710735548859375
29.48,1710735548875000
27.32,1710735548890625
24.84,1710735548906250
21.71,1710735548921875
17.59,1710735548937500
12.34,1710735548953125
6.12,1710735548968750
-0.56,1710735548984375
-7.06,1710735549000000
-12.83,1710735549015625
-17.63,1710735549031250
-21.65,1710735549046875
-25.39,1710735549062500
-29.53,1710735549078125
-34.74,1710735549093750
-41.46,1710735549109375
-49.78,1710735549125000
-59.27,1710735549140625
-68.87,1710735549156250
-76.9,1710735549171875
-81.32,1710735549187500
-80.31,1710735549203125
-72.93,1710735549218750
-59.56,1710735549234375
-41.93,1710735549250000
-22.59,1710735549265625
-4.11,1710735549281250
11.74,1710735549296875
24.22,1710735549312500
33.5,1710735549328125
40.18,1710735549343750
44.73,1710735549359375
47.31,1710735549375000
47.86,1710735549390625
46.48,1710735549406250
43.67,1710735549421875
40.36,1710735549437500
37.59,1710735549453125
36.15,1710735549468750
36.22,1710735549484375
37.27,1710735549500000
38.36,1710735549515625
38.52,1710735549531250
37.21,1710735549546875
34.43,1710735549562500
30.71,1710735549578125
26.76,1710735549593750
23.11,1710735549609375
19.87,1710735549625000
16.71,1710735549640625
13.09,1710735549656250
8.46,1710735549671875
2.65,1710735549687500
-4.16,1710735549703125
-11.33,1710735549718750
-18.08,1710735549734375
-23.78,1710735549750000
-28.12,1710735549765625
-31.33,1710735549781250
-34.06,1710735549796875
-37.26,1710735549812500
-41.88,1710735549828125
-48.67,1710735549843750
-57.81,1710735549859375
-68.76,1710735549875000
-80.13,1710735549890625
-89.84,1710735549906250
-95.58,1710735549921875
-95.35,1710735549937500
-88.18,1710735549953125
-74.41,1710735549968750
-55.73,1710735549984375
-34.66,1710735550000000
-13.84,1710735550015625
4.66,1710735550031250
19.7,1710735550046875
31.12,1710735550062500
39.33,1710735550078125
45.02,1710735550093750
48.8,1710735550109375
51.09,1710735550125000
52.22,1710735550140625
52.47,1710735550156250
52.11,1710735550171875
51.48,1710735550187500
50.74,1710735550203125
49.97,1710735550218750
49.09,1710735550234375
47.99,1710735550250000
46.62,1710735550265625
45.01,1710735550281250
43.27,1710735550296875
41.45,1710735550312500
39.59,1710735550328125
37.53,1710735550343750
35.09,1710735550359375
31.95,1710735550375000
27.86,1710735550390625
22.65,1710735550406250
16.38,1710735550421875
9.4,1710735550437500
2.21,1710735550453125
-4.61,1710735550468750
-10.71,1710735550484375
-15.94,1710735550500000
-20.45,1710735550515625
-24.49,1710735550531250
-28.37,1710735550546875
-32.41,1710735550562500
-36.96,1710735550578125
-42.47,1710735550593750
-49.41,1710735550609375
-58.03,1710735550625000
-68.07,1710735550640625
-78.57,1710735550656250
-87.86,1710735550671875
-93.83,1710735550687500
-94.47,1710735550703125
-88.45,1710735550718750
-75.72,1710735550734375
-57.6,1710735550750000
-36.63,1710735550765625
-15.74,1710735550781250
2.55,1710735550796875
16.93,1710735550812500
27.41,1710735550828125
34.99,1710735550843750
40.89,1710735550859375
45.91,1710735550875000
50.18,1710735550890625
53.34,1710735550906250
54.99,1710735550921875
55.06,1710735550937500
53.89,1710735550953125
52.05,1710735550968750
50.07,1710735550984375
48.26,1710735551000000
46.65,1710735551015625
45.17,1710735551031250
43.66,1710735551046875
42.02,1710735551062500
40.18,1710735551078125
38.07,1710735551093750
35.64,1710735551109375
32.86,1710735551125000
29.69,1710735551140625
26.1,1710735551156250
22.06,1710735551171875
17.61,1710735551187500
12.82,1710735551203125
7.77,1710735551218750
2.57,1710735551234375
-2.7,1710735551250000
-7.94,1710735551265625
-13.06,1710735551281250
-17.97,1710735551296875
-22.58,1710735551312500
-26.93,1710735551328125
-31.17,1710735551343750
-35.64,1710735551359375
-40.79,1710735551375000
-47.06,1710735551390625
-54.6,1710735551406250
-63.12,1710735551421875
-71.63,1710735551437500
-78.51,1710735551453125
-81.9,1710735551468750
-80.13,1710735551484375
-72.41,1710735551500000
-59.08,1710735551515625
-41.62,1710735551531250
-22.25,1710735551546875
-3.26,1710735551562500
13.53,1710735551578125
27.05,1710735551593750
36.99,1710735551609375
43.64,1710735551625000
47.47,1710735551640625
49.04,1710735551656250
48.84,1710735551671875
47.38,1710735551687500
45.15,1710735551703125
42.66,1710735551718750
40.43,1710735551734375
38.74,1710735551750000
37.71,1710735551765625
37.15,1710735551781250
36.71,1710735551796875
35.99,1710735551812500
34.77,1710735551828125
33.02,1710735551843750
30.88,1710735551859375
28.58,1710735551875000
26.15,1710735551890625
23.46,1710735551906250
20.13,1710735551921875
15.82,1710735551937500
10.37,1710735551953125
3.93,1710735551968750
-3.0,1710735551984375
-9.77,1710735552000000
-15.76,1710735552015625
-20.64,1710735552031250
-24.44,1710735552046875
-27.66,1710735552062500
-31.02,1710735552078125
-35.29,1710735552093750
-41.11,1710735552109375
-48.69,1710735552125000
-57.71,1710735552140625
-67.17,1710735552156250
-75.5,1710735552171875
-80.74,1710735552187500
-81.07,1710735552203125
-75.31,1710735552218750
-63.42,1710735552234375
-46.71,1710735552250000
-27.47,1710735552265625
-8.39,1710735552281250
8.3,1710735552296875
21.37,1710735552312500
30.77,1710735552328125
37.29,1710735552343750
41.93,1710735552359375
45.31,1710735552375000
47.54,1710735552390625
48.36,1710735552406250
47.55,1710735552421875
45.31,1710735552437500
42.24,1710735552453125
39.15,1710735552468750
36.67,1710735552484375
35.01,1710735552500000
33.92,1710735552515625
32.94,1710735552531250
31.65,1710735552546875
29.87,1710735552562500
27.7,1710735552578125
25.36,1710735552593750
23.03,1710735552609375
20.64,1710735552625000
17.89,1710735552640625
14.35,1710735552656250
9.66,1710735552671875
3.72,1710735552687500
-3.27,1710735552703125
-10.68,1710735552718750
-17.74,1710735552734375
-23.72,1710735552750000
-28.22,1710735552765625
-31.3,1710735552781250
-33.59,1710735552796875
-36.06,1710735552812500
-39.85,1710735552828125
-45.87,1710735552843750
-54.48,1710735552859375
-65.23,1710735552875000
-76.89,1710735552890625
-87.55,1710735552906250
-95.02,1710735552921875
-97.29,1710735552937500
-93.08,1710735552953125
-82.12,1710735552968750
-65.39,1710735552984375
-44.87,1710735553000000
-23.23,1710735553015625
-3.04,1710735553031250
13.8,1710735553046875
26.49,1710735553062500
35.26,1710735553078125
41.05,1710735553093750
44.92,1710735553109375
47.53,1710735553125000
49.15,1710735553140625
49.72,1710735553156250
49.27,1710735553171875
48.15,1710735553187500
46.87,1710735553203125
45.9,1710735553218750
45.42,1710735553234375
45.15,1710735553250000
44.6,1710735553265625
43.25,1710735553281250
40.92,1710735553296875
37.83,1710735553312500
34.43,1710735553328125
31.19,1710735553343750
28.33,1710735553359375
25.63,1710735553375000
22.59,1710735553390625
18.57,1710735553406250
13.24,1710735553421875
6.64,1710735553437500
-0.73,1710735553453125
-8.09,1710735553468750
-14.77,1710735553484375
-20.46,1710735553500000
-25.31,1710735553515625
-29.82,1710735553531250
-34.56,1710735553546875
-39.97,1710735553562500
-46.32,1710735553578125
-53.71,1710735553593750
-62.12,1710735553609375
-71.34,1710735553625000
-80.73,1710735553640625
-88.99,1710735553656250
-94.28,1710735553671875
-94.56,1710735553687500
-88.33,1710735553703125
-75.26,1710735553718750
-56.53,1710735553734375
-34.55,1710735553750000
-12.28,1710735553765625
7.64,1710735553781250
23.58,1710735553796875
35.1,1710735553812500
42.72,1710735553828125
47.38,1710735553843750
49.99,1710735553859375
51.1,1710735553875000
51.02,1710735553890625
49.94,1710735553906250
48.21,1710735553921875
46.37,1710735553937500
44.91,1710735553953125
44.17,1710735553968750
44.06,1710735553984375
44.13,1710735554000000
43.81,1710735554015625
42.7,1710735554031250
40.77,1710735554046875
38.32,1710735554062500
35.73,1710735554078125
33.24,1710735554093750
30.76,1710735554109375
27.88,1710735554125000
24.08,1710735554140625
18.93,1710735554156250
12.36,1710735554171875
4.68,1710735554187500
-3.44,1710735554203125
-11.19,1710735554218750
-17.84,1710735554234375
-23.03,1710735554250000
-26.89,1710735554265625
-30.03,1710735554281250
-33.36,1710735554296875
-37.8,1710735554312500
-44.03,1710735554328125
-52.19,1710735554343750
-61.79,1710735554359375
-71.61,1710735554375000
-79.8,1710735554390625
-84.2,1710735554406250
-82.92,1710735554421875
-74.97,1710735554437500
-60.72,1710735554453125
-41.92,1710735554468750
-21.2,1710735554484375
-1.26,1710735554500000
15.87,1710735554515625
29.22,1710735554531250
38.75,1710735554546875
44.97,1710735554562500
48.45,1710735554578125
49.65,1710735554593750
48.88,1710735554609375
46.6,1710735554625000
43.44,1710735554640625
40.26,1710735554656250
37.85,1710735554671875
36.72,1710735554687500
36.82,1710735554703125
37.63,1710735554718750
38.35,1710735554734375
38.22,1710735554750000
36.85,1710735554765625
34.34,1710735554781250
31.25,1710735554796875
28.15,1710735554812500
25.33,1710735554828125
22.56,1710735554843750
19.17,1710735554859375
14.48,1710735554875000
8.14,1710735554890625
0.49,1710735554906250
-7.55,1710735554921875
-14.9,1710735554937500
-20.79,1710735554953125
-25.09,1710735554968750
-28.36,1710735554984375
-31.65,1710735555000000
-36.03,1710735555015625
-42.31,1710735555031250
-50.69,1710735555046875
-60.63,1710735555062500
-70.74,1710735555078125
-79.07,1710735555093750
-83.42,1710735555109375
-82.0,1710735555125000
-74.06,1710735555140625
-60.11,1710735555156250
-41.91,1710735555171875
-21.87,1710735555187500
-2.41,1710735555203125
14.65,1710735555218750
28.39,1710735555234375
38.6,1710735555250000
45.51,1710735555265625
49.42,1710735555281250
50.64,1710735555296875
49.5,1710735555312500
46.57,1710735555328125
42.74,1710735555343750
39.04,1710735555359375
36.44,1710735555375000
35.4,1710735555390625
35.76,1710735555406250
36.75,1710735555421875
37.38,1710735555437500
36.88,1710735555453125
35.03,1710735555468750
32.2,1710735555484375
29.03,1710735555500000
26.06,1710735555515625
23.4,1710735555531250
20.67,1710735555546875
17.14,1710735555562500
12.22,1710735555578125
5.64,1710735555593750
-2.24,1710735555609375
-10.64,1710735555625000
-18.58,1710735555640625
-25.28,1710735555656250
-30.52,1710735555671875
-34.72,1710735555687500
-38.81,1710735555703125
-43.87,1710735555718750
-50.74,1710735555734375
-59.65,1710735555750000
-69.99,1710735555765625
-80.4,1710735555781250
-88.96,1710735555796875
-93.66,1710735555812500
-92.78,1710735555828125
-85.45,1710735555843750
-71.86,1710735555859375
-53.39,1710735555875000
-32.27,1710735555890625
-11.03,1710735555906250
8.17,1710735555921875
24.02,1710735555937500
36.17,1710735555953125
44.96,1710735555968750
50.93,1710735555984375
54.54,1710735556000000
56.02,1710735556015625
55.62,1710735556031250
53.82,1710735556046875
51.4,1710735556062500
49.28,1710735556078125
48.13,1710735556093750
48.07,1710735556109375
48.65,1710735556125000
49.02,1710735556140625
48.42,1710735556156250
46.43,1710735556171875
43.21,1710735556187500
39.29,1710735556203125
35.23,1710735556218750
31.39,1710735556234375
27.69,1710735556250000
23.72,1710735556265625
19.02,1710735556281250
13.29,1710735556296875
6.58,1710735556312500
-0.71,1710735556328125
-8.0,1710735556343750
-14.68,1710735556359375
-20.38,1710735556375000
-25.08,1710735556390625
-29.15,1710735556406250
-33.19,1710735556421875
-37.94,1710735556437500
-44.1,1710735556453125
-52.05,1710735556468750
-61.72,1710735556484375
-72.44,1710735556500000
-82.86,1710735556515625
-91.08,1710735556531250
-95.0,1710735556546875
-92.9,1710735556562500
-84.01,1710735556578125
-68.9,1710735556593750
-49.42,1710735556609375
-28.23,1710735556625000
-7.96,1710735556640625
9.53,1710735556656250
23.54,1710735556671875
34.3,1710735556687500
42.5,1710735556703125
48.73,1710735556718750
53.22,1710735556734375
55.91,1710735556750000
56.75,1710735556765625
56.05,1710735556781250
54.48,1710735556796875
52.87,1710735556812500
51.89,1710735556828125
51.72,1710735556843750
52.1,1710735556859375
52.4,1710735556875000
51.93,1710735556890625
50.28,1710735556906250
47.46,1710735556921875
43.84,1710735556937500
39.97,1710735556953125
36.22,1710735556968750
32.63,1710735556984375
28.85,1710735557000000
24.39,1710735557015625
18.88,1710735557031250
12.33,1710735557046875
5.15,1710735557062500
-2.04,1710735557078125
-8.66,1710735557093750
-14.46,1710735557109375
-19.5,1710735557125000
-24.16,1710735557140625
-28.86,1710735557156250
-33.99,1710735557171875
-39.85,1710735557187500
-46.72,1710735557203125
-54.71,1710735557218750
-63.63,1710735557234375
-72.75,1710735557250000
-80.63,1710735557265625
-85.34,1710735557281250
-84.99,1710735557296875
-78.36,1710735557312500
-65.55,1710735557328125
-47.98,1710735557343750
-28.07,1710735557359375
-8.38,1710735557375000
9.03,1710735557390625
23.15,1710735557406250
33.9,1710735557421875
41.73,1710735557437500
47.14,1710735557453125
50.44,1710735557468750
51.79,1710735557484375
51.32,1710735557500000
49.45,1710735557515625
46.8,1710735557531250
44.13,1710735557546875
42.03,1710735557562500
40.78,1710735557578125
40.31,1710735557593750
40.26,1710735557609375
40.15,1710735557625000
39.56,1710735557640625
38.29,1710735557656250
36.38,1710735557671875
34.04,1710735557687500
31.49,1710735557703125
28.77,1710735557718750
25.68,1710735557734375
21.82,1710735557750000
16.9,1710735557765625
10.91,1710735557781250
4.34,1710735557796875
-2.07,1710735557812500
-7.56,1710735557828125
-11.76,1710735557843750
-14.9,1710735557859375
-17.75,1710735557875000
-21.39,1710735557890625
-26.78,1710735557906250
-34.45,1710735557921875
-44.16,1710735557937500
-54.88,1710735557953125
-64.79,1710735557968750
-71.73,1710735557984375
-73.72,1710735558000000
-69.62,1710735558015625
-59.52,1710735558031250
-44.81,1710735558046875
-27.68,1710735558062500
-10.4,1710735558078125
5.3,1710735558093750
18.55,1710735558109375
29.17,1710735558125000
37.27,1710735558140625
42.94,1710735558156250
46.07,1710735558171875
46.69,1710735558187500
45.05,1710735558203125
41.94,1710735558218750
38.38,1710735558234375
35.35,1710735558250000
33.47,1710735558265625
32.76,1710735558281250
32.82,1710735558296875
32.98,1710735558312500
32.74,1710735558328125
31.84,1710735558343750
30.4,1710735558359375
28.67,1710735558375000
26.85,1710735558390625
24.92,1710735558406250
22.51,1710735558421875
19.17,1710735558437500
14.44,1710735558453125
8.22,1710735558468750
0.82,1710735558484375
-7.08,1710735558500000
-14.61,1710735558515625
-21.01,1710735558531250
-25.89,1710735558546875
-29.45,1710735558562500
-32.37,1710735558578125
-35.68,1710735558593750
-40.46,1710735558609375
-47.38,1710735558625000
-56.35,1710735558640625
-66.37,1710735558656250
-75.56,1710735558671875
-81.61,1710735558687500
-82.49,1710735558703125
-76.99,1710735558718750
-65.25,1710735558734375
-48.71,1710735558750000
-29.69,1710735558765625
-10.66,1710735558781250
6.31,1710735558796875
20.09,1710735558812500
30.42,1710735558828125
37.64,1710735558843750
42.26,1710735558859375
44.67,1710735558875000
45.12,1710735558890625
43.84,1710735558906250
41.33,1710735558921875
38.4,1710735558937500
35.98,1710735558953125
34.81,1710735558968750
35.13,1710735558984375
36.49,1710735559000000
37.95,1710735559015625
38.5,1710735559031250
37.49,1710735559046875
34.86,1710735559062500
31.18,1710735559078125
27.24,1710735559093750
23.71,1710735559109375
20.78,1710735559125000
18.09,1710735559140625
14.93,1710735559156250
10.59,1710735559171875
4.71,1710735559187500
-2.5,1710735559203125
-10.35,1710735559218750
-17.89,1710735559234375
-24.36,1710735559250000
-29.45,1710735559265625
-33.4,1710735559281250
-36.86,1710735559296875
-40.68,1710735559312500
-45.59,1710735559328125
-52.04,1710735559343750
-60.05,1710735559359375
-69.15,1710735559375000
-78.25,1710735559390625
-85.72,1710735559406250
-89.58,1710735559421875
-88.0,1710735559437500
-79.94,1710735559453125
-65.61,1710735559468750
-46.63,1710735559484375
-25.55,1710735559500000
-5.17,1710735559515625
12.32,1710735559531250
25.79,1710735559546875
35.25,1710735559562500
41.44,1710735559578125
45.37,1710735559593750
47.89,1710735559609375
49.46,1710735559625000
50.25,1710735559640625
50.33,1710735559656250
49.75,1710735559671875
48.72,1710735559687500
47.52,1710735559703125
46.42,1710735559718750
45.55,1710735559734375
44.86,1710735559750000
44.19,1710735559765625
43.23,1710735559781250
41.81,1710735559796875
39.81,1710735559812500
37.27,1710735559828125
34.3,1710735559843750
30.91,1710735559859375
27.09,1710735559875000
22.69,1710735559890625
17.63,1710735559906250
11.91,1710735559921875
5.67,1710735559937500
-0.81,1710735559953125
-7.2,1710735559968750
-13.21,1710735559984375
-18.66,1710735560000000
-23.49,1710735560015625
-27.75,1710735560031250
-31.71,1710735560046875
-35.8,1710735560062500
-40.65,1710735560078125
-46.88,1710735560093750
-54.9,1710735560109375
-64.54,1710735560125000
-74.81,1710735560140625
-83.97,1710735560156250
-89.82,1710735560171875
-90.35,1710735560187500
-84.37,1710735560203125
-71.99,1710735560218750
-54.67,1710735560234375
-34.79,1710735560250000
-14.98,1710735560265625
2.69,1710735560281250
17.06,1710735560296875
28.01,1710735560312500
36.03,1710735560328125
41.77,1710735560343750
45.61,1710735560359375
47.68,1710735560375000
47.98,1710735560390625
46.81,1710735560406250
44.77,1710735560421875
42.73,1710735560437500
41.44,1710735560453125
41.23,1710735560468750
41.81,1710735560484375
42.46,1710735560500000
42.36,1710735560515625
41.02,1710735560531250
38.49,1710735560546875
35.26,1710735560562500
32.01,1710735560578125
29.23,1710735560593750
26.94,1710735560609375
24.74,1710735560625000
21.95,1710735560640625
17.99,1710735560656250
12.65,1710735560671875
6.22,1710735560687500
-0.61,1710735560703125
-7.07,1710735560718750
-12.58,1710735560734375
-17.01,1710735560750000
-20.7,1710735560765625
-24.3,1710735560781250
-28.53,1710735560796875
-33.93,1710735560812500
-40.78,1710735560828125
-48.89,1710735560843750
-57.68,1710735560859375
-66.06,1710735560875000
-72.58,1710735560890625
-75.63,1710735560906250
-73.82,1710735560921875
-66.49,1710735560937500
-54.01,1710735560953125
-37.75,1710735560968750
-19.82,1710735560984375
-2.43,1710735561000000
12.72,1710735561015625
24.76,1710735561031250
33.62,1710735561046875
39.68,1710735561062500
43.39,1710735561078125
45.0,1710735561093750
44.66,1710735561109375
42.67,1710735561125000
39.67,1710735561140625
36.63,1710735561156250
34.5,1710735561171875
33.85,1710735561187500
34.57,1710735561203125
35.93,1710735561218750
36.94,1710735561234375
36.78,1710735561250000
35.17,1710735561265625
32.35,1710735561281250
28.84,1710735561296875
25.15,1710735561312500
21.47,1710735561328125
17.67,1710735561343750
13.51,1710735561359375
8.73,1710735561375000
3.26,1710735561390625
-2.72,1710735561406250
-8.91,1710735561421875
-14.93,1710735561437500
-20.48,1710735561453125
-25.41,1710735561468750
-29.87,1710735561484375
-34.22,1710735561500000
-38.97,1710735561515625
-44.67,1710735561531250
-51.65,1710735561546875
-59.96,1710735561562500
-69.1,1710735561578125
-78.01,1710735561593750
-85.12,1710735561609375
-88.59,1710735561625000
-86.82,1710735561640625
-78.96,1710735561656250
-65.33,1710735561671875
-47.42,1710735561687500
-27.53,1710735561703125
-8.04,1710735561718750
9.23,1710735561734375
23.36,1710735561750000
34.23,1710735561765625
42.17,1710735561781250
47.53,1710735561796875
50.52,1710735561812500
51.35,1710735561828125
50.32,1710735561843750
48.07,1710735561859375
45.42,1710735561875000
43.13,1710735561890625
41.71,1710735561906250
41.23,1710735561921875
41.38,1710735561937500
41.58,1710735561953125
41.29,1710735561968750
40.07,1710735561984375
37.87,1710735562000000
34.84,1710735562015625
31.31,1710735562031250
27.57,1710735562046875
23.72,1710735562062500
19.61,1710735562078125
14.97,1710735562093750
9.58,1710735562109375
3.38,1710735562125000
-3.43,1710735562140625
-10.47,1710735562156250
-17.3,1710735562171875
-23.57,1710735562187500
-29.15,1710735562203125
-34.15,1710735562218750
-38.98,1710735562234375
-44.19,1710735562250000
-50.42,1710735562265625
-58.12,1710735562281250
-67.29,1710735562296875
-77.35,1710735562312500
-86.97,1710735562328125
-94.31,1710735562343750
-97.39,1710735562359375
-94.66,1710735562375000
-85.5,1710735562390625
-70.56,1710735562406250
-51.63,1710735562421875
-31.12,1710735562437500
-11.4,1710735562453125
5.96,1710735562468750
20.41,1710735562484375
32.21,1710735562500000
41.88,1710735562515625
49.73,1710735562531250
55.57,1710735562546875
59.04,1710735562562500
59.95,1710735562578125
58.7,1710735562593750
56.23,1710735562609375
53.65,1710735562625000
51.81,1710735562640625
50.98,1710735562656250
50.81,1710735562671875
50.65,1710735562687500
49.86,1710735562703125
48.14,1710735562718750
45.57,1710735562734375
42.46,1710735562750000
39.14,1710735562765625
35.73,1710735562781250
32.09,1710735562796875
27.92,1710735562812500
22.9,1710735562828125
16.93,1710735562843750
10.25,1710735562859375
3.3,1710735562875000
-3.42,1710735562890625
-9.6,1710735562906250
-15.24,1710735562921875
-20.55,1710735562937500
-25.8,1710735562953125
-31.22,1710735562968750
-36.97,1710735562984375
-43.25,1710735563000000
-50.35,1710735563015625
-58.57,1710735563031250
-67.96,1710735563046875
-77.95,1710735563062500
-87.23,1710735563078125
-93.82,1710735563093750
-95.61,1710735563109375
-91.03,1710735563125000
-79.68,1710735563140625
-62.62,1710735563156250
-42.07,1710735563171875
-20.78,1710735563187500
-1.11,1710735563203125
15.54,1710735563218750
28.89,1710735563234375
39.38,1710735563250000
47.57,1710735563265625
53.72,1710735563281250
57.7,1710735563296875
59.34,1710735563312500
58.73,1710735563328125
56.57,1710735563343750
53.89,1710735563359375
51.74,1710735563375000
50.72,1710735563390625
50.8,1710735563406250
51.41,1710735563421875
51.81,1710735563437500
51.37,1710735563453125
49.85,1710735563468750
47.39,1710735563484375
44.38,1710735563500000
41.15,1710735563515625
37.86,1710735563531250
34.33,1710735563546875
30.2,1710735563562500
25.1,1710735563578125
18.94,1710735563593750
11.94,1710735563609375
4.62,1710735563625000
-2.41,1710735563640625
-8.66,1710735563656250
-13.99,1710735563671875
-18.58,1710735563687500
-22.89,1710735563703125
-27.46,1710735563718750
-32.85,1710735563734375
-39.52,1710735563750000
-47.71,1710735563765625
-57.22,1710735563781250
-67.25,1710735563796875
-76.27,1710735563812500
-82.31,1710735563828125
-83.4,1710735563843750
-78.39,1710735563859375
-67.25,1710735563875000
-51.27,1710735563890625
-32.63,1710735563906250
-13.73,1710735563921875
3.51,1710735563937500
17.96,1710735563953125
29.33,1710735563968750
37.81,1710735563984375
43.7,1710735564000000
47.23,1710735564015625
48.56,1710735564031250
48.02,1710735564046875
46.15,1710735564062500
43.76,1710735564078125
41.63,1710735564093750
40.33,1710735564109375
39.95,1710735564125000
40.16,1710735564140625
40.43,1710735564156250
40.2,1710735564171875
39.26,1710735564187500
37.67,1710735564203125
35.7,1710735564218750
33.58,1710735564234375
31.27,1710735564250000
28.49,1710735564265625
24.79,1710735564281250
19.83,1710735564296875
13.49,1710735564312500
6.07,1710735564328125
-1.78,1710735564343750
-9.25,1710735564359375
-15.66,1710735564375000
-20.71,1710735564390625
-24.68,1710735564406250
-28.39,1710735564421875
-32.93,1710735564437500
-39.24,1710735564453125
-47.66,1710735564468750
-57.66,1710735564484375
-67.78,1710735564500000
-75.94,1710735564515625
-79.95,1710735564531250
-78.23,1710735564546875
-70.27,1710735564562500
-56.82,1710735564578125
-39.68,1710735564593750
-21.07,1710735564609375
-3.12,1710735564625000
12.69,1710735564640625
25.6,1710735564656250
35.39,1710735564671875
42.11,1710735564687500
45.87,1710735564703125
46.92,1710735564718750
45.76,1710735564734375
43.23,1710735564750000
40.32,1710735564765625
37.94,1710735564781250
36.52,1710735564796875
35.99,1710735564812500
35.89,1710735564828125
35.62,1710735564843750
34.85,1710735564859375
33.48,1710735564875000
31.72,1710735564890625
29.81,1710735564906250
27.82,1710735564921875
25.64,1710735564937500
22.92,1710735564953125
19.29,1710735564968750
14.43,1710735564984375
8.25,1710735565000000
0.97,1710735565015625
-6.95,1710735565031250
-14.82,1710735565046875
-21.98,1710735565062500
-28.05,1710735565078125
-33.02,1710735565093750
-37.41,1710735565109375
-42.16,1710735565125000
-48.27,1710735565140625
-56.41,1710735565156250
-66.33,1710735565171875
-76.7,1710735565187500
-85.25,1710735565203125
-89.39,1710735565218750
-87.13,1710735565234375
-77.79,1710735565250000
-62.32,1710735565265625
-42.9,1710735565281250
-22.23,1710735565296875
-2.7,1710735565312500
14.13,1710735565328125
27.58,1710735565343750
37.6,1710735565359375
44.42,1710735565375000
48.36,1710735565390625
49.81,1710735565406250
49.29,1710735565421875
47.53,1710735565437500
45.34,1710735565453125
43.46,1710735565468750
42.3,1710735565484375
41.82,1710735565500000
41.61,1710735565515625
41.03,1710735565531250
39.6,1710735565546875
37.2,1710735565562500
34.1,1710735565578125
30.87,1710735565593750
28.06,1710735565609375
25.8,1710735565625000
23.73,1710735565640625
21.04,1710735565656250
16.93,1710735565671875
10.98,1710735565687500
3.44,1710735565703125
-4.84,1710735565718750
-12.87,1710735565734375
-19.87,1710735565750000
-25.66,1710735565765625
-30.58,1710735565781250
-35.4,1710735565796875
-40.92,1710735565812500
-47.72,1710735565828125
-56.01,1710735565843750
-65.5,1710735565859375
-75.43,1710735565875000
-84.46,1710735565890625
-90.84,1710735565906250
-92.69,1710735565921875
-88.52,1710735565937500
-77.8,1710735565953125
-61.36,1710735565968750
-41.23,1710735565984375
-20.05,1710735566000000
-0.3,1710735566015625
16.39,1710735566031250
29.46,1710735566046875
39.21,1710735566062500
46.26,1710735566078125
51.15,1710735566093750
54.16,1710735566109375
55.45,1710735566125000
55.28,1710735566140625
54.12,1710735566156250
52.58,1710735566171875
51.19,1710735566187500
50.14,1710735566203125
49.33,1710735566218750
48.4,1710735566234375
47.04,1710735566250000
45.08,1710735566265625
42.52,1710735566281250
39.49,1710735566296875
36.15,1710735566312500
32.61,1710735566328125
28.91,1710735566343750
25.05,1710735566359375
20.89,1710735566375000
16.27,1710735566390625
10.97,1710735566406250
4.89,1710735566421875
-1.83,1710735566437500
-8.84,1710735566453125
-15.66,1710735566468750
-21.86,1710735566484375
-27.28,1710735566500000
-32.12,1710735566515625
-36.95,1710735566531250
-42.56,1710735566546875
-49.71,1710735566562500
-58.72,1710735566578125
-69.25,1710735566593750
-80.11,1710735566609375
-89.36,1710735566625000
-94.75,1710735566640625
-94.3,1710735566656250
-86.99,1710735566671875
-73.17,1710735566687500
-54.48,1710735566703125
-33.45,1710735566718750
-12.74,1710735566734375
5.58,1710735566750000
20.43,1710735566765625
31.71,1710735566781250
40.01,1710735566796875
46.1,1710735566812500
50.56,1710735566828125
53.64,1710735566843750
55.36,1710735566859375
55.77,1710735566875000
55.11,1710735566890625
53.89,1710735566906250
52.67,1710735566921875
51.86,1710735566937500
51.51,1710735566953125
51.32,1710735566968750
50.75,1710735566984375
49.29,1710735567000000
46.75,1710735567015625
43.3,1710735567031250
39.39,1710735567046875
35.49,1710735567062500
31.88,1710735567078125
28.48,1710735567093750
24.87,1710735567109375
20.52,1710735567125000
15.01,1710735567140625
8.35,1710735567156250
0.92,1710735567171875
-6.56,1710735567187500
-13.4,1710735567203125
-19.17,1710735567218750
-23.95,1710735567234375
-28.21,1710735567250000
-32.64,1710735567265625
-37.96,1710735567281250
-44.67,1710735567296875
-52.95,1710735567312500
-62.56,1710735567328125
-72.78,1710735567343750
-82.37,1710735567359375
-89.65,1710735567375000
-92.78,1710735567390625
-90.25,1710735567406250
-81.35,1710735567421875
-66.57,1710735567437500
-47.57,1710735567453125
-26.74,1710735567468750
-6.54,1710735567484375
11.16,1710735567500000
25.39,1710735567515625
36.11,1710735567531250
43.81,1710735567546875
49.09,1710735567562500
52.41,1710735567578125
54.06,1710735567593750
54.25,1710735567609375
53.32,1710735567625000
51.79,1710735567640625
50.22,1710735567656250
49.05,1710735567671875
48.45,1710735567687500
48.26,1710735567703125
48.12,1710735567718750
47.62,1710735567734375
46.45,1710735567750000
44.45,1710735567765625
41.56,1710735567781250
37.91,1710735567796875
33.72,1710735567812500
29.24,1710735567828125
24.73,1710735567843750
20.28,1710735567859375
15.77,1710735567875000
10.9,1710735567890625
5.36,1710735567906250
-0.96,1710735567921875
-7.8,1710735567937500
-14.6,1710735567953125
-20.72,1710735567968750
-25.77,1710735567984375
-29.81,1710735568000000
-33.35,1710735568015625
-37.22,1710735568031250
-42.17,1710735568046875
-48.74,1710735568062500
-56.92,1710735568078125
-66.12,1710735568093750
-75.15,1710735568109375
-82.33,1710735568125000
-85.82,1710735568140625
-84.09,1710735568156250
-76.39,1710735568171875
-63.05,1710735568187500
-45.5,1710735568203125
-25.97,1710735568218750
-6.79,1710735568234375
10.11,1710735568250000
23.71,1710735568265625
33.8,1710735568281250
40.82,1710735568296875
45.41,1710735568312500
48.14,1710735568328125
49.33,1710735568343750
49.23,1710735568359375
48.09,1710735568375000
46.32,1710735568390625
44.44,1710735568406250
42.87,1710735568421875
41.82,1710735568437500
41.1,1710735568453125
40.37,1710735568468750
39.24,1710735568484375
37.52,1710735568500000
35.29,1710735568515625
32.8,1710735568531250
30.29,1710735568546875
27.79,1710735568562500
25.12,1710735568578125
21.91,1710735568593750
17.77,1710735568609375
12.57,1710735568625000
