phoneTimestamp,sensorTimestamp,ecg
1711469731310,599616221906575278,11934
1711469731317,599616221914239546,11918
1711469731325,599616221921903814,11884
1711469731332,599616221929568082,11889
1711469731340,599616221937232350,11797
1711469731348,599616221944896618,11584
1711469731355,599616221952560886,11470
1711469731363,599616221960225154,11454
1711469731371,599616221967889422,11425
1711469731377,599616221975553690,11335
1711469731385,599616221983217958,11129
1711469731393,599616221990882226,10851
1711469731401,599616221998546494,10663
1711469731409,599616222006210762,10763
1711469731417,599616222013875030,11071
1711469731424,599616222021539298,11089
1711469731432,599616222029203566,10750
1711469731440,599616222036867834,10524
1711469731447,599616222044532102,10546
1711469731455,599616222052196370,10497
1711469731463,599616222059860638,10275
1711469731470,599616222067524906,10116
1711469731478,599616222075189174,9979
1711469731486,599616222082853442,9757
1711469731493,599616222090517710,9625
1711469731501,599616222098181978,9584
1711469731509,599616222105846246,9526
1711469731516,599616222113510514,9465
1711469731524,599616222121174782,9355
1711469731532,599616222128839050,9174
1711469731539,599616222136503318,9030
1711469731547,599616222144167586,8965
1711469731555,599616222151831854,8912
1711469731561,599616222159496122,8833
1711469731569,599616222167160390,8725
1711469731577,599616222174824658,8586
1711469731585,599616222182488926,8438
1711469731593,599616222190153194,8340
1711469731601,599616222197817462,8291
1711469731608,599616222205481730,8203
1711469731616,599616222213145998,8073
1711469731624,599616222220810266,7956
1711469731631,599616222228474534,7824
1711469731639,599616222236138802,7719
1711469731647,599616222243803070,7701
1711469731654,599616222251467338,7620
1711469731662,599616222259131606,7409
1711469731670,599616222266795874,7295
1711469731677,599616222274460142,7277
1711469731685,599616222282124410,7087
1711469731693,599616222289788678,6844
1711469731700,599616222297452946,6748
1711469731708,599616222305117214,6596
1711469731716,599616222312781482,6430
1711469731723,599616222320445750,6389
1711469731731,599616222328110018,6268
1711469731739,599616222335774286,6111
1711469731745,599616222343438554,6035
1711469731753,599616222351102822,5880
1711469731761,599616222358767090,5726
1711469731769,599616222366431358,5672
1711469731777,599616222374095626,5578
1711469731785,599616222381759894,5475
1711469731792,599616222389424162,5423
1711469731800,599616222397088430,5340
1711469731808,599616222404752698,5275
1711469731815,599616222412416966,5244
1711469731823,599616222420081234,5165
1711469731831,599616222427745502,5080
1711469731838,599616222435409770,5033
1711469731846,599616222443074038,4966
1711469731854,599616222450738306,4907
1711469731861,599616222458402574,4883
1711469731869,599616222466036762,4829
1711469731877,599616222473701448,4753
1711469731884,599616222481366134,4697
1711469731892,599616222489030820,4627
1711469731900,599616222496695506,4573
1711469731907,599616222504360192,4560
1711469731915,599616222512024878,4522
1711469731923,599616222519689564,4441
1711469731929,599616222527354250,4365
1711469731937,599616222535018936,4313
1711469731945,599616222542683622,4259
1711469731953,599616222550348308,4156
1711469731961,599616222558012994,4035
1711469731969,599616222565677680,3903
1711469731976,599616222573342366,3755
1711469731984,599616222581007052,3681
1711469731992,599616222588671738,3681
1711469731999,599616222596336424,3672
1711469732007,599616222604001110,3661
1711469732015,599616222611665796,3641
1711469732022,599616222619330482,3564
1711469732030,599616222626995168,3490
1711469732038,599616222634659854,3477
1711469732045,599616222642324540,3484
1711469732053,599616222649989226,3477
1711469732061,599616222657653912,3457
1711469732068,599616222665318598,3389
1711469732076,599616222672983284,3315
1711469732084,599616222680647970,3298
1711469732091,599616222688312656,3302
1711469732099,599616222695977342,3293
1711469732107,599616222703642028,3282
1711469732113,599616222711306714,3217
1711469732121,599616222718971400,3116
1711469732129,599616222726636086,3078
1711469732137,599616222734300772,3080
1711469732145,599616222741965458,3071
1711469732153,599616222749630144,3055
1711469732160,599616222757294830,3002
1711469732168,599616222764959516,2919
1711469732176,599616222772624202,2898
1711469732183,599616222780288888,2919
1711469732191,599616222787953574,2845
1711469732199,599616222795618260,2672
1711469732206,599616222803282946,2546
1711469732214,599616222810947632,2490
1711469732222,599616222818612318,2459
1711469732229,599616222826277004,2459
1711469732237,599616222833941690,2472
1711469732245,599616222841606376,2477
1711469732252,599616222849271062,2437
1711469732260,599616222856935748,2293
1711469732268,599616222864600434,2085
1711469732275,599616222872265120,1999
1711469732283,599616222879929806,2217
1711469732291,599616222887594492,2508
1711469732297,599616222895259178,2459
1711469732305,599616222902923864,2242
1711469732313,599616222910588550,2215
1711469732321,599616222918253236,2255
1711469732329,599616222925917922,2228
1711469732337,599616222933582608,2215
1711469732344,599616222941247294,2208
1711469732352,599616222948911980,2145
1711469732360,599616222956576666,2082
1711469732367,599616222964241352,2071
1711469732375,599616222971906038,2073
1711469732382,599616222979570724,2060
1711469732390,599616222987235410,2033
1711469732398,599616222994900096,1995
1711469732405,599616223002564782,1948
1711469732413,599616223010229468,1910
1711469732421,599616223017894154,1898
1711469732428,599616223025558860,1898
1711469732436,599616223033223546,1833
1711469732444,599616223040888232,1694
1711469732451,599616223048552918,1582
1711469732459,599616223056217604,1542
1711469732467,599616223063882290,1506
1711469732473,599616223071546976,1430
1711469732481,599616223079211662,1342
1711469732489,599616223086876348,1298
1711469732497,599616223094541034,1224
1711469732505,599616223102205720,1078
1711469732513,599616223109870406,1002
1711469732520,599616223117535092,1031
1711469732528,599616223125199778,1029
1711469732536,599616223132864464,1004
1711469732543,599616223140529150,993
1711469732551,599616223148193836,941
1711469732559,599616223155858522,894
1711469732566,599616223163523208,872
1711469732574,599616223171187894,818
1711469732582,599616223178852580,793
1711469732589,599616223186517266,822
1711469732597,599616223194181952,811
1711469732605,599616223201846638,775
1711469732612,599616223209511324,782
1711469732620,599616223217176010,786
1711469732628,599616223224840696,769
1711469732635,599616223232505382,784
1711469732643,599616223240170068,802
1711469732651,599616223247834754,780
1711469732657,599616223255499440,769
1711469732665,599616223263164126,775
1711469732673,599616223270828812,775
1711469732681,599616223278493498,764
1711469732689,599616223286158184,677
1711469732697,599616223293822870,531
1711469732704,599616223301487556,464
1711469732712,599616223309152242,486
1711469732720,599616223316816928,506
1711469732727,599616223324481614,538
1711469732735,599616223332146300,589
1711469732743,599616223339810986,609
1711469732750,599616223347475672,594
1711469732758,599616223355140358,591
1711469732766,599616223362805044,616
1711469732773,599616223370469730,659
1711469732781,599616223378134416,699
1711469732789,599616223385799102,715
1711469732796,599616223393463788,708
1711469732804,599616223401128474,697
1711469732812,599616223408793160,710
1711469732819,599616223416457846,744
1711469732827,599616223424122532,773
1711469732835,599616223431787218,795
1711469732841,599616223439451904,791
1711469732849,599616223447116590,762
1711469732857,599616223454781276,760
1711469732865,599616223462445962,795
1711469732873,599616223470110648,825
1711469732881,599616223477775334,840
1711469732888,599616223485440020,836
1711469732896,599616223493104706,795
1711469732904,599616223500769392,777
1711469732911,599616223508434078,809
1711469732919,599616223516098764,838
1711469732927,599616223523763450,831
1711469732934,599616223531428136,766
1711469732942,599616223539092822,663
1711469732950,599616223546757508,634
1711469732957,599616223554422194,672
1711469732965,599616223562086880,690
1711469732973,599616223569751566,697
1711469732980,599616223577416252,717
1711469732988,599616223585080958,688
1711469732996,599616223592745644,647
1711469733003,599616223600410330,677
1711469733011,599616223608075016,726
1711469733019,599616223615739702,746
1711469733025,599616223623404388,748
1711469733033,599616223631069074,672
1711469733041,599616223638733760,522
1711469733049,599616223646398446,475
1711469733057,599616223654063132,529
1711469733065,599616223661727818,556
1711469733072,599616223669392504,560
1711469733080,599616223677057190,558
1711469733088,599616223684721876,524
1711469733095,599616223692386562,464
1711469733103,599616223700051248,351
1711469733111,599616223707715934,221
1711469733118,599616223715380620,338
1711469733126,599616223723045306,672
1711469733134,599616223730709992,746
1711469733141,599616223738374678,560
1711469733149,599616223746039364,547
1711469733157,599616223753704050,647
1711469733164,599616223761368736,634
1711469733172,599616223769033422,571
1711469733180,599616223776698108,499
1711469733187,599616223784362794,414
1711469733195,599616223792027480,378
1711469733203,599616223799692166,320
1711469733209,599616223807356852,199
1711469733217,599616223815021538,156
1711469733225,599616223822686224,183
1711469733233,599616223830350910,174
1711469733241,599616223838015596,181
1711469733249,599616223845680282,237
1711469733256,599616223853344968,269
1711469733264,599616223861009654,264
1711469733272,599616223868674340,278
1711469733279,599616223876339026,295
1711469733287,599616223884003712,295
1711469733295,599616223891668398,311
1711469733302,599616223899333084,334
1711469733310,599616223906997770,318
1711469733318,599616223914662456,266
1711469733325,599616223922327142,197
1711469733333,599616223929991828,147
1711469733341,599616223937656514,145
1711469733348,599616223945321200,154
1711469733356,599616223952985886,143
1711469733364,599616223960650572,141
1711469733371,599616223968315258,159
1711469733379,599616223975979944,159
1711469733387,599616223983644630,150
1711469733393,599616223991309316,130
1711469733401,599616223998974002,85
1711469733409,599616224006638688,44
1711469733417,599616224014303374,0
1711469733425,599616224021968060,-85
1711469733433,599616224029632746,-141
1711469733440,599616224037297432,-147
1711469733448,599616224044962118,-156
1711469733456,599616224052626804,-161
1711469733463,599616224060291490,-127
1711469733471,599616224067956176,-121
1711469733479,599616224075620862,-159
1711469733486,599616224083285548,-170
1711469733494,599616224090950234,-156
1711469733502,599616224098614920,-141
1711469733509,599616224106279606,-103
1711469733517,599616224113944292,-67
1711469733525,599616224121608978,-62
1711469733532,599616224129273664,-67
1711469733540,599616224136938350,-58
1711469733548,599616224144603056,-31
1711469733555,599616224152267742,11
1711469733563,599616224159932428,51
1711469733571,599616224167597114,65
1711469733577,599616224175261800,56
1711469733585,599616224182926486,49
1711469733593,599616224190591172,60
1711469733601,599616224198255858,98
1711469733609,599616224205920544,141
1711469733617,599616224213585230,118
1711469733624,599616224221249916,4
1711469733632,599616224228914602,-80
1711469733640,599616224236579288,-51
1711469733647,599616224244243974,2
1711469733655,599616224251908660,40
1711469733662,599616224259573346,80
1711469733670,599616224267238032,49
1711469733678,599616224274902718,-29
1711469733685,599616224282567404,-24
1711469733693,599616224290232090,42
1711469733701,599616224297896776,67
1711469733708,599616224305561462,13
1711469733716,599616224313226148,-107
1711469733724,599616224320890834,-181
1711469733731,599616224328555520,-141
1711469733739,599616224336220206,-80
1711469733747,599616224343884892,-42
1711469733753,599616224351549578,6
1711469733761,599616224359214264,40
1711469733769,599616224366878950,24
1711469733777,599616224374543636,26
1711469733785,599616224382208322,82
1711469733793,599616224389873008,134
1711469733800,599616224397537694,174
1711469733808,599616224405202380,201
1711469733816,599616224412867066,188
1711469733823,599616224420531752,174
1711469733831,599616224428196438,206
1711469733839,599616224435861124,246
1711469733846,599616224443525810,269
1711469733854,599616224451190496,293
1711469733862,599616224458855182,278
1711469733869,599616224466519868,235
1711469733877,599616224474184554,253
1711469733885,599616224481849240,313
1711469733892,599616224489513926,351
1711469733900,599616224497178612,365
1711469733908,599616224504843298,358
1711469733915,599616224512507984,309
1711469733923,599616224520172670,244
1711469733931,599616224527837356,244
1711469733937,599616224535502042,291
1711469733945,599616224543166728,309
1711469733953,599616224550831414,295
1711469733961,599616224558496100,278
1711469733969,599616224566160786,248
1711469733977,599616224573825472,165
1711469733984,599616224581490158,29
1711469733992,599616224589154844,20
1711469734000,599616224596819530,291
1711469734007,599616224604484216,513
1711469734015,599616224612148902,401
1711469734023,599616224619813588,286
1711469734030,599616224627478274,367
1711469734038,599616224635142960,410
1711469734046,599616224642807646,360
1711469734053,599616224650472332,351
1711469734061,599616224658137018,356
1711469734069,599616224665801704,338
1711469734076,599616224673466390,349
1711469734084,599616224681131076,369
1711469734092,599616224688795762,363
1711469734099,599616224696460448,354
1711469734107,599616224704125154,345
1711469734115,599616224711789840,325
1711469734121,599616224719454526,327
1711469734129,599616224727119212,338
1711469734137,599616224734783898,318
1711469734145,599616224742448584,304
1711469734153,599616224750113270,320
1711469734161,599616224757777956,293
1711469734168,599616224765442642,217
1711469734176,599616224773107328,172
1711469734184,599616224780772014,121
1711469734191,599616224788436700,38
1711469734199,599616224796101386,-20
1711469734207,599616224803766072,-116
1711469734214,599616224811430758,-293
1711469734222,599616224819095444,-430
1711469734230,599616224826760130,-459
1711469734237,599616224834424816,-430
1711469734245,599616224842089502,-401
1711469734253,599616224849754188,-401
1711469734260,599616224857418874,-450
1711469734268,599616224865083560,-493
1711469734276,599616224872748246,-511
1711469734283,599616224880412932,-533
1711469734291,599616224888077618,-529
1711469734299,599616224895742304,-499
1711469734305,599616224903406990,-491
1711469734313,599616224911071676,-486
1711469734321,599616224918736362,-466
1711469734329,599616224926401048,-439
1711469734337,599616224934065734,-399
1711469734345,599616224941730420,-365
1711469734352,599616224949395106,-356
1711469734360,599616224957059792,-358
1711469734368,599616224964724478,-351
1711469734375,599616224972389164,-327
1711469734383,599616224980053850,-284
1711469734391,599616224987718536,-233
1711469734398,599616224995383222,-190
1711469734406,599616225003047908,-195
1711469734414,599616225010712594,-253
1711469734421,599616225018377280,-269
1711469734429,599616225026041966,-215
1711469734437,599616225033706652,-177
1711469734444,599616225041371338,-170
1711469734452,599616225049036024,-174
1711469734460,599616225056700710,-181
1711469734467,599616225064365396,-154
1711469734475,599616225072030082,-98
1711469734483,599616225079694768,-51
1711469734489,599616225087359454,-15
1711469734497,599616225095024140,-13
1711469734505,599616225102688826,-42
1711469734513,599616225110353512,-33
1711469734521,599616225118018198,24
1711469734529,599616225125682884,69
1711469734536,599616225133347570,98
1711469734544,599616225141012256,112
1711469734552,599616225148676942,87
1711469734559,599616225156341628,80
1711469734567,599616225164006314,121
1711469734575,599616225171671000,165
1711469734582,599616225179335686,201
1711469734590,599616225187000372,221
1711469734598,599616225194665058,190
1711469734605,599616225202329744,163
1711469734613,599616225209994430,201
1711469734621,599616225217659116,251
1711469734628,599616225225323802,275
1711469734636,599616225232988488,291
1711469734644,599616225240653174,262
1711469734651,599616225248317860,188
1711469734659,599616225255982546,125
1711469734667,599616225263617158,112
1711469734673,599616225271282262,136
1711469734681,599616225278947366,150
1711469734689,599616225286612470,69
1711469734697,599616225294277574,-73
1711469734705,599616225301942678,-112
1711469734713,599616225309607782,-49
1711469734720,599616225317272886,-56
1711469734728,599616225324937990,-168
1711469734736,599616225332603094,-264
1711469734743,599616225340268198,-273
1711469734751,599616225347933302,-239
1711469734759,599616225355598406,-197
1711469734766,599616225363263510,-134
1711469734774,599616225370928614,-87
1711469734782,599616225378593718,-82
1711469734789,599616225386258822,-87
1711469734797,599616225393923926,-69
1711469734805,599616225401589030,-24
1711469734812,599616225409254134,31
1711469734820,599616225416919238,62
1711469734828,599616225424584342,8
1711469734835,599616225432249446,-159
1711469734843,599616225439914550,-304
1711469734851,599616225447579654,-143
1711469734857,599616225455244758,237
1711469734865,599616225462909862,327
1711469734873,599616225470574966,159
1711469734881,599616225478240070,150
1711469734889,599616225485905174,217
1711469734896,599616225493570278,161
1711469734904,599616225501235382,82
1711469734912,599616225508900486,65
1711469734919,599616225516565590,58
1711469734927,599616225524230694,58
1711469734935,599616225531895798,69
1711469734942,599616225539560902,71
1711469734950,599616225547226006,85
1711469734958,599616225554891110,114
1711469734965,599616225562556214,123
1711469734973,599616225570221318,132
1711469734981,599616225577886422,150
1711469734988,599616225585551526,147
1711469734996,599616225593216630,147
1711469735004,599616225600881734,172
1711469735011,599616225608546838,174
1711469735019,599616225616211942,170
1711469735027,599616225623877046,163
1711469735033,599616225631542150,98
1711469735041,599616225639207254,24
1711469735049,599616225646872358,11
1711469735057,599616225654537462,0
1711469735065,599616225662202566,-26
1711469735073,599616225669867670,-17
1711469735080,599616225677532774,-8
1711469735088,599616225685197878,-29
1711469735096,599616225692862982,-38
1711469735103,599616225700528086,-65
1711469735111,599616225708193190,-118
1711469735119,599616225715858294,-141
1711469735126,599616225723523398,-161
1711469735134,599616225731188502,-224
1711469735142,599616225738853606,-275
1711469735149,599616225746518710,-329
1711469735157,599616225754183814,-374
1711469735165,599616225761848918,-345
1711469735172,599616225769514022,-304
1711469735180,599616225777179126,-322
1711469735188,599616225784844230,-345
1711469735195,599616225792509334,-338
1711469735203,599616225800174438,-318
1711469735211,599616225807839542,-286
1711469735217,599616225815504646,-244
1711469735225,599616225823199870,-253
1711469735233,599616225830864556,-356
1711469735241,599616225838529242,-437
1711469735249,599616225846193928,-396
1711469735257,599616225853858614,-334
1711469735264,599616225861523300,-298
1711469735272,599616225869187986,-257
1711469735280,599616225876852672,-242
1711469735287,599616225884517358,-257
1711469735295,599616225892182044,-235
1711469735303,599616225899846730,-179
1711469735310,599616225907511416,-132
1711469735318,599616225915176102,-103
1711469735326,599616225922840788,-145
1711469735333,599616225930505474,-248
1711469735341,599616225938170160,-260
1711469735349,599616225945834846,-183
1711469735356,599616225953499532,-134
1711469735364,599616225961164218,-100
1711469735372,599616225968828904,-87
1711469735379,599616225976493590,-150
1711469735387,599616225984158276,-215
1711469735395,599616225991822962,-237
1711469735401,599616225999487648,-269
1711469735409,599616226007152334,-264
1711469735417,599616226014817020,-230
1711469735425,599616226022481706,-253
1711469735433,599616226030146392,-280
1711469735441,599616226037811078,-242
1711469735448,599616226045475764,-219
1711469735456,599616226053140450,-251
1711469735464,599616226060805136,-286
1711469735471,599616226068469822,-347
1711469735479,599616226076134508,-419
1711469735487,599616226083799194,-408
1711469735494,599616226091463880,-356
1711469735502,599616226099128566,-327
1711469735510,599616226106793252,-316
1711469735517,599616226114457938,-336
1711469735525,599616226122122624,-369
1711469735533,599616226129787310,-347
1711469735540,599616226137451996,-295
1711469735548,599616226145116682,-257
1711469735556,599616226152781368,-217
1711469735563,599616226160446054,-195
1711469735571,599616226168110740,-204
1711469735579,599616226175775426,-192
1711469735585,599616226183440112,-143
1711469735593,599616226191104798,-96
1711469735601,599616226198769484,-69
1711469735609,599616226206434170,-56
1711469735617,599616226214098856,-58
1711469735625,599616226221763542,-51
1711469735632,599616226229428228,-22
1711469735640,599616226237092914,-58
1711469735648,599616226244757600,-239
1711469735655,599616226252422286,-477
1711469735663,599616226260086972,-609
1711469735671,599616226267751658,-455
1711469735678,599616226275416344,-107
1711469735686,599616226283081030,-2
1711469735694,599616226290745716,-139
1711469735701,599616226298410402,-147
1711469735709,599616226306075088,-69
1711469735717,599616226313739774,-107
1711469735724,599616226321404460,-186
1711469735732,599616226329069146,-221
1711469735740,599616226336733832,-325
1711469735747,599616226344398518,-470
1711469735755,599616226352063204,-484
1711469735763,599616226359727890,-441
1711469735769,599616226367392576,-464
1711469735777,599616226375057262,-448
1711469735785,599616226382721968,-394
1711469735793,599616226390386654,-383
1711469735801,599616226398051340,-372
1711469735809,599616226405716026,-334
1711469735816,599616226413380712,-320
1711469735824,599616226421045398,-309
1711469735832,599616226428710084,-271
1711469735839,599616226436374770,-253
1711469735847,599616226444039456,-246
1711469735855,599616226451704142,-224
1711469735862,599616226459368828,-273
1711469735870,599616226467033514,-369
1711469735878,599616226474698200,-385
1711469735885,599616226482362886,-405
1711469735893,599616226490027572,-468
1711469735901,599616226497692258,-441
1711469735908,599616226505356944,-381
1711469735916,599616226513021630,-378
1711469735924,599616226520686316,-360
1711469735931,599616226528351002,-311
1711469735939,599616226536015688,-262
1711469735947,599616226543680374,-188
1711469735953,599616226551345060,-107
1711469735961,599616226559009746,-65
1711469735969,599616226566674432,-40
1711469735977,599616226574339118,-6
1711469735985,599616226582003804,38
1711469735993,599616226589668490,94
1711469736000,599616226597333176,145
1711469736008,599616226604997862,165
1711469736016,599616226612662548,161
1711469736023,599616226620327234,159
1711469736031,599616226627991920,181
1711469736039,599616226635656606,224
1711469736046,599616226643321292,269
1711469736054,599616226650985978,298
1711469736062,599616226658650664,289
1711469736069,599616226666315350,266
1711469736077,599616226673980036,280
1711469736085,599616226681644722,320
1711469736092,599616226689309408,356
1711469736100,599616226696974094,378
1711469736108,599616226704638780,378
1711469736115,599616226712303466,347
1711469736123,599616226719968152,336
1711469736131,599616226727632838,325
1711469736137,599616226735297524,273
1711469736145,599616226742962210,248
1711469736153,599616226750626896,255
1711469736161,599616226758291582,219
1711469736169,599616226765956268,199
1711469736177,599616226773620954,242
1711469736184,599616226781285640,284
1711469736192,599616226788950326,311
1711469736200,599616226796615012,331
1711469736207,599616226804279698,307
1711469736215,599616226811944384,280
1711469736223,599616226819609070,311
1711469736230,599616226827273756,356
1711469736238,599616226834938442,367
1711469736246,599616226842603128,302
1711469736253,599616226850267814,147
1711469736261,599616226857932500,67
1711469736269,599616226865597186,109
1711469736276,599616226873261872,150
1711469736284,599616226880926558,172
1711469736292,599616226888591244,208
1711469736299,599616226896255930,199
1711469736307,599616226903920616,163
1711469736315,599616226911585302,181
1711469736321,599616226919249988,233
1711469736329,599616226926914674,264
1711469736337,599616226934579360,282
1711469736345,599616226942274162,275
1711469736353,599616226949938430,242
1711469736361,599616226957602698,235
1711469736368,599616226965266966,260
1711469736376,599616226972931234,251
1711469736384,599616226980595502,172
1711469736391,599616226988259770,80
1711469736399,599616226995924038,2
1711469736407,599616227003588306,-58
1711469736414,599616227011252574,-51
1711469736422,599616227018916842,-2
1711469736430,599616227026581110,15
1711469736437,599616227034245378,8
1711469736445,599616227041909646,-4
1711469736452,599616227049573914,-13
1711469736460,599616227057238182,2
1711469736468,599616227064902450,44
1711469736475,599616227072566718,80
1711469736483,599616227080230986,98
1711469736491,599616227087895254,73
1711469736497,599616227095559522,-33
1711469736505,599616227103223790,-199
1711469736513,599616227110888058,-210
1711469736521,599616227118552326,82
1711469736529,599616227126216594,349
1711469736537,599616227133880862,280
1711469736544,599616227141545130,152
1711469736552,599616227149209398,192
1711469736560,599616227156873666,237
1711469736567,599616227164537934,219
1711469736575,599616227172202202,219
1711469736583,599616227179866470,239
1711469736590,599616227187530738,244
1711469736598,599616227195195006,228
1711469736606,599616227202859274,224
1711469736613,599616227210523542,239
1711469736621,599616227218187810,210
1711469736629,599616227225852078,125
1711469736636,599616227233516346,73
1711469736644,599616227241180614,69
1711469736652,599616227248844882,65
1711469736659,599616227256509150,69
1711469736667,599616227264173418,78
1711469736675,599616227271837686,85
1711469736681,599616227279501954,105
1711469736689,599616227287166222,114
1711469736697,599616227294830490,96
1711469736705,599616227302494758,91
1711469736713,599616227310159026,91
1711469736721,599616227317823294,87
1711469736728,599616227325487562,107
1711469736736,599616227333151830,125
1711469736744,599616227340816098,85
1711469736751,599616227348480366,-42
1711469736759,599616227356144634,-210
1711469736767,599616227363808902,-280
1711469736774,599616227371473170,-244
1711469736782,599616227379137438,-219
1711469736790,599616227386801706,-217
1711469736797,599616227394465974,-210
1711469736805,599616227402130242,-197
1711469736813,599616227409794510,-165
1711469736820,599616227417458778,-107
1711469736828,599616227425123046,-78
1711469736836,599616227432787314,-127
1711469736843,599616227440451582,-212
1711469736851,599616227448115850,-278
1711469736859,599616227455780118,-331
1711469736865,599616227463444386,-378
1711469736873,599616227471108654,-437
1711469736881,599616227478772922,-486
1711469736889,599616227486437190,-506
1711469736897,599616227494101458,-517
1711469736905,599616227501735646,-504
1711469736912,599616227509400332,-455
1711469736920,599616227517065018,-405
1711469736928,599616227524729704,-372
1711469736935,599616227532394390,-372
1711469736943,599616227540059076,-401
1711469736951,599616227547723762,-385
1711469736958,599616227555388448,-325
1711469736966,599616227563053134,-271
1711469736974,599616227570717820,-237
1711469736981,599616227578382506,-273
1711469736989,599616227586047192,-385
1711469736997,599616227593711878,-417
1711469737004,599616227601376564,-336
1711469737012,599616227609041250,-273
1711469737020,599616227616705936,-235
1711469737027,599616227624370622,-192
1711469737035,599616227632035308,-195
1711469737043,599616227639699994,-199
1711469737049,599616227647364680,-141
1711469737057,599616227655029366,-76
1711469737065,599616227662694052,-35
1711469737073,599616227670358738,-6
1711469737081,599616227678023424,-22
1711469737089,599616227685688110,-49
1711469737096,599616227693352796,-13
1711469737104,599616227701017482,47
1711469737112,599616227708682168,62
1711469737119,599616227716346854,15
1711469737127,599616227724011540,-62
1711469737135,599616227731676226,-96
1711469737142,599616227739340912,-60
1711469737150,599616227747005598,-11
1711469737158,599616227754670284,35
1711469737165,599616227762334970,71
1711469737173,599616227769999656,73
1711469737181,599616227777664342,47
1711469737188,599616227785329028,51
1711469737196,599616227792993714,96
1711469737204,599616227800658400,136
1711469737211,599616227808323086,161
1711469737219,599616227815987772,183
1711469737227,599616227823652458,179
1711469737233,599616227831317144,170
1711469737241,599616227838981830,192
1711469737249,599616227846646516,219
1711469737257,599616227854311202,156
1711469737265,599616227861975888,22
1711469737273,599616227869640574,-26
1711469737280,599616227877305260,0
1711469737288,599616227884969946,13
1711469737296,599616227892634632,56
1711469737303,599616227900299318,96
1711469737311,599616227907964004,22
1711469737319,599616227915628690,-150
1711469737326,599616227923293376,-248
1711469737334,599616227930958062,-35
1711469737342,599616227938622748,320
1711469737349,599616227946287434,343
1711469737357,599616227953952120,154
1711469737365,599616227961616806,109
1711469737372,599616227969281492,96
1711469737380,599616227976946178,38
1711469737388,599616227984610864,60
1711469737395,599616227992275550,107
1711469737403,599616227999940236,96
1711469737411,599616228007604922,100
1711469737417,599616228015269608,136
1711469737425,599616228022934294,134
1711469737433,599616228030598980,123
1711469737441,599616228038263666,141
1711469737449,599616228045928352,145
1711469737457,599616228053593038,145
1711469737464,599616228061282872,174
1711469737472,599616228068947209,188
1711469737480,599616228076611546,183
1711469737487,599616228084275883,188
1711469737495,599616228091940220,190
1711469737503,599616228099604557,186
1711469737510,599616228107268894,199
1711469737518,599616228114933231,156
1711469737526,599616228122597568,26
1711469737533,599616228130261905,-51
1711469737541,599616228137926242,-44
1711469737549,599616228145590579,-38
1711469737556,599616228153254916,-20
1711469737564,599616228160919253,11
1711469737572,599616228168583590,8
1711469737579,599616228176247927,-2
1711469737587,599616228183912264,6
1711469737595,599616228191576601,-2
1711469737601,599616228199240938,-40
1711469737609,599616228206905275,-91
1711469737617,599616228214569612,-150
1711469737625,599616228222233949,-174
1711469737633,599616228229898286,-165
1711469737640,599616228237562623,-147
1711469737648,599616228245226960,-109
1711469737656,599616228252891297,-65
1711469737663,599616228260555634,-60
1711469737671,599616228268219971,-132
1711469737679,599616228275884308,-217
1711469737686,599616228283548645,-251
1711469737694,599616228291212982,-278
1711469737702,599616228298877319,-309
1711469737709,599616228306541656,-311
1711469737717,599616228314205993,-329
1711469737725,599616228321870330,-369
1711469737732,599616228329534667,-360
1711469737740,599616228337199004,-311
1711469737748,599616228344863341,-275
1711469737755,599616228352527678,-246
1711469737763,599616228360192015,-271
1711469737771,599616228367856352,-374
1711469737777,599616228375520689,-425
1711469737785,599616228383185026,-365
1711469737793,599616228390849363,-307
1711469737801,599616228398513700,-278
1711469737809,599616228406178037,-253
1711469737817,599616228413842374,-266
1711469737824,599616228421506711,-266
1711469737832,599616228429171048,-210
1711469737840,599616228436835385,-152
1711469737847,599616228444499722,-123
1711469737855,599616228452164059,-147
1711469737863,599616228459828396,-235
1711469737870,599616228467492733,-271
1711469737878,599616228475157070,-215
1711469737886,599616228482821407,-152
1711469737893,599616228490485744,-109
1711469737901,599616228498150081,-71
1711469737909,599616228505814418,-73
1711469737916,599616228513478755,-87
1711469737924,599616228521143092,-49
1711469737932,599616228528807429,8
1711469737939,599616228536471766,53
1711469737947,599616228544136103,89
1711469737955,599616228551800440,91
1711469737961,599616228559464777,69
1711469737969,599616228567129114,78
1711469737977,599616228574793451,118
1711469737985,599616228582457788,152
1711469737993,599616228590122125,179
1711469738001,599616228597786462,174
1711469738008,599616228605450799,150
1711469738016,599616228613115136,163
1711469738024,599616228620759452,212
1711469738031,599616228628424068,253
1711469738039,599616228636088684,266
1711469738047,599616228643753300,260
1711469738054,599616228651417916,197
1711469738062,599616228659082532,96
1711469738070,599616228666747148,65
1711469738077,599616228674411764,109
1711469738085,599616228682076380,139
1711469738093,599616228689740996,136
1711469738100,599616228697405612,116
1711469738108,599616228705070228,26
1711469738116,599616228712734844,-127
1711469738123,599616228720399460,-255
1711469738131,599616228728064076,-159
1711469738139,599616228735728692,177
1711469738145,599616228743393308,338
1711469738153,599616228751057924,190
1711469738161,599616228758722540,107
1711469738169,599616228766387156,197
1711469738177,599616228774051772,228
1711469738185,599616228781716388,197
1711469738192,599616228789381004,215
1711469738200,599616228797045620,235
1711469738208,599616228804710236,215
1711469738215,599616228812374852,224
1711469738223,599616228820039468,255
1711469738231,599616228827704084,248
1711469738238,599616228835368700,242
1711469738246,599616228843033316,264
1711469738254,599616228850697932,264
1711469738261,599616228858362548,251
1711469738269,599616228866027164,237
1711469738277,599616228873691780,132
1711469738284,599616228881356396,6
1711469738292,599616228889021012,2
1711469738300,599616228896685628,31
1711469738307,599616228904350244,4
1711469738315,599616228912014860,2
1711469738323,599616228919679476,17
1711469738329,599616228927344092,17
1711469738337,599616228935008708,38
1711469738345,599616228942673324,38
1711469738353,599616228950337940,-26
1711469738361,599616228958002556,-69
1711469738369,599616228965667172,-60
1711469738376,599616228973331788,-47
1711469738384,599616228980996404,-15
1711469738392,599616228988661020,26
1711469738399,599616228996325636,38
1711469738407,599616229003990252,40
1711469738415,599616229011654868,62
1711469738422,599616229019319484,91
1711469738430,599616229026984100,132
1711469738438,599616229034648716,165
1711469738445,599616229042313332,170
1711469738453,599616229049977948,150
1711469738461,599616229057642564,134
1711469738468,599616229065307180,121
1711469738476,599616229072971796,80
1711469738484,599616229080636412,44
1711469738491,599616229088301028,38
1711469738499,599616229095965644,6
1711469738507,599616229103630260,-49
1711469738513,599616229111294876,-47
1711469738521,599616229118959492,-8
1711469738529,599616229126624108,15
1711469738537,599616229134288724,22
1711469738545,599616229141953340,-17
1711469738553,599616229149617956,-109
1711469738560,599616229157282572,-168
1711469738568,599616229164947188,-190
1711469738576,599616229172611804,-237
1711469738583,599616229180271424,-255
1711469738591,599616229187936110,-271
1711469738599,599616229195600796,-356
1711469738606,599616229203265482,-419
1711469738614,599616229210930168,-381
1711469738622,599616229218594854,-338
1711469738629,599616229226259540,-327
1711469738637,599616229233924226,-322
1711469738645,599616229241588912,-351
1711469738652,599616229249253598,-363
1711469738660,599616229256918284,-316
1711469738668,599616229264582970,-269
1711469738675,599616229272247656,-244
1711469738683,599616229279912342,-239
1711469738691,599616229287577028,-320
1711469738697,599616229295241714,-414
1711469738705,599616229302906400,-390
1711469738713,599616229310571086,-318
1711469738721,599616229318235772,-284
1711469738729,599616229325900458,-257
1711469738736,599616229333565144,-260
1711469738744,599616229341229830,-284
1711469738752,599616229348894516,-251
1711469738759,599616229356559202,-190
1711469738767,599616229364223888,-152
1711469738775,599616229371888574,-165
1711469738782,599616229379553260,-273
1711469738790,599616229387217946,-385
1711469738798,599616229394882632,-372
1711469738805,599616229402547318,-309
1711469738813,599616229410212004,-271
1711469738821,599616229417876690,-235
1711469738828,599616229425541376,-206
1711469738836,599616229433206062,-197
1711469738844,599616229440870748,-219
1711469738851,599616229448535434,-235
1711469738859,599616229456200120,-192
1711469738867,599616229463864806,-147
1711469738873,599616229471529492,-141
1711469738881,599616229479194178,-139
1711469738889,599616229486858864,-123
1711469738897,599616229494523550,-100
1711469738905,599616229502188236,-58
1711469738913,599616229509852922,-13
1711469738920,599616229517517608,0
1711469738928,599616229525182294,-38
1711469738936,599616229532846980,-165
1711469738943,599616229540511666,-316
1711469738951,599616229548176352,-210
1711469738959,599616229555841038,152
1711469738966,599616229563505724,289
1711469738974,599616229571170410,136
1711469738982,599616229578835096,87
1711469738989,599616229586499782,154
1711469738997,599616229594164468,159
1711469739005,599616229601829154,152
1711469739012,599616229609493840,174
1711469739020,599616229617158526,179
1711469739028,599616229624823212,174
1711469739035,599616229632487898,174
1711469739043,599616229640152584,181
1711469739051,599616229647817270,192
1711469739057,599616229655481956,188
1711469739065,599616229663146642,186
1711469739073,599616229670811328,215
1711469739081,599616229678476014,230
1711469739089,599616229686140700,183
1711469739097,599616229693805386,109
1711469739104,599616229701470072,82
1711469739112,599616229709134758,91
1711469739120,599616229716799444,100
1711469739127,599616229724464130,96
1711469739135,599616229732128816,80
1711469739143,599616229739813610,71
1711469739150,599616229747478017,62
1711469739158,599616229755142424,53
1711469739166,599616229762806831,71
1711469739173,599616229770471238,87
1711469739181,599616229778135645,71
1711469739189,599616229785800052,53
1711469739196,599616229793464459,56
1711469739204,599616229801128866,65
1711469739212,599616229808793273,89
1711469739219,599616229816457680,123
1711469739227,599616229824122087,136
1711469739235,599616229831786494,139
1711469739241,599616229839450901,141
1711469739249,599616229847115308,156
1711469739257,599616229854779715,192
1711469739265,599616229862444122,233
1711469739273,599616229870108529,242
1711469739281,599616229877772936,168
1711469739288,599616229885437343,31
1711469739296,599616229893101750,-17
1711469739304,599616229900766157,29
1711469739311,599616229908430564,53
1711469739319,599616229916094971,49
1711469739327,599616229923759378,-6
1711469739334,599616229931423785,-156
1711469739342,599616229939088192,-260
1711469739350,599616229946752599,-235
1711469739357,599616229954417006,-199
1711469739365,599616229962081413,-215
1711469739373,599616229969745820,-291
1711469739380,599616229977410227,-399
1711469739388,599616229985074634,-410
1711469739396,599616229992739041,-356
1711469739403,599616230000403448,-374
1711469739411,599616230008067855,-423
1711469739419,599616230015732262,-457
1711469739425,599616230023396669,-533
1711469739433,599616230031061076,-596
1711469739441,599616230038725483,-573
1711469739449,599616230046389890,-531
1711469739457,599616230054054297,-508
1711469739465,599616230061718704,-497
1711469739472,599616230069383111,-526
1711469739480,599616230077047518,-544
1711469739488,599616230084711925,-497
1711469739495,599616230092376332,-446
1711469739503,599616230100040739,-419
1711469739511,599616230107705146,-394
1711469739518,599616230115369553,-408
1711469739526,599616230123033960,-428
1711469739534,599616230130698367,-390
1711469739541,599616230138362774,-329
1711469739549,599616230146027181,-289
1711469739557,599616230153691588,-260
1711469739564,599616230161355995,-260
1711469739572,599616230169020402,-284
1711469739580,599616230176684809,-316
1711469739587,599616230184349216,-349
1711469739595,599616230192013623,-343
1711469739603,599616230199678030,-311
1711469739609,599616230207342437,-313
1711469739617,599616230215006844,-325
1711469739625,599616230222671251,-307
1711469739633,599616230230335658,-260
1711469739641,599616230238000065,-192
1711469739649,599616230245664472,-143
1711469739656,599616230253328879,-136
1711469739664,599616230260993286,-139
1711469739672,599616230268657693,-130
1711469739679,599616230276322100,-96
1711469739687,599616230283986507,-53
1711469739695,599616230291650914,-20
1711469739702,599616230299305356,-6
1711469739710,599616230306969902,-2
1711469739718,599616230314634448,11
1711469739725,599616230322298994,31
1711469739733,599616230329963540,13
1711469739741,599616230337628086,-114
1711469739748,599616230345292632,-273
1711469739756,599616230352957178,-177
1711469739764,599616230360621724,105
1711469739771,599616230368286270,100
1711469739779,599616230375950816,-141
1711469739787,599616230383615362,-260
1711469739793,599616230391279908,-264
1711469739801,599616230398944454,-257
1711469739809,599616230406609000,-246
1711469739817,599616230414273546,-242
1711469739825,599616230421938092,-264
1711469739833,599616230429602638,-318
1711469739840,599616230437267184,-340
1711469739848,599616230444931730,-295
1711469739856,599616230452596276,-257
1711469739863,599616230460260822,-253
1711469739871,599616230467925368,-224
1711469739879,599616230475589914,-172
1711469739886,599616230483254460,-154
1711469739894,599616230490919006,-139
1711469739902,599616230498583552,-94
1711469739909,599616230506248098,-71
1711469739917,599616230513912644,-71
1711469739925,599616230521577190,-53
1711469739932,599616230529241736,-42
1711469739940,599616230536906282,-38
1711469739947,599616230544570828,-4
1711469739955,599616230552235374,15
1711469739963,599616230559899920,8
1711469739969,599616230567564466,8
1711469739977,599616230575229012,13
1711469739985,599616230582893558,20
1711469739993,599616230590558104,49
1711469740001,599616230598222650,80
1711469740009,599616230605887196,87
1711469740016,599616230613551742,82
1711469740024,599616230621216288,89
1711469740032,599616230628880834,118
1711469740039,599616230636545380,177
1711469740047,599616230644209926,230
1711469740055,599616230651874472,251
1711469740062,599616230659539018,242
1711469740070,599616230667203564,199
1711469740078,599616230674868110,125
1711469740085,599616230682532656,94
1711469740093,599616230690197202,127
1711469740101,599616230697861748,141
1711469740108,599616230705526294,112
1711469740116,599616230713190840,94
1711469740124,599616230720855386,105
1711469740131,599616230728519932,134
1711469740139,599616230736184478,161
1711469740147,599616230743849024,136
1711469740153,599616230751513570,44
1711469740161,599616230759178116,-26
1711469740169,599616230766842662,-22
1711469740177,599616230774507208,4
1711469740185,599616230782171754,29
1711469740193,599616230789836300,49
1711469740200,599616230797500846,35
1711469740208,599616230805165392,-8
1711469740216,599616230812829938,-26
1711469740223,599616230820494484,-44
1711469740231,599616230828159030,-89
1711469740239,599616230835823576,-127
1711469740246,599616230843488122,-197
1711469740254,599616230851152668,-295
1711469740262,599616230858807200,-322
1711469740269,599616230866471886,-289
1711469740277,599616230874136572,-280
1711469740285,599616230881801258,-336
1711469740292,599616230889465944,-479
1711469740300,599616230897130630,-645
1711469740308,599616230904795316,-697
1711469740315,599616230912460002,-679
1711469740323,599616230920124688,-710
1711469740331,599616230927789374,-715
1711469740337,599616230935454060,-659
1711469740345,599616230943118746,-647
1711469740353,599616230950783432,-656
1711469740361,599616230958448118,-605
1711469740369,599616230966112804,-540
1711469740377,599616230973777490,-491
1711469740384,599616230981442176,-450
1711469740392,599616230989106862,-466
1711469740400,599616230996771548,-538
1711469740407,599616231004436234,-544
1711469740415,599616231012100920,-466
1711469740423,599616231019765606,-403
1711469740430,599616231027430292,-376
1711469740438,599616231035094978,-369
1711469740446,599616231042759664,-374
1711469740453,599616231050424350,-363
1711469740461,599616231058089036,-304
1711469740469,599616231065753722,-237
1711469740476,599616231073418408,-188
1711469740484,599616231081083094,-163
1711469740492,599616231088747780,-212
1711469740499,599616231096412466,-363
1711469740507,599616231104077152,-477
1711469740515,599616231111741838,-289
1711469740521,599616231119406524,98
1711469740529,599616231127071210,197
1711469740537,599616231134735896,24
1711469740545,599616231142400582,0
1711469740553,599616231150065268,82
1711469740561,599616231157729954,73
1711469740568,599616231165394640,4
1711469740576,599616231173059326,-38
1711469740584,599616231180724012,-35
1711469740591,599616231188388698,-22
1711469740599,599616231196053384,-15
1711469740607,599616231203718070,17
1711469740614,599616231211382756,53
1711469740622,599616231219047442,60
1711469740630,599616231226712128,78
1711469740637,599616231234376814,105
1711469740645,599616231242041500,109
1711469740653,599616231249706186,118
1711469740660,599616231257370872,147
1711469740668,599616231265035558,152
1711469740676,599616231272700244,152
1711469740683,599616231280364930,179
1711469740691,599616231288029616,183
1711469740699,599616231295694302,174
1711469740705,599616231303358988,186
1711469740713,599616231311023674,186
1711469740721,599616231318688360,174
1711469740729,599616231326353046,190
1711469740737,599616231334017732,199
1711469740745,599616231341682418,181
1711469740752,599616231349347104,181
1711469740760,599616231357011790,186
1711469740768,599616231364676476,190
1711469740775,599616231372341162,224
1711469740783,599616231380005848,248
1711469740791,599616231387670534,190
1711469740798,599616231395335220,91
1711469740806,599616231402999906,56
1711469740814,599616231410664592,26
1711469740821,599616231418329298,-11
1711469740829,599616231425993984,6
1711469740837,599616231433658670,26
1711469740844,599616231441323356,6
1711469740852,599616231448988042,0
1711469740860,599616231456652728,22
1711469740867,599616231464317414,58
1711469740875,599616231471982100,91
1711469740883,599616231479646786,53
1711469740889,599616231487311472,-49
1711469740897,599616231494976158,-94
1711469740905,599616231502640844,-51
1711469740913,599616231510305530,-15
1711469740921,599616231517970216,15
1711469740929,599616231525634902,53
1711469740936,599616231533299588,47
1711469740944,599616231540964274,20
1711469740952,599616231548628960,40
1711469740959,599616231556293646,91
1711469740967,599616231563958332,130
1711469740975,599616231571623018,159
1711469740982,599616231579287704,156
1711469740990,599616231586952390,107
1711469740998,599616231594617076,49
1711469741005,599616231602281762,20
1711469741013,599616231609946448,29
1711469741021,599616231617611134,53
1711469741028,599616231625275820,42
1711469741036,599616231632940506,-8
1711469741044,599616231640605192,-20
1711469741051,599616231648269878,-2
1711469741059,599616231655934564,-38
1711469741067,599616231663599250,-121
1711469741073,599616231671263936,-192
1711469741081,599616231678928622,-266
1711469741089,599616231686593308,-340
1711469741097,599616231694257994,-374
1711469741105,599616231701922680,-360
1711469741113,599616231709587366,-338
1711469741120,599616231717252052,-336
1711469741128,599616231724916738,-365
1711469741136,599616231732581424,-381
1711469741143,599616231740246110,-347
1711469741151,599616231747910796,-304
1711469741159,599616231755575482,-284
1711469741166,599616231763240168,-264
1711469741174,599616231770904854,-275
1711469741181,599616231778569540,-307
1711469741189,599616231786234226,-282
1711469741197,599616231793898912,-212
1711469741204,599616231801563598,-161
1711469741212,599616231809228284,-139
1711469741220,599616231816892970,-136
1711469741227,599616231824557656,-145
1711469741235,599616231832222342,-132
1711469741243,599616231839887028,-87
1711469741249,599616231847551714,-44
1711469741257,599616231855216400,-17
1711469741265,599616231862881086,-8
1711469741273,599616231870545772,-11
1711469741281,599616231878210458,-20
1711469741289,599616231885875144,-78
1711469741296,599616231893539830,-293
1711469741304,599616231901204516,-582
1711469741312,599616231908869202,-517
1711469741319,599616231916533888,-161
1711469741327,599616231924198574,-114
1711469741335,599616231931863260,-280
1711469741342,599616231939527946,-219
1711469741350,599616231947192632,-98
1711469741358,599616231954857318,-114
1711469741365,599616231962522004,-121
1711469741373,599616231970186690,-76
1711469741381,599616231977881494,-53
1711469741388,599616231985545762,-24
1711469741396,599616231993210030,17
1711469741404,599616232000874298,24
1711469741411,599616232008538566,20
1711469741419,599616232016202834,-13
1711469741427,599616232023867102,-98
1711469741433,599616232031531370,-125
1711469741441,599616232039195638,-80
1711469741449,599616232046859906,-71
1711469741457,599616232054524174,-71
1711469741465,599616232062188442,-42
1711469741473,599616232069852710,-33
1711469741480,599616232077516978,-31
1711469741488,599616232085181246,-4
1711469741496,599616232092845514,6
1711469741503,599616232100509782,11
1711469741511,599616232108174050,35
1711469741519,599616232115838318,40
1711469741526,599616232123502586,29
1711469741534,599616232131166854,44
1711469741542,599616232138831122,49
1711469741549,599616232146495390,0
1711469741557,599616232154159658,-53
1711469741565,599616232161823926,-60
1711469741572,599616232169488194,-49
1711469741580,599616232177152462,-33
1711469741588,599616232184816730,-2
1711469741595,599616232192480998,40
1711469741603,599616232200145266,100
1711469741611,599616232207809534,150
1711469741617,599616232215473802,165
1711469741625,599616232223138070,170
1711469741633,599616232230802338,179
1711469741641,599616232238466606,192
1711469741649,599616232246130874,224
1711469741657,599616232253795142,257
1711469741664,599616232261459410,260
1711469741672,599616232269123678,239
1711469741680,599616232276787946,228
1711469741687,599616232284452214,242
1711469741695,599616232292116482,271
1711469741703,599616232299780750,304
1711469741710,599616232307445018,309
1711469741718,599616232315109286,282
1711469741726,599616232322773554,264
1711469741733,599616232330437822,275
1711469741741,599616232338102090,304
1711469741749,599616232345766358,338
1711469741756,599616232353430626,351
1711469741764,599616232361094894,329
1711469741772,599616232368759162,289
1711469741779,599616232376423430,286
1711469741787,599616232384087698,311
1711469741795,599616232391751966,278
1711469741801,599616232399416234,116
1711469741809,599616232407080502,-100
1711469741817,599616232414744770,-208
1711469741825,599616232422409038,-190
1711469741833,599616232430073306,-163
1711469741841,599616232437737574,-145
1711469741848,599616232445401842,-109
1711469741856,599616232453066110,-100
1711469741864,599616232460730378,-136
1711469741871,599616232468394646,-145
1711469741879,599616232476058914,-132
1711469741887,599616232483723182,-163
1711469741894,599616232491387450,-208
1711469741902,599616232499051718,-244
1711469741910,599616232506715986,-318
1711469741917,599616232514380254,-363
1711469741925,599616232522044522,-329
1711469741933,599616232529708790,-298
1711469741940,599616232537342978,-282
1711469741948,599616232545007664,-271
1711469741956,599616232552672350,-293
1711469741963,599616232560337036,-316
1711469741971,599616232568001722,-291
1711469741979,599616232575666408,-251
1711469741985,599616232583331094,-212
1711469741993,599616232590995780,-186
1711469742001,599616232598660466,-255
1711469742009,599616232606325152,-455
1711469742017,599616232613989838,-643
1711469742025,599616232621654524,-641
1711469742032,599616232629319210,-360
1711469742040,599616232636983896,-94
1711469742048,599616232644648582,-215
1711469742055,599616232652313268,-425
1711469742063,599616232659977954,-376
1711469742071,599616232667642640,-280
1711469742078,599616232675307326,-269
1711469742086,599616232682972012,-237
1711469742094,599616232690636698,-199
1711469742101,599616232698301384,-204
1711469742109,599616232705966070,-190
1711469742117,599616232713630756,-143
1711469742124,599616232721295442,-96
1711469742132,599616232728960128,-62
1711469742140,599616232736624814,-51
1711469742147,599616232744289500,-47
1711469742155,599616232751954186,-31
1711469742163,599616232759618872,-6
1711469742169,599616232767283558,22
1711469742177,599616232774948244,47
1711469742185,599616232782612930,56
1711469742193,599616232790277616,69
1711469742201,599616232797942302,76
1711469742209,599616232805606988,69
1711469742216,599616232813271674,87
1711469742224,599616232820936360,107
1711469742232,599616232828601046,98
1711469742239,599616232836265732,94
1711469742247,599616232843930418,107
1711469742255,599616232851595104,107
1711469742262,599616232859259790,118
1711469742270,599616232866924476,152
1711469742278,599616232874589162,159
1711469742285,599616232882253848,127
1711469742293,599616232889918534,73
1711469742301,599616232897583220,15
1711469742308,599616232905247906,-42
1711469742316,599616232912912592,-118
1711469742324,599616232920577278,-154
1711469742331,599616232928241964,-116
1711469742339,599616232935906650,-71
1711469742345,599616232943571336,-62
1711469742353,599616232951236022,-44
1711469742361,599616232958900708,0
1711469742369,599616232966565394,26
1711469742377,599616232974230080,47
1711469742385,599616232981894766,76
1711469742392,599616232989559452,82
1711469742400,599616232997224138,82
1711469742408,599616233004888824,96
1711469742415,599616233012553510,103
1711469742423,599616233020218196,114
1711469742431,599616233027882882,152
1711469742438,599616233035547568,174
1711469742446,599616233043212254,159
1711469742454,599616233050876940,143
1711469742461,599616233058541626,152
1711469742469,599616233066206312,174
1711469742477,599616233073870998,201
1711469742484,599616233081535684,230
1711469742492,599616233089200370,230
1711469742500,599616233096865076,195
1711469742507,599616233104529762,177
1711469742515,599616233112194448,195
1711469742523,599616233119859134,230
1711469742529,599616233127523820,239
1711469742537,599616233135188506,177
1711469742545,599616233142853192,78
1711469742553,599616233150517878,40
1711469742561,599616233158182564,56
1711469742569,599616233165847250,82
1711469742576,599616233173511936,121
1711469742584,599616233181176622,121
1711469742592,599616233188841308,26
1711469742599,599616233196505994,-89
1711469742607,599616233204170680,-132
1711469742615,599616233211835366,-150
1711469742622,599616233219500052,-152
1711469742630,599616233227164738,-123
1711469742638,599616233234829424,-188
1711469742645,599616233242494110,-331
1711469742653,599616233250158796,-354
1711469742661,599616233257823482,-278
1711469742668,599616233265488168,-253
1711469742676,599616233273152854,-237
1711469742684,599616233280817540,-235
1711469742691,599616233288482226,-318
1711469742699,599616233296146912,-374
1711469742707,599616233303811598,-374
1711469742713,599616233311476284,-430
1711469742721,599616233319140970,-544
1711469742729,599616233326805656,-686
1711469742737,599616233334470342,-695
1711469742745,599616233342135028,-419
1711469742753,599616233349799714,-192
1711469742760,599616233357464400,-278
1711469742768,599616233365129086,-343
1711469742776,599616233372793772,-269
1711469742783,599616233380458458,-302
1711469742791,599616233388123144,-383
1711469742799,599616233395787830,-340
1711469742806,599616233403452516,-331
1711469742814,599616233411117202,-457
1711469742822,599616233418781888,-511
1711469742829,599616233426446574,-473
1711469742837,599616233434111260,-473
1711469742845,599616233441775946,-455
1711469742852,599616233449440632,-381
1711469742860,599616233457105318,-325
1711469742868,599616233464770004,-289
1711469742875,599616233472434690,-262
1711469742883,599616233480099376,-262
1711469742891,599616233487764062,-246
1711469742897,599616233495428748,-195
1711469742905,599616233503093434,-150
1711469742913,599616233510758120,-123
1711469742921,599616233518422806,-107
1711469742929,599616233526087492,-105
1711469742937,599616233533752178,-103
1711469742944,599616233541416864,-76
1711469742952,599616233549081550,-33
1711469742960,599616233556746236,-13
1711469742967,599616233564410922,-6
1711469742975,599616233572075608,4
1711469742983,599616233579740294,13
1711469742990,599616233587404980,26
1711469742998,599616233595069666,71
1711469743006,599616233602734352,116
1711469743013,599616233610399038,134
1711469743021,599616233618063724,152
1711469743029,599616233625728410,152
1711469743036,599616233633393096,125
1711469743044,599616233641057782,141
1711469743052,599616233648722468,186
1711469743059,599616233656417270,192
1711469743067,599616233664081538,195
1711469743075,599616233671745806,217
1711469743081,599616233679410074,221
1711469743089,599616233687074342,224
1711469743097,599616233694738610,244
1711469743105,599616233702402878,248
1711469743113,599616233710067146,248
1711469743121,599616233717731414,244
1711469743128,599616233725395682,179
1711469743136,599616233733059950,105
1711469743144,599616233740724218,103
1711469743151,599616233748388486,116
1711469743159,599616233756052754,125
1711469743167,599616233763717022,170
1711469743174,599616233771381290,190
1711469743182,599616233779045558,170
1711469743190,599616233786709826,179
1711469743197,599616233794374094,195
1711469743205,599616233802038362,199
1711469743213,599616233809702630,230
1711469743220,599616233817366898,253
1711469743228,599616233825031166,244
1711469743236,599616233832695434,235
1711469743243,599616233840359702,244
1711469743251,599616233848023970,253
1711469743259,599616233855688238,271
1711469743265,599616233863352506,300
1711469743273,599616233871016774,284
1711469743281,599616233878681042,210
1711469743289,599616233886345310,170
1711469743297,599616233894009578,186
1711469743305,599616233901673846,186
1711469743312,599616233909338114,121
1711469743320,599616233917002382,-8
1711469743328,599616233924666650,-100
1711469743335,599616233932330918,-96
1711469743343,599616233939995186,-62
1711469743351,599616233947659454,-24
1711469743358,599616233955323722,26
1711469743366,599616233962987990,60
1711469743374,599616233970652258,49
1711469743381,599616233978316526,31
1711469743389,599616233985980794,51
1711469743397,599616233993645062,94
1711469743404,599616234001309330,130
1711469743412,599616234008973598,154
1711469743420,599616234016637866,143
1711469743427,599616234024302134,76
1711469743435,599616234031966402,-26
1711469743443,599616234039630670,-147
1711469743449,599616234047294938,-278
1711469743457,599616234054959206,-280
1711469743465,599616234062623474,-47
1711469743473,599616234070287742,127
1711469743481,599616234077952010,22
1711469743489,599616234085616278,-73
1711469743496,599616234093280546,-13
1711469743504,599616234100944814,-2
1711469743512,599616234108609082,-100
1711469743519,599616234116273350,-208
1711469743527,599616234123937618,-313
1711469743535,599616234131601886,-378
1711469743542,599616234139266154,-365
1711469743550,599616234146930422,-347
1711469743558,599616234154594690,-363
1711469743565,599616234162258958,-399
1711469743573,599616234169923226,-428
1711469743581,599616234177587494,-410
1711469743588,599616234185251762,-365
1711469743596,599616234192916030,-331
1711469743604,599616234200580298,-313
1711469743611,599616234208244566,-327
1711469743619,599616234215878754,-354
1711469743625,599616234223543440,-338
1711469743633,599616234231208126,-300
1711469743641,599616234238872812,-273
1711469743649,599616234246537498,-257
1711469743657,599616234254202184,-293
1711469743665,599616234261866870,-396
1711469743672,599616234269531556,-459
1711469743680,599616234277196242,-417
1711469743688,599616234284860928,-367
1711469743695,599616234292525614,-356
1711469743703,599616234300190300,-347
1711469743711,599616234307854986,-338
1711469743718,599616234315519672,-325
1711469743726,599616234323184358,-278
1711469743734,599616234330849044,-206
1711469743741,599616234338513730,-152
1711469743749,599616234346178416,-130
1711469743757,599616234353843102,-105
1711469743764,599616234361507788,-89
1711469743772,599616234369172474,-118
1711469743780,599616234376837160,-132
1711469743787,599616234384501846,-96
1711469743795,599616234392166532,-85
1711469743803,599616234399831218,-87
1711469743809,599616234407495904,-82
1711469743817,599616234415160590,-141
1711469743825,599616234422825276,-255
1711469743833,599616234430489962,-293
1711469743841,599616234438154648,-253
1711469743849,599616234445819334,-226
1711469743856,599616234453484020,-219
1711469743864,599616234461148706,-197
1711469743872,599616234468813392,-154
1711469743879,599616234476478078,-105
1711469743887,599616234484142764,-85
1711469743895,599616234491807450,-69
1711469743902,599616234499472136,-42
1711469743910,599616234507136822,-24
1711469743918,599616234514801508,-2
1711469743925,599616234522466194,31
1711469743933,599616234530130880,42
1711469743941,599616234537795566,62
1711469743948,599616234545460252,98
1711469743956,599616234553124938,100
1711469743964,599616234560789624,94
1711469743971,599616234568454310,114
1711469743979,599616234576118996,125
1711469743987,599616234583783682,139
1711469743993,599616234591448368,188
1711469744001,599616234599113054,228
1711469744009,599616234606777740,217
1711469744017,599616234614442426,141
1711469744025,599616234622107112,65
1711469744033,599616234629771798,78
1711469744040,599616234637436484,125
1711469744048,599616234645101170,125
1711469744056,599616234652765856,114
1711469744063,599616234660430542,132
1711469744071,599616234668095228,139
1711469744079,599616234675759914,141
1711469744086,599616234683424600,177
1711469744094,599616234691089286,212
1711469744102,599616234698753972,206
1711469744109,599616234706418658,186
1711469744117,599616234714083344,177
1711469744125,599616234721748030,181
1711469744132,599616234729412716,208
1711469744140,599616234737077402,251
1711469744148,599616234744742088,262
1711469744155,599616234752406774,192
1711469744163,599616234760071460,47
1711469744171,599616234767736146,-78
1711469744177,599616234775405892,40
1711469744185,599616234783070508,378
1711469744193,599616234790735124,491
1711469744201,599616234798399740,289
1711469744209,599616234806064356,181
1711469744217,599616234813728972,237
1711469744224,599616234821393588,253
1711469744232,599616234829058204,204
1711469744240,599616234836722820,145
1711469744247,599616234844387436,35
1711469744255,599616234852052052,-132
1711469744263,599616234859716668,-248
1711469744270,599616234867381284,-266
1711469744278,599616234875045900,-246
1711469744286,599616234882710516,-221
1711469744293,599616234890375132,-219
1711469744301,599616234898039748,-271
1711469744309,599616234905704364,-336
1711469744316,599616234913368980,-374
1711469744324,599616234921033596,-439
1711469744332,599616234928698212,-573
1711469744339,599616234936362828,-677
1711469744347,599616234944027444,-697
1711469744355,599616234951692060,-699
1711469744361,599616234959356676,-677
1711469744369,599616234967021292,-634
1711469744377,599616234974685908,-600
1711469744385,599616234982350524,-582
1711469744393,599616234990015140,-598
1711469744401,599616234997679756,-614
1711469744408,599616235005344372,-571
1711469744416,599616235013008988,-499
1711469744424,599616235020673604,-450
1711469744431,599616235028338220,-428
1711469744439,599616235036002836,-437
1711469744447,599616235043667452,-441
1711469744454,599616235051332068,-390
1711469744462,599616235058996684,-307
1711469744470,599616235066661300,-235
1711469744477,599616235074325916,-188
1711469744485,599616235081990532,-170
1711469744493,599616235089655148,-172
1711469744500,599616235097319764,-186
1711469744508,599616235104984380,-219
1711469744516,599616235112648996,-242
1711469744523,599616235120313612,-217
1711469744531,599616235127978228,-190
1711469744539,599616235135642844,-195
1711469744545,599616235143307460,-181
1711469744553,599616235150972076,-139
1711469744561,599616235158636692,-87
1711469744569,599616235166301308,-51
1711469744577,599616235173965924,-31
1711469744585,599616235181630540,-22
1711469744592,599616235189295156,-11
1711469744600,599616235196959772,15
1711469744608,599616235204624388,65
1711469744615,599616235212289004,107
1711469744623,599616235219953620,116
1711469744631,599616235227618236,123
1711469744638,599616235235282852,136
1711469744646,599616235242947468,143
1711469744654,599616235250612084,165
1711469744661,599616235258276700,201
1711469744669,599616235265941316,212
1711469744677,599616235273605932,226
1711469744684,599616235281270548,248
1711469744692,599616235288935164,235
1711469744700,599616235296599780,228
1711469744707,599616235304264396,257
1711469744715,599616235311929012,264
1711469744723,599616235319593628,262
1711469744729,599616235327258244,293
1711469744737,599616235334942994,307
1711469744745,599616235342607331,286
1711469744753,599616235350271668,233
1711469744761,599616235357936005,150
1711469744769,599616235365600342,121
1711469744776,599616235373264679,145
1711469744784,599616235380929016,91
1711469744792,599616235388593353,-15
1711469744799,599616235396257690,-22
1711469744807,599616235403922027,24
1711469744815,599616235411586364,35
1711469744822,599616235419250701,-6
1711469744830,599616235426915038,-219
1711469744838,599616235434579375,-493
1711469744845,599616235442243712,-410
1711469744853,599616235449908049,-40
1711469744860,599616235457572386,76
1711469744868,599616235465236723,-58
1711469744876,599616235472901060,-62
1711469744883,599616235480565397,11
1711469744891,599616235488229734,-6
1711469744899,599616235495894071,-15
1711469744905,599616235503558408,24
1711469744913,599616235511222745,56
1711469744921,599616235518887082,89
1711469744929,599616235526551419,123
1711469744937,599616235534215756,105
1711469744945,599616235541880093,80
1711469744952,599616235549544430,105
1711469744960,599616235557208767,150
1711469744968,599616235564873104,181
1711469744975,599616235572537441,197
1711469744983,599616235580201778,181
1711469744991,599616235587866115,114
1711469744998,599616235595530452,0
1711469745006,599616235603194789,-91
1711469745014,599616235610859126,-91
1711469745021,599616235618523463,-69
1711469745029,599616235626187800,-112
1711469745037,599616235633852137,-165
1711469745044,599616235641516474,-159
1711469745052,599616235649180811,-121
1711469745060,599616235656845148,-96
1711469745067,599616235664509485,-116
1711469745075,599616235672173822,-195
1711469745083,599616235679838159,-284
1711469745089,599616235687502496,-347
1711469745097,599616235695166833,-372
1711469745105,599616235702831170,-349
1711469745113,599616235710495507,-302
1711469745121,599616235718159844,-284
1711469745129,599616235725824181,-300
1711469745136,599616235733488518,-291
1711469745144,599616235741152855,-242
1711469745152,599616235748817192,-199
1711469745159,599616235756481529,-172
1711469745167,599616235764145866,-159
1711469745175,599616235771810203,-183
1711469745182,599616235779474540,-197
1711469745190,599616235787138877,-156
1711469745198,599616235794803214,-109
1711469745205,599616235802467551,-78
1711469745213,599616235810131888,-58
1711469745221,599616235817796225,-73
1711469745228,599616235825460562,-100
1711469745236,599616235833124899,-89
1711469745244,599616235840789236,-94
1711469745251,599616235848453573,-141
1711469745259,599616235856117910,-154
1711469745267,599616235863782247,-147
1711469745273,599616235871446584,-163
1711469745281,599616235879110921,-154
1711469745289,599616235886775258,-109
1711469745297,599616235894414532,-62
1711469745305,599616235902079218,-26
1711469745313,599616235909743904,-6
1711469745320,599616235917408590,-13
1711469745328,599616235925073276,-56
1711469745336,599616235932737962,-152
1711469745343,599616235940402648,-215
1711469745351,599616235948067334,-188
1711469745359,599616235955732020,-168
1711469745366,599616235963396706,-224
1711469745374,599616235971061392,-293
1711469745382,599616235978726078,-300
1711469745389,599616235986390764,-253
1711469745397,599616235994055450,-215
1711469745405,599616236001720136,-199
1711469745412,599616236009384822,-183
1711469745420,599616236017049508,-174
1711469745428,599616236024714194,-150
1711469745435,599616236032378880,-94
1711469745443,599616236040043566,-51
1711469745451,599616236047708252,-42
1711469745457,599616236055372938,-29
1711469745465,599616236063037624,-13
1711469745473,599616236070702310,-2
1711469745481,599616236078366996,22
1711469745489,599616236086031682,13
1711469745497,599616236093696368,-53
1711469745504,599616236101361054,-65
1711469745512,599616236109025740,-20
1711469745520,599616236116690426,-53
1711469745527,599616236124355112,-159
1711469745535,599616236132019798,-280
1711469745543,599616236139684484,-260
1711469745550,599616236147349170,49
1711469745558,599616236155013856,307
1711469745566,599616236162678542,204
1711469745573,599616236170343228,91
1711469745581,599616236178007914,170
1711469745589,599616236185672600,186
1711469745596,599616236193337286,150
1711469745604,599616236201001972,199
1711469745612,599616236208666658,230
1711469745619,599616236216331344,206
1711469745627,599616236223996030,210
1711469745635,599616236231660716,228
1711469745641,599616236239325402,226
1711469745649,599616236246990088,251
1711469745657,599616236254654774,278
1711469745665,599616236262319460,262
1711469745673,599616236269984146,244
1711469745681,599616236277648832,246
1711469745688,599616236285313518,251
1711469745696,599616236292978204,264
1711469745704,599616236300642890,291
1711469745711,599616236308307576,289
1711469745719,599616236315972262,257
1711469745727,599616236323636948,228
1711469745734,599616236331301634,190
1711469745742,599616236338966320,125
1711469745750,599616236346631006,87
1711469745757,599616236354295692,80
1711469745765,599616236361960378,47
1711469745773,599616236369625064,20
1711469745780,599616236377289750,40
1711469745788,599616236384954436,53
1711469745796,599616236392619122,17
1711469745803,599616236400283808,-26
1711469745811,599616236407948494,-56
1711469745819,599616236415613180,-76
1711469745825,599616236423277866,-78
1711469745833,599616236430942552,-121
1711469745841,599616236438607238,-215
1711469745849,599616236446271924,-228
1711469745857,599616236453956718,-208
1711469745865,599616236461621125,-278
1711469745872,599616236469285532,-343
1711469745880,599616236476949939,-338
1711469745888,599616236484614346,-360
1711469745895,599616236492278753,-412
1711469745903,599616236499943160,-437
1711469745911,599616236507607567,-477
1711469745918,599616236515271974,-497
1711469745926,599616236522936381,-455
1711469745934,599616236530600788,-403
1711469745941,599616236538265195,-374
1711469745949,599616236545929602,-378
1711469745957,599616236553594009,-459
1711469745964,599616236561258416,-526
1711469745972,599616236568922823,-491
1711469745980,599616236576587230,-459
1711469745987,599616236584251637,-502
1711469745995,599616236591916044,-531
1711469746003,599616236599580451,-529
1711469746009,599616236607244858,-526
1711469746017,599616236614909265,-479
1711469746025,599616236622573672,-399
1711469746033,599616236630238079,-343
1711469746041,599616236637902486,-311
1711469746048,599616236645566893,-298
1711469746056,599616236653231300,-300
1711469746064,599616236660895707,-271
1711469746071,599616236668560114,-208
1711469746079,599616236676224521,-143
1711469746087,599616236683888928,-103
1711469746094,599616236691553335,-94
1711469746102,599616236699217742,-105
1711469746110,599616236706882149,-96
1711469746117,599616236714546556,-51
1711469746125,599616236722210963,-6
1711469746133,599616236729875370,15
1711469746140,599616236737539777,33
1711469746148,599616236745204184,44
1711469746156,599616236752868591,53
1711469746163,599616236760532998,82
1711469746171,599616236768197405,125
1711469746179,599616236775861812,154
1711469746185,599616236783526219,163
1711469746193,599616236791190626,168
1711469746201,599616236798855033,168
1711469746209,599616236806519440,179
1711469746217,599616236814183847,206
1711469746225,599616236821848254,212
1711469746232,599616236829512661,154
1711469746240,599616236837177068,49
1711469746248,599616236844841475,-76
1711469746255,599616236852505882,-212
1711469746263,599616236860170289,-154
1711469746271,599616236867834696,172
1711469746278,599616236875499103,347
1711469746286,599616236883163510,212
1711469746294,599616236890827917,139
1711469746301,599616236898492324,195
1711469746309,599616236906156731,204
1711469746317,599616236913821138,197
1711469746324,599616236921485545,215
1711469746332,599616236929149952,163
1711469746340,599616236936814359,29
1711469746347,599616236944478766,-53
1711469746355,599616236952143173,-29
1711469746363,599616236959807580,2
1711469746369,599616236967471987,-4
1711469746377,599616236975136394,8
1711469746385,599616236982800801,49
1711469746393,599616236990465208,62
1711469746401,599616236998129615,56
1711469746409,599616237005794022,76
1711469746416,599616237013448464,89
1711469746424,599616237021113010,89
1711469746432,599616237028777556,107
1711469746439,599616237036442102,107
1711469746447,599616237044106648,76
1711469746455,599616237051771194,62
1711469746462,599616237059435740,56
1711469746470,599616237067100286,31
1711469746478,599616237074764832,-15
1711469746485,599616237082429378,-96
1711469746493,599616237090093924,-201
1711469746501,599616237097758470,-275
1711469746508,599616237105423016,-313
1711469746516,599616237113087562,-338
1711469746524,599616237120752108,-318
1711469746531,599616237128416654,-269
1711469746539,599616237136081200,-248
1711469746547,599616237143745746,-248
1711469746553,599616237151410292,-233
1711469746561,599616237159074838,-201
1711469746569,599616237166739384,-152
1711469746577,599616237174403930,-121
1711469746585,599616237182068476,-161
1711469746593,599616237189733022,-244
1711469746600,599616237197397568,-313
1711469746608,599616237205062114,-360
1711469746616,599616237212726660,-356
1711469746623,599616237220391206,-320
1711469746631,599616237228055752,-309
1711469746639,599616237235720298,-331
1711469746646,599616237243384844,-358
1711469746654,599616237251049390,-343
1711469746662,599616237258713936,-298
1711469746669,599616237266378482,-260
1711469746677,599616237274043028,-226
1711469746685,599616237281707574,-219
1711469746692,599616237289372120,-242
1711469746700,599616237297036666,-233
1711469746708,599616237304701212,-183
1711469746715,599616237312365758,-159
1711469746723,599616237320030304,-188
1711469746731,599616237327694850,-246
1711469746737,599616237335359396,-289
1711469746745,599616237343023942,-278
1711469746753,599616237350688488,-224
1711469746761,599616237358353034,-170
1711469746769,599616237366017580,-121
1711469746777,599616237373682126,-94
1711469746784,599616237381346672,-114
1711469746792,599616237389011218,-118
1711469746800,599616237396675764,-62
1711469746807,599616237404340310,-8
1711469746815,599616237412004856,20
1711469746823,599616237419669402,51
1711469746830,599616237427333948,51
1711469746838,599616237434998494,-20
1711469746846,599616237442663040,-125
1711469746853,599616237450327586,-177
1711469746861,599616237457992132,-147
1711469746869,599616237465656678,-105
1711469746876,599616237473321224,-114
1711469746884,599616237480985770,-141
1711469746892,599616237488650316,-107
1711469746899,599616237496314862,-29
1711469746907,599616237503979408,29
1711469746915,599616237511643954,60
1711469746921,599616237519308500,69
1711469746929,599616237526973046,53
1711469746937,599616237534637592,49
1711469746945,599616237542302138,91
1711469746953,599616237549966684,150
1711469746961,599616237557631230,163
1711469746968,599616237565295776,114
1711469746976,599616237572950308,38
1711469746984,599616237580614994,-13
1711469746991,599616237588279680,-78
1711469746999,599616237595944366,-199
1711469747007,599616237603609052,-204
1711469747014,599616237611273738,71
1711469747022,599616237618938424,275
1711469747030,599616237626603110,91
1711469747037,599616237634267796,-89
1711469747045,599616237641932482,-6
1711469747053,599616237649597168,58
1711469747060,599616237657261854,22
1711469747068,599616237664926540,35
1711469747076,599616237672591226,62
1711469747083,599616237680255912,49
1711469747091,599616237687920598,71
1711469747099,599616237695585284,118
1711469747105,599616237703249970,123
1711469747113,599616237710914656,123
1711469747121,599616237718579342,152
1711469747129,599616237726244028,161
1711469747137,599616237733908714,159
1711469747144,599616237741573400,181
1711469747152,599616237749238086,197
1711469747160,599616237756902772,197
1711469747167,599616237764567458,210
1711469747175,599616237772232144,210
1711469747183,599616237779896830,201
1711469747190,599616237787561516,208
1711469747198,599616237795226202,208
1711469747206,599616237802890888,195
1711469747213,599616237810555574,147
1711469747221,599616237818220260,22
1711469747229,599616237825884946,-87
1711469747236,599616237833549632,-100
1711469747244,599616237841214318,-96
1711469747252,599616237848879004,-100
1711469747259,599616237856543690,-71
1711469747267,599616237864208376,-47
1711469747275,599616237871873062,-51
1711469747281,599616237879537748,-42
1711469747289,599616237887202434,-38
1711469747297,599616237894867120,-71
1711469747305,599616237902531806,-87
1711469747313,599616237910196492,-100
1711469747321,599616237917861178,-174
1711469747328,599616237925525864,-239
1711469747336,599616237933190550,-246
1711469747344,599616237940855236,-284
1711469747351,599616237948519922,-399
1711469747359,599616237956184608,-459
1711469747367,599616237963849294,-441
1711469747374,599616237971513980,-452
1711469747382,599616237979178666,-475
1711469747390,599616237986843352,-434
1711469747397,599616237994508038,-367
1711469747405,599616238002172724,-316
1711469747413,599616238009837410,-286
1711469747420,599616238017502096,-286
1711469747428,599616238025166782,-302
1711469747436,599616238032831468,-282
1711469747443,599616238040496154,-233
1711469747451,599616238048160840,-195
1711469747459,599616238055825526,-204
1711469747465,599616238063490212,-284
1711469747473,599616238071154898,-340
1711469747481,599616238078819584,-302
1711469747489,599616238086484270,-242
1711469747497,599616238094148956,-201
1711469747505,599616238101813642,-147
1711469747512,599616238109478328,-121
1711469747520,599616238117143014,-147
1711469747528,599616238124807700,-141
1711469747535,599616238132442310,-78
1711469747543,599616238140107414,-22
1711469747551,599616238147772518,20
1711469747558,599616238155437622,51
1711469747566,599616238163102726,31
1711469747574,599616238170767830,15
1711469747581,599616238178432934,53
1711469747589,599616238186098038,96
1711469747597,599616238193763142,130
1711469747604,599616238201428246,145
1711469747612,599616238209093350,62
1711469747620,599616238216758454,-33
1711469747627,599616238224423558,0
1711469747635,599616238232088662,73
1711469747643,599616238239753766,89
1711469747649,599616238247418870,105
1711469747657,599616238255083974,114
1711469747665,599616238262749078,87
1711469747673,599616238270414182,94
1711469747681,599616238278079286,145
1711469747689,599616238285744390,183
1711469747696,599616238293409494,208
1711469747704,599616238301074598,199
1711469747712,599616238308739702,112
1711469747719,599616238316404806,-40
1711469747727,599616238324069910,-181
1711469747735,599616238331735014,-121
1711469747742,599616238339400118,215
1711469747750,599616238347065222,408
1711469747758,599616238354730326,251
1711469747765,599616238362395430,143
1711469747773,599616238370060534,235
1711469747781,599616238377725638,284
1711469747788,599616238385390742,269
1711469747796,599616238393055846,273
1711469747804,599616238400720950,262
1711469747811,599616238408386054,239
1711469747819,599616238416051158,255
1711469747827,599616238423716262,295
1711469747833,599616238431381366,311
1711469747841,599616238439046470,291
1711469747849,599616238446711574,221
1711469747857,599616238454376678,89
1711469747865,599616238462041782,17
1711469747873,599616238469706886,53
1711469747880,599616238477371990,80
1711469747888,599616238485037094,65
1711469747896,599616238492702198,71
1711469747903,599616238500367302,82
1711469747911,599616238508032406,71
1711469747919,599616238515697510,87
1711469747926,599616238523362614,118
1711469747934,599616238531027718,103
1711469747942,599616238538692822,42
1711469747949,599616238546357926,-26
1711469747957,599616238554023030,-94
1711469747965,599616238561688134,-130
1711469747972,599616238569353238,-132
1711469747980,599616238577018342,-134
1711469747988,599616238584683446,-132
1711469747995,599616238592348550,-98
1711469748003,599616238600013654,-76
1711469748011,599616238607678758,-82
1711469748017,599616238615343862,-107
1711469748025,599616238623008966,-147
1711469748033,599616238630674070,-186
1711469748041,599616238638339174,-217
1711469748049,599616238646004278,-251
1711469748057,599616238653669382,-269
1711469748064,599616238661334486,-275
1711469748072,599616238668999590,-284
1711469748080,599616238676664694,-278
1711469748087,599616238684329798,-244
1711469748095,599616238691994928,-257
1711469748103,599616238699660032,-383
1711469748110,599616238707325136,-513
1711469748118,599616238714990240,-526
1711469748126,599616238722655344,-497
1711469748133,599616238730320448,-488
1711469748141,599616238737985552,-493
1711469748149,599616238745650656,-582
1711469748156,599616238753315760,-715
1711469748164,599616238760980864,-728
1711469748172,599616238768645968,-663
1711469748179,599616238776311072,-632
1711469748187,599616238783976176,-598
1711469748195,599616238791641280,-569
1711469748201,599616238799306384,-612
1711469748209,599616238806971488,-665
1711469748217,599616238814636592,-636
1711469748225,599616238822301696,-571
1711469748233,599616238829966800,-533
1711469748241,599616238837631904,-520
1711469748248,599616238845297008,-535
1711469748256,599616238852962112,-553
1711469748264,599616238860627216,-522
1711469748271,599616238868292320,-468
1711469748279,599616238875957424,-437
1711469748287,599616238883622528,-421
1711469748294,599616238891287632,-430
1711469748302,599616238898952736,-443
1711469748310,599616238906617840,-417
1711469748317,599616238914282944,-356
1711469748325,599616238921948048,-311
1711469748333,599616238929613152,-280
1711469748340,599616238937278256,-278
1711469748348,599616238944943360,-320
1711469748356,599616238952608464,-390
1711469748363,599616238960273568,-473
1711469748371,599616238967938672,-491
1711469748379,599616238975603776,-421
1711469748385,599616238983268880,-385
1711469748393,599616238990933984,-414
1711469748401,599616238998599088,-410
1711469748409,599616239006264192,-349
1711469748417,599616239013929296,-295
1711469748425,599616239021594400,-260
1711469748432,599616239029259504,-246
1711469748440,599616239036924608,-269
1711469748448,599616239044589712,-322
1711469748455,599616239052254816,-351
1711469748463,599616239059919920,-334
1711469748471,599616239067585024,-316
1711469748478,599616239075250128,-378
1711469748486,599616239082915232,-594
1711469748494,599616239090580336,-784
1711469748501,599616239098245440,-580
1711469748509,599616239105910544,-210
1711469748517,599616239113575648,-204
1711469748524,599616239121240752,-336
1711469748532,599616239128905856,-291
1711469748539,599616239136570960,-255
1711469748547,599616239144236064,-286
1711469748555,599616239151901168,-244
1711469748561,599616239159566272,-174
1711469748569,599616239167231376,-161
1711469748577,599616239174896480,-165
1711469748585,599616239182561584,-165
1711469748593,599616239190226688,-163
1711469748601,599616239197891792,-143
1711469748608,599616239205556896,-100
1711469748616,599616239213222000,-76
1711469748624,599616239220887104,-80
1711469748631,599616239228552208,-96
1711469748639,599616239236217312,-116
1711469748647,599616239243882416,-125
1711469748654,599616239251517448,-127
1711469748662,599616239259182970,-168
1711469748670,599616239266848492,-226
1711469748677,599616239274514014,-228
1711469748685,599616239282179536,-208
1711469748693,599616239289845058,-253
1711469748700,599616239297510580,-316
1711469748708,599616239305176102,-322
1711469748716,599616239312841624,-316
1711469748723,599616239320507146,-327
1711469748731,599616239328172668,-351
1711469748739,599616239335838190,-399
1711469748745,599616239343503712,-430
1711469748753,599616239351169234,-455
1711469748761,599616239358834756,-502
1711469748769,599616239366500278,-504
1711469748777,599616239374165800,-513
1711469748785,599616239381831322,-638
1711469748792,599616239389496844,-710
1711469748800,599616239397162366,-641
1711469748808,599616239404827888,-603
1711469748815,599616239412493410,-612
1711469748823,599616239420158932,-607
1711469748831,599616239427824454,-654
1711469748838,599616239435489976,-703
1711469748846,599616239443155498,-659
1711469748854,599616239450821020,-614
1711469748861,599616239458486542,-632
1711469748869,599616239466152064,-688
1711469748877,599616239473817586,-728
1711469748884,599616239481483108,-706
1711469748892,599616239489148630,-656
1711469748900,599616239496814152,-618
1711469748907,599616239504479674,-564
1711469748915,599616239512145196,-488
1711469748923,599616239519810718,-439
1711469748929,599616239527476240,-430
1711469748937,599616239535141762,-459
1711469748945,599616239542807284,-497
1711469748953,599616239550472806,-470
1711469748961,599616239558138328,-390
1711469748969,599616239565803850,-336
1711469748976,599616239573469372,-318
1711469748984,599616239581134894,-313
1711469748992,599616239588800416,-304
1711469748999,599616239596465938,-284
1711469749007,599616239604131460,-235
1711469749015,599616239611796982,-181
1711469749022,599616239619462504,-195
1711469749030,599616239627128026,-280
1711469749038,599616239634793548,-320
1711469749045,599616239642459070,-262
1711469749053,599616239650124592,-199
1711469749061,599616239657790114,-161
1711469749068,599616239665455636,-114
1711469749076,599616239673121158,-98
1711469749084,599616239680786680,-114
1711469749091,599616239688452202,-85
1711469749099,599616239696117724,-26
1711469749107,599616239703783246,11
1711469749113,599616239711448768,44
1711469749121,599616239719114290,58
1711469749129,599616239726779812,24
1711469749137,599616239734445334,24
1711469749145,599616239742110856,87
1711469749153,599616239749776378,141
1711469749160,599616239757441900,165
1711469749168,599616239765107422,165
1711469749176,599616239772772944,118
1711469749183,599616239780438466,47
1711469749191,599616239788103988,8
1711469749199,599616239795769510,26
1711469749206,599616239803435032,71
1711469749214,599616239811130678,67
1711469749222,599616239818795782,-15
1711469749229,599616239826460886,-76
1711469749237,599616239834125990,-69
1711469749245,599616239841791094,-134
1711469749252,599616239849456198,-275
1711469749260,599616239857121302,-212
1711469749268,599616239864786406,44
1711469749275,599616239872451510,87
1711469749283,599616239880116614,-71
1711469749291,599616239887781718,-78
1711469749297,599616239895446822,22
1711469749305,599616239903111926,35
1711469749313,599616239910777030,2
1711469749321,599616239918442134,-22
1711469749329,599616239926107238,-58
1711469749337,599616239933772342,-80
1711469749344,599616239941437446,-65
1711469749352,599616239949102550,-69
1711469749360,599616239956767654,-103
1711469749367,599616239964432758,-139
1711469749375,599616239972097862,-208
1711469749383,599616239979762966,-260
1711469749390,599616239987428070,-219
1711469749398,599616239995093174,-195
1711469749406,599616240002758278,-257
1711469749413,599616240010423382,-351
1711469749421,599616240018088486,-459
1711469749429,599616240025753590,-556
1711469749436,599616240033418694,-607
1711469749444,599616240041083798,-616
1711469749452,599616240048748902,-605
1711469749459,599616240056414006,-594
1711469749467,599616240064079110,-580
1711469749475,599616240071744214,-551
1711469749481,599616240079409318,-502
1711469749489,599616240087074422,-459
1711469749497,599616240094739526,-434
1711469749505,599616240102404630,-412
1711469749513,599616240110069734,-405
1711469749521,599616240117734838,-394
1711469749528,599616240125399942,-356
1711469749536,599616240133065046,-313
1711469749544,599616240140730150,-280
1711469749551,599616240148395254,-233
1711469749559,599616240156060358,-230
1711469749567,599616240163725462,-309
1711469749574,599616240171390566,-329
1711469749582,599616240179055670,-264
1711469749590,599616240186720774,-233
1711469749597,599616240194385878,-210
1711469749605,599616240202050982,-154
1711469749613,599616240209716086,-118
1711469749620,599616240217381190,-89
1711469749628,599616240225046294,-49
1711469749636,599616240232711398,-24
1711469749643,599616240240376502,4
1711469749651,599616240248041606,53
1711469749659,599616240255706710,69
1711469749665,599616240263371814,53
1711469749673,599616240271036918,42
1711469749681,599616240278702022,-2
1711469749689,599616240286367126,-31
1711469749697,599616240294032230,11
1711469749705,599616240301697334,2
1711469749712,599616240309362438,-89
1711469749720,599616240317027542,-118
1711469749728,599616240324692646,-78
1711469749735,599616240332357750,-47
1711469749743,599616240340022854,-4
1711469749751,599616240347687958,47
1711469749758,599616240355353062,56
1711469749766,599616240363018166,51
1711469749774,599616240370658238,71
1711469749781,599616240378323690,105
1711469749789,599616240385989142,150
1711469749797,599616240393654594,201
1711469749804,599616240401320046,217
1711469749812,599616240408985498,197
1711469749820,599616240416650950,188
1711469749827,599616240424316402,199
1711469749835,599616240431981854,221
1711469749843,599616240439647306,253
1711469749849,599616240447312758,237
1711469749857,599616240454978210,136
1711469749865,599616240462643662,60
1711469749873,599616240470309114,76
1711469749881,599616240477974566,26
1711469749889,599616240485640018,-89
1711469749896,599616240493305470,-105
1711469749904,599616240500970922,-127
1711469749912,599616240508636374,-224
1711469749919,599616240516301826,-242
1711469749927,599616240523967278,-221
1711469749935,599616240531632730,-228
1711469749942,599616240539298182,-177
1711469749950,599616240546963634,-132
1711469749958,599616240554629086,-228
1711469749965,599616240562294538,-390
1711469749973,599616240569959990,-414
1711469749981,599616240577625442,-132
1711469749988,599616240585290894,226
1711469749996,599616240592956346,224
1711469750004,599616240600621798,31
1711469750011,599616240608287250,42
1711469750019,599616240615952702,121
1711469750027,599616240623618154,82
1711469750033,599616240631283606,49
1711469750041,599616240638949058,69
1711469750049,599616240646614510,33
1711469750057,599616240654279962,-17
1711469750065,599616240661945414,-6
1711469750073,599616240669610866,20
1711469750080,599616240677276318,38
1711469750088,599616240684941770,56
1711469750096,599616240692607222,-6
1711469750103,599616240700272674,-145
1711469750111,599616240707938126,-206
1711469750119,599616240715603578,-204
1711469750126,599616240723269030,-237
1711469750134,599616240730934482,-260
1711469750142,599616240738599934,-260
1711469750149,599616240746265386,-291
1711469750157,599616240753930838,-298
1711469750165,599616240761596290,-284
1711469750172,599616240769261742,-325
1711469750180,599616240776927194,-381
1711469750188,599616240784592646,-385
1711469750195,599616240792258098,-383
1711469750203,599616240799923550,-383
1711469750211,599616240807589002,-340
1711469750217,599616240815254454,-278
1711469750225,599616240822919906,-246
1711469750233,599616240830585358,-242
1711469750241,599616240838250810,-237
1711469750249,599616240845916262,-212
1711469750257,599616240853581714,-159
1711469750264,599616240861247166,-89
1711469750272,599616240868912618,-35
1711469750280,599616240876578070,-8
1711469750287,599616240884243522,-11
1711469750295,599616240891908974,-67
1711469750302,599616240899574426,-116
1711469750310,599616240907239878,-76
1711469750318,599616240914905330,-26
1711469750325,599616240922570782,-22
1711469750333,599616240930256300,-11
1711469750341,599616240937921474,-44
1711469750349,599616240945586648,-134
1711469750356,599616240953251822,-136
1711469750364,599616240960916996,-71
1711469750372,599616240968582170,-58
1711469750379,599616240976247344,-58
1711469750387,599616240983912518,-80
1711469750395,599616240991577692,-154
1711469750401,599616240999242866,-161
1711469750409,599616241006908040,-114
1711469750417,599616241014573214,-163
1711469750425,599616241022238388,-235
1711469750433,599616241029903562,-244
1711469750440,599616241037568736,-298
1711469750448,599616241045233910,-358
1711469750456,599616241052899084,-302
1711469750463,599616241060564258,-242
1711469750471,599616241068229432,-219
1711469750479,599616241075894606,-161
1711469750486,599616241083559780,-161
1711469750494,599616241091224954,-251
1711469750502,599616241098890128,-266
1711469750509,599616241106555302,-206
1711469750517,599616241114220476,-163
1711469750525,599616241121885650,-114
1711469750532,599616241129550824,-56
1711469750540,599616241137215998,-40
1711469750548,599616241144881172,-38
1711469750555,599616241152546346,-6
1711469750563,599616241160211520,38
1711469750571,599616241167876694,94
1711469750577,599616241175541868,139
1711469750585,599616241183207042,134
1711469750593,599616241190872216,103
1711469750601,599616241198537390,91
1711469750609,599616241206202564,109
1711469750617,599616241213867738,147
1711469750624,599616241221532912,192
1711469750632,599616241229198086,181
1711469750640,599616241236863260,87
1711469750647,599616241244528434,33
1711469750655,599616241252193608,65
1711469750663,599616241259858782,56
1711469750670,599616241267523956,11
1711469750678,599616241275189130,22
1711469750686,599616241282854304,35
1711469750693,599616241290519478,20
1711469750701,599616241298184652,51
1711469750709,599616241305849826,114
1711469750716,599616241313515000,125
1711469750724,599616241321180174,47
1711469750732,599616241328845348,-112
1711469750739,599616241336510522,-159
1711469750747,599616241344175696,91
1711469750755,599616241351840870,304
1711469750761,599616241359506044,212
1711469750769,599616241367171218,114
1711469750777,599616241374836392,100
1711469750785,599616241382501566,0
1711469750793,599616241390166740,-67
1711469750801,599616241397831914,2
1711469750808,599616241405497088,51
1711469750816,599616241413162262,22
1711469750824,599616241420827436,-29
1711469750831,599616241428492610,-98
1711469750839,599616241436157784,-161
1711469750847,599616241443822958,-179
1711469750854,599616241451488132,-161
1711469750862,599616241459153306,-139
1711469750870,599616241466818480,-139
1711469750877,599616241474483654,-170
1711469750885,599616241482148828,-235
1711469750893,599616241489849140,-322
1711469750900,599616241497513826,-367
1711469750908,599616241505178512,-369
1711469750916,599616241512843198,-414
1711469750923,599616241520507884,-504
1711469750931,599616241528172570,-569
1711469750939,599616241535837256,-560
1711469750945,599616241543501942,-504
1711469750953,599616241551166628,-468
1711469750961,599616241558831314,-448
1711469750969,599616241566496000,-450
1711469750977,599616241574160686,-511
1711469750985,599616241581825372,-538
1711469750992,599616241589490058,-459
1711469751000,599616241597154744,-367
1711469751008,599616241604819430,-322
1711469751015,599616241612484116,-280
1711469751023,599616241620148802,-239
1711469751031,599616241627813488,-197
1711469751038,599616241635478174,-130
1711469751046,599616241643142860,-56
1711469751054,599616241650807546,-4
1711469751061,599616241658472232,22
1711469751069,599616241666136918,40
1711469751077,599616241673801604,56
1711469751084,599616241681466290,87
1711469751092,599616241689130976,134
1711469751100,599616241696795662,174
1711469751107,599616241704460348,190
1711469751115,599616241712125034,197
1711469751123,599616241719789720,204
1711469751129,599616241727454406,201
1711469751137,599616241735119092,212
1711469751145,599616241742783778,237
1711469751153,599616241750448464,210
1711469751161,599616241758113150,134
1711469751169,599616241765777836,65
1711469751176,599616241773442522,4
1711469751184,599616241781107208,2
1711469751192,599616241788771894,49
1711469751199,599616241796436580,67
1711469751207,599616241804101266,85
1711469751215,599616241811765952,130
1711469751222,599616241819430638,145
1711469751230,599616241827095324,145
1711469751238,599616241834760010,181
1711469751245,599616241842424696,208
1711469751253,599616241850089382,219
1711469751261,599616241857754068,253
1711469751268,599616241865418754,273
1711469751276,599616241873083440,271
1711469751284,599616241880748126,286
1711469751291,599616241888412812,304
1711469751299,599616241896077498,309
1711469751307,599616241903742184,320
1711469751313,599616241911406870,302
1711469751321,599616241919071556,266
1711469751329,599616241926736242,264
1711469751337,599616241934400928,282
1711469751345,599616241942065614,289
1711469751353,599616241949730300,295
1711469751360,599616241957394986,293
1711469751368,599616241965059672,228
1711469751376,599616241972724358,150
1711469751383,599616241980389044,143
1711469751391,599616241988053730,125
1711469751399,599616241995718416,0
1711469751406,599616242003383102,-118
1711469751414,599616242011047788,-163
1711469751422,599616242018712474,-208
1711469751429,599616242026377160,-230
1711469751437,599616242034041846,-197
1711469751445,599616242041706532,-150
1711469751452,599616242049341144,-105
1711469751460,599616242057006248,-73
1711469751468,599616242064671352,-69
1711469751475,599616242072336456,-80
1711469751483,599616242080001560,-121
1711469751491,599616242087666664,-233
1711469751497,599616242095331768,-334
1711469751505,599616242102996872,-215
1711469751513,599616242110661976,-17
1711469751521,599616242118327080,-85
1711469751529,599616242125992184,-228
1711469751537,599616242133657288,-170
1711469751544,599616242141322392,-71
1711469751552,599616242148987496,-49
1711469751560,599616242156652600,-40
1711469751567,599616242164317704,-44
1711469751575,599616242171982808,-44
1711469751583,599616242179647912,4
1711469751590,599616242187313016,67
1711469751598,599616242194978120,112
1711469751606,599616242202643224,127
1711469751613,599616242210308328,112
1711469751621,599616242217973432,112
1711469751629,599616242225638536,152
1711469751636,599616242233303640,188
1711469751644,599616242240968744,186
1711469751652,599616242248633848,116
1711469751659,599616242256298952,20
1711469751667,599616242263964056,-17
1711469751675,599616242271629160,8
1711469751681,599616242279294264,42
1711469751689,599616242286959368,73
1711469751697,599616242294624472,89
1711469751705,599616242302289576,29
1711469751713,599616242309954680,-71
1711469751721,599616242317619784,-89
1711469751728,599616242325284888,-33
1711469751736,599616242332949992,6
1711469751744,599616242340615096,29
1711469751751,599616242348280200,35
1711469751759,599616242355945304,24
1711469751767,599616242363610408,42
1711469751774,599616242371275512,100
1711469751782,599616242378940616,161
1711469751790,599616242386605720,210
1711469751797,599616242394270824,230
1711469751805,599616242401935928,226
1711469751813,599616242409601032,228
1711469751820,599616242417266136,260
1711469751828,599616242424931240,300
1711469751836,599616242432596344,311
1711469751843,599616242440261448,280
1711469751851,599616242447926552,199
1711469751859,599616242455591656,98
1711469751865,599616242463256760,69
1711469751873,599616242470921864,118
1711469751881,599616242478586968,145
1711469751889,599616242486252072,127
1711469751897,599616242493917176,58
1711469751905,599616242501582280,-53
1711469751912,599616242509247384,-85
1711469751920,599616242516912488,-20
1711469751928,599616242524577592,8
1711469751935,599616242532242696,6
1711469751943,599616242539907800,33
1711469751950,599616242547572904,51
1711469751958,599616242555238008,51
1711469751966,599616242562903112,91
1711469751973,599616242570568216,139
1711469751981,599616242578233320,134
1711469751989,599616242585898424,127
1711469751996,599616242593563528,152
1711469752004,599616242601228632,161
1711469752012,599616242608893760,165
1711469752019,599616242616558864,170
1711469752027,599616242624223968,159
1711469752035,599616242631889072,163
1711469752041,599616242639554176,172
1711469752049,599616242647219280,107
1711469752057,599616242654884384,26
1711469752065,599616242662549488,26
1711469752073,599616242670214592,38
1711469752081,599616242677879696,35
1711469752088,599616242685544800,58
1711469752096,599616242693209904,22
1711469752104,599616242700875008,-69
1711469752111,599616242708540112,-78
1711469752119,599616242716205216,-42
1711469752127,599616242723870320,-40
1711469752134,599616242731535424,-29
1711469752142,599616242739200528,-49
1711469752150,599616242746865632,-114
1711469752157,599616242754530736,-118
1711469752165,599616242762195840,-82
1711469752173,599616242769860944,-71
1711469752180,599616242777526048,-31
1711469752188,599616242785191152,20
1711469752196,599616242792856256,-20
1711469752203,599616242800521360,-170
1711469752211,599616242808186464,-363
1711469752219,599616242815851568,-383
1711469752225,599616242823516672,-87
1711469752233,599616242831181776,134
1711469752241,599616242838846880,-42
1711469752249,599616242846511984,-246
1711469752257,599616242854177088,-217
1711469752265,599616242861842192,-168
1711469752272,599616242869507296,-168
1711469752280,599616242877172400,-132
1711469752288,599616242884837504,-125
1711469752295,599616242892502608,-201
1711469752303,599616242900167712,-262
1711469752311,599616242907832816,-286
1711469752318,599616242915497920,-318
1711469752326,599616242923163024,-318
1711469752334,599616242930828128,-291
1711469752341,599616242938493232,-313
1711469752349,599616242946158336,-349
1711469752357,599616242953823440,-334
1711469752364,599616242961488544,-293
1711469752372,599616242969153648,-278
1711469752380,599616242976818752,-291
1711469752387,599616242984483856,-340
1711469752395,599616242992148960,-396
1711469752403,599616242999814064,-432
1711469752409,599616243007479168,-499
1711469752417,599616243015144272,-551
1711469752425,599616243022809376,-508
1711469752433,599616243030474480,-522
1711469752441,599616243038139584,-656
1711469752449,599616243045804688,-699
1711469752456,599616243053469792,-603
1711469752464,599616243061134896,-526
1711469752472,599616243068800000,-468
1711469752479,599616243076465104,-410
1711469752487,599616243084130208,-401
1711469752495,599616243091795312,-383
1711469752502,599616243099460416,-295
1711469752510,599616243107125520,-199
1711469752518,599616243114790624,-136
1711469752525,599616243122455728,-87
1711469752533,599616243130120832,-67
1711469752541,599616243137785936,-69
1711469752548,599616243145451040,-51
1711469752556,599616243153116144,-20
1711469752564,599616243160781248,4
1711469752571,599616243168446376,31
1711469752579,599616243176111480,15
1711469752587,599616243183776584,-67
1711469752593,599616243191441688,-112
1711469752601,599616243199106792,-69
1711469752609,599616243206771896,-15
1711469752617,599616243214437000,15
1711469752625,599616243222102104,31
1711469752633,599616243229767208,-8
1711469752640,599616243237432312,-51
1711469752648,599616243245097416,-15
1711469752656,599616243252762520,47
1711469752663,599616243260427624,71
1711469752671,599616243268092728,73
1711469752679,599616243275757832,87
1711469752686,599616243283422936,96
1711469752694,599616243291088040,118
1711469752702,599616243298753144,165
1711469752709,599616243306418248,204
1711469752717,599616243314083352,210
1711469752725,599616243321748456,174
1711469752732,599616243329413560,35
1711469752740,599616243337078664,-112
1711469752748,599616243344743768,-94
1711469752755,599616243352408872,-13
1711469752763,599616243360073976,-11
1711469752771,599616243367739080,-6
1711469752777,599616243375404184,33
1711469752785,599616243383069288,44
1711469752793,599616243390734392,58
1711469752801,599616243398399496,100
1711469752809,599616243406064600,109
1711469752817,599616243413729704,105
1711469752824,599616243421394808,125
1711469752832,599616243429059912,139
1711469752840,599616243436725016,161
1711469752847,599616243444390120,186
1711469752855,599616243452055224,188
1711469752863,599616243459720328,210
1711469752870,599616243467385432,244
1711469752878,599616243475050536,219
1711469752886,599616243482715640,168
1711469752893,599616243490380744,161
1711469752901,599616243498045848,156
1711469752909,599616243505710952,80
1711469752916,599616243513376056,-40
1711469752924,599616243521041160,-132
1711469752932,599616243528706264,-217
1711469752939,599616243536371368,-313
1711469752947,599616243544036472,-441
1711469752955,599616243551701576,-506
1711469752961,599616243559366680,-266
1711469752969,599616243567031784,91
1711469752977,599616243574696888,60
1711469752985,599616243582361992,-179
1711469752993,599616243590027096,-179
1711469753001,599616243597692200,-82
1711469753008,599616243605357304,-91
1711469753016,599616243613022408,-85
1711469753024,599616243620687512,-51
1711469753031,599616243628352616,-73
1711469753039,599616243636017720,-87
1711469753047,599616243643682824,-60
1711469753054,599616243651347928,-60
1711469753062,599616243659013032,-100
1711469753070,599616243666678136,-145
1711469753077,599616243674343240,-221
1711469753085,599616243682008344,-304
1711469753093,599616243689673448,-316
1711469753100,599616243697338552,-286
1711469753108,599616243705003656,-262
1711469753116,599616243712668760,-237
1711469753123,599616243720333864,-264
1711469753131,599616243727998992,-345
1711469753139,599616243735664096,-356
1711469753145,599616243743329200,-302
1711469753153,599616243750994304,-284
1711469753161,599616243758659408,-295
1711469753169,599616243766324512,-345
1711469753177,599616243773989616,-432
1711469753185,599616243781654720,-446
1711469753192,599616243789319824,-381
1711469753200,599616243796984928,-336
1711469753208,599616243804650032,-307
1711469753215,599616243812315136,-309
1711469753223,599616243819980240,-381
1711469753231,599616243827645344,-390
1711469753238,599616243835310448,-286
1711469753246,599616243842975552,-201
1711469753254,599616243850640656,-165
1711469753261,599616243858305760,-161
1711469753269,599616243865970864,-235
1711469753277,599616243873635968,-286
1711469753284,599616243881301072,-217
1711469753292,599616243888966176,-143
1711469753300,599616243896631280,-109
1711469753307,599616243904296384,-73
1711469753315,599616243911961488,-76
1711469753323,599616243919626592,-91
1711469753329,599616243927291696,-51
1711469753337,599616243934956800,8
1711469753345,599616243942621904,53
1711469753353,599616243950287008,91
1711469753361,599616243957952112,114
1711469753369,599616243965617216,98
1711469753376,599616243973282320,62
1711469753384,599616243980947424,56
1711469753392,599616243988612528,103
1711469753399,599616243996277632,143
1711469753407,599616244003942736,145
1711469753415,599616244011607840,141
1711469753422,599616244019272944,87
1711469753430,599616244026938048,4
1711469753438,599616244034603152,-2
1711469753445,599616244042268256,29
1711469753453,599616244049933360,22
1711469753461,599616244057598464,4
1711469753468,599616244065263568,2
1711469753476,599616244072928672,33
1711469753484,599616244080593776,87
1711469753491,599616244088258880,121
1711469753499,599616244095923984,123
1711469753507,599616244103589088,87
1711469753513,599616244111254192,8
1711469753521,599616244118919296,-33
1711469753529,599616244126584400,13
1711469753537,599616244134249504,67
1711469753545,599616244141914608,82
1711469753553,599616244149579712,100
1711469753560,599616244157244816,114
1711469753568,599616244164909920,118
1711469753575,599616244172575024,150
1711469753583,599616244180240128,183
1711469753591,599616244187905232,186
1711469753598,599616244195570336,192
1711469753606,599616244203235440,212
1711469753614,599616244210900544,197
1711469753621,599616244218565648,127
1711469753629,599616244226230752,40
1711469753637,599616244233895856,-87
1711469753644,599616244241560960,-255
1711469753652,599616244249226064,-253
1711469753660,599616244256891168,29
1711469753667,599616244264556272,215
1711469753675,599616244272221376,85
1711469753683,599616244279886480,-8
1711469753689,599616244287551608,78
1711469753697,599616244295216712,121
1711469753705,599616244302881816,94
1711469753713,599616244310546920,103
1711469753721,599616244318212024,125
1711469753729,599616244325877128,118
1711469753736,599616244333542232,98
1711469753744,599616244341207336,67
1711469753752,599616244348872440,-8
1711469753759,599616244356537544,-103
1711469753767,599616244364202648,-134
1711469753775,599616244371867752,-123
1711469753782,599616244379532856,-116
1711469753790,599616244387197960,-98
1711469753798,599616244394863064,-114
1711469753805,599616244402528168,-217
1711469753813,599616244410193272,-325
1711469753821,599616244417858376,-354
1711469753828,599616244425523480,-358
1711469753836,599616244433188584,-394
1711469753844,599616244440853688,-459
1711469753851,599616244448518792,-580
1711469753859,599616244456183896,-755
1711469753867,599616244463849000,-840
1711469753873,599616244471514104,-809
1711469753881,599616244479179208,-757
1711469753889,599616244486844312,-712
1711469753897,599616244494509416,-674
1711469753905,599616244502174520,-661
1711469753913,599616244509839624,-645
1711469753920,599616244517504728,-621
1711469753928,599616244525169832,-638
1711469753936,599616244532834936,-636
1711469753943,599616244540500040,-551
1711469753951,599616244548165144,-502
1711469753959,599616244555830248,-511
1711469753966,599616244563495352,-466
1711469753974,599616244571160456,-394
1711469753982,599616244578825560,-358
1711469753989,599616244586490664,-320
1711469753997,599616244594155768,-340
1711469754005,599616244601820872,-421
1711469754012,599616244609485976,-403
1711469754020,599616244617151080,-304
1711469754028,599616244624816184,-251
1711469754035,599616244632481288,-206
1711469754043,599616244640146392,-159
1711469754051,599616244647811496,-163
1711469754057,599616244655476600,-154
1711469754065,599616244663141704,-87
1711469754073,599616244670806808,-24
1711469754081,599616244678471912,22
1711469754089,599616244686137016,56
1711469754097,599616244693802120,47
1711469754104,599616244701467224,22
1711469754112,599616244709132328,11
1711469754120,599616244716797432,-4
1711469754127,599616244724462536,15
1711469754135,599616244732127640,58
1711469754143,599616244739792744,42
1711469754150,599616244747457848,6
1711469754158,599616244755122952,20
1711469754166,599616244762788056,67
1711469754173,599616244770453160,109
1711469754181,599616244778118264,143
1711469754189,599616244785783368,118
1711469754196,599616244793448472,26
1711469754204,599616244801113576,-17
1711469754212,599616244808778680,42
1711469754219,599616244816443784,98
1711469754227,599616244824108888,107
1711469754235,599616244831773992,107
1711469754241,599616244839439096,105
1711469754249,599616244847104224,105
1711469754257,599616244854769328,139
1711469754265,599616244862434432,201
1711469754273,599616244870099536,237
1711469754281,599616244877764640,230
1711469754288,599616244885429744,179
1711469754296,599616244893094848,105
1711469754304,599616244900759952,91
1711469754311,599616244908425056,139
1711469754319,599616244916090160,165
1711469754327,599616244923755264,152
1711469754334,599616244931420368,116
1711469754342,599616244939085472,38
1711469754350,599616244946750576,-38
1711469754357,599616244954415680,-123
1711469754365,599616244962080784,-313
1711469754373,599616244969745888,-484
1711469754380,599616244977410992,-313
1711469754388,599616244985076096,76
1711469754396,599616244992741200,168
1711469754403,599616245000406304,15
1711469754411,599616245008071408,22
1711469754419,599616245015736512,98
1711469754425,599616245023401616,31
1711469754433,599616245031066720,-98
1711469754441,599616245038731824,-147
1711469754449,599616245046396928,-118
1711469754457,599616245054062032,-125
1711469754465,599616245061727136,-179
1711469754472,599616245069392240,-174
1711469754480,599616245077057344,-139
1711469754488,599616245084722448,-141
1711469754495,599616245092387552,-141
1711469754503,599616245100052656,-121
1711469754511,599616245107717760,-132
1711469754518,599616245115382864,-136
1711469754526,599616245123047968,-118
1711469754534,599616245130713072,-177
1711469754541,599616245138378176,-291
1711469754549,599616245146043280,-331
1711469754557,599616245153708384,-345
1711469754564,599616245161373488,-372
1711469754572,599616245169038592,-347
1711469754580,599616245176703696,-322
1711469754587,599616245184368800,-347
1711469754595,599616245192033904,-367
1711469754603,599616245199699008,-403
1711469754609,599616245207364112,-455
1711469754617,599616245215029216,-428
1711469754625,599616245222694320,-363
1711469754633,599616245230359424,-351
1711469754641,599616245238024528,-349
1711469754649,599616245245689632,-309
1711469754656,599616245253354736,-251
1711469754664,599616245261019840,-181
1711469754672,599616245268684944,-105
1711469754679,599616245276350048,-62
1711469754687,599616245284015152,-76
1711469754695,599616245291680256,-82
1711469754702,599616245299345360,-40
1711469754710,599616245307010464,8
1711469754718,599616245314675568,44
1711469754725,599616245322340672,44
1711469754733,599616245330005776,-44
1711469754741,599616245337670880,-125
1711469754748,599616245345335984,-91
1711469754756,599616245353001088,-22
1711469754764,599616245360666192,15
1711469754771,599616245368331296,49
1711469754779,599616245375996400,58
1711469754787,599616245383661504,38
1711469754793,599616245391326608,53
1711469754801,599616245398991712,109
1711469754809,599616245406656842,156
1711469754817,599616245414321946,190
1711469754825,599616245421987050,197
1711469754833,599616245429652154,165
1711469754840,599616245437317258,150
1711469754848,599616245444982362,145
1711469754856,599616245452647466,96
1711469754863,599616245460312570,69
1711469754871,599616245467977674,33
1711469754879,599616245475642778,-114
1711469754886,599616245483307882,-224
1711469754894,599616245490972986,-154
1711469754902,599616245498638090,-71
1711469754909,599616245506303194,-44
1711469754917,599616245513968298,-4
1711469754925,599616245521633402,6
1711469754932,599616245529298506,-29
1711469754940,599616245536963610,-87
1711469754948,599616245544628714,-141
1711469754955,599616245552293818,-118
1711469754963,599616245559958922,-67
1711469754971,599616245567624026,-82
1711469754977,599616245575289130,-98
1711469754985,599616245582954234,-51
1711469754993,599616245590619338,8
1711469755001,599616245598284442,60
1711469755009,599616245605949546,109
1711469755017,599616245613614650,125
1711469755024,599616245621279754,112
1711469755032,599616245628944858,121
1711469755040,599616245636609962,147
1711469755047,599616245644275066,163
1711469755055,599616245651940170,177
1711469755063,599616245659605274,179
1711469755070,599616245667270378,121
1711469755078,599616245674935482,51
1711469755086,599616245682600586,69
1711469755093,599616245690265690,71
1711469755101,599616245697930794,-80
1711469755109,599616245705595898,-291
1711469755116,599616245713261002,-363
1711469755124,599616245720926106,-174
1711469755132,599616245728591210,96
1711469755139,599616245736256314,105
1711469755147,599616245743921418,-11
1711469755155,599616245751586522,17
1711469755161,599616245759251626,67
1711469755169,599616245766916730,42
1711469755177,599616245774581834,53
1711469755185,599616245782246938,107
1711469755193,599616245789912042,130
1711469755201,599616245797577146,127
1711469755208,599616245805242250,145
1711469755216,599616245812907354,139
1711469755223,599616245820572458,69
1711469755231,599616245828237562,15
1711469755239,599616245835902666,22
1711469755246,599616245843567770,26
1711469755254,599616245851232874,24
1711469755262,599616245858897978,2
1711469755269,599616245866563082,-87
1711469755277,599616245874228186,-143
1711469755285,599616245881893290,-105
1711469755292,599616245889558394,-103
1711469755300,599616245897223498,-161
1711469755308,599616245904888602,-195
1711469755315,599616245912553706,-233
1711469755323,599616245920218810,-307
1711469755331,599616245927883914,-347
1711469755337,599616245935549018,-378
1711469755345,599616245943214122,-446
1711469755353,599616245950879226,-461
1711469755361,599616245958544330,-432
1711469755369,599616245966209458,-428
1711469755377,599616245973874562,-417
1711469755384,599616245981539666,-383
1711469755392,599616245989204770,-354
1711469755400,599616245996869874,-313
1711469755407,599616246004534978,-293
1711469755415,599616246012200082,-334
1711469755423,599616246019865186,-358
1711469755430,599616246027530290,-334
1711469755438,599616246035195394,-360
1711469755446,599616246042860498,-434
1711469755453,599616246050525602,-443
1711469755461,599616246058190706,-450
1711469755469,599616246065855810,-508
1711469755476,599616246073520914,-495
1711469755484,599616246081186018,-410
1711469755492,599616246088851122,-347
1711469755499,599616246096516226,-293
1711469755507,599616246104181330,-251
1711469755515,599616246111846434,-246
1711469755521,599616246119511538,-237
1711469755529,599616246127176642,-183
1711469755537,599616246134841746,-118
1711469755545,599616246142506850,-62
1711469755553,599616246150171954,-20
1711469755561,599616246157837058,-17
1711469755568,599616246165502162,-38
1711469755576,599616246173167266,-26
1711469755584,599616246180832370,-8
1711469755591,599616246188497474,-31
1711469755599,599616246196162578,-58
1711469755607,599616246203827682,-100
1711469755614,599616246211492786,-172
1711469755622,599616246219157890,-163
1711469755630,599616246226822994,-76
1711469755637,599616246234488098,-17
1711469755645,599616246242153202,22
1711469755653,599616246249818306,53
1711469755660,599616246257483410,42
1711469755668,599616246265148514,42
1711469755676,599616246272813618,100
1711469755683,599616246280478722,161
1711469755691,599616246288143826,199
1711469755699,599616246295808930,221
1711469755705,599616246303474034,210
1711469755713,599616246311139138,201
1711469755721,599616246318804242,242
1711469755729,599616246326469346,293
1711469755737,599616246334134450,327
1711469755745,599616246341799554,322
1711469755752,599616246349464658,228
1711469755760,599616246357129762,105
1711469755768,599616246364794866,107
1711469755775,599616246372459970,179
1711469755783,599616246380125074,210
1711469755791,599616246387790178,242
1711469755798,599616246395455282,255
1711469755806,599616246403120386,226
1711469755814,599616246410785490,237
1711469755821,599616246418450594,284
1711469755829,599616246426115698,286
1711469755837,599616246433780802,233
1711469755844,599616246441445906,177
1711469755852,599616246449111010,154
1711469755860,599616246456776114,168
1711469755867,599616246464441218,204
1711469755875,599616246472106322,228
1711469755883,599616246479771426,163
1711469755889,599616246487436530,-6
1711469755897,599616246495101634,-105
1711469755905,599616246502766738,125
1711469755913,599616246510431842,461
1711469755921,599616246518096946,450
1711469755929,599616246525762074,278
1711469755936,599616246533427178,273
1711469755944,599616246541092282,262
1711469755952,599616246548757386,134
1711469755959,599616246556422490,85
1711469755967,599616246564087594,147
1711469755975,599616246571752698,165
1711469755982,599616246579417802,112
