value,timestamp
-0.0,1712189740000000
-0.0,1712189740015625
-0.0,1712189740031250
-0.0,1712189740046875
-0.0,1712189740062500
-0.0,1712189740078125
-0.0,1712189740093750
-0.0,1712189740109375
-0.0,1712189740125000
-0.0,1712189740140625
0.0,1712189740156250
0.01,1712189740171875
0.01,1712189740187500
-0.0,1712189740203125
-0.03,1712189740218750
-0.05,1712189740234375
-0.05,1712189740250000
0.0,1712189740265625
0.13,1712189740281250
0.36,1712189740296875
0.66,1712189740312500
1.01,1712189740328125
1.37,1712189740343750
1.72,1712189740359375
2.06,1712189740375000
2.4,1712189740390625
2.79,1712189740406250
3.24,1712189740421875
3.8,1712189740437500
4.42,1712189740453125
5.06,1712189740468750
5.66,1712189740484375
6.2,1712189740500000
6.68,1712189740515625
7.15,1712189740531250
7.68,1712189740546875
8.31,1712189740562500
9.14,1712189740578125
10.09,1712189740593750
11.04,1712189740609375
11.88,1712189740625000
12.56,1712189740640625
13.14,1712189740656250
13.76,1712189740671875
14.65,1712189740687500
15.96,1712189740703125
17.91,1712189740718750
20.32,1712189740734375
22.9,1712189740750000
25.38,1712189740765625
27.58,1712189740781250
29.57,1712189740796875
31.68,1712189740812500
34.32,1712189740828125
37.81,1712189740843750
42.54,1712189740859375
48.15,1712189740875000
54.1,1712189740890625
59.83,1712189740906250
64.97,1712189740921875
69.58,1712189740937500
74.14,1712189740953125
79.34,1712189740968750
85.71,1712189740984375
93.76,1712189741000000
103.0,1712189741015625
112.62,1712189741031250
121.73,1712189741046875
129.77,1712189741062500
136.75,1712189741078125
143.3,1712189741093750
150.75,1712189741109375
157.77,1712189741125000
166.64,1712189741140625
177.95,1712189741156250
191.79,1712189741171875
206.97,1712189741187500
220.57,1712189741203125
228.25,1712189741218750
225.36,1712189741234375
208.53,1712189741250000
176.87,1712189741265625
132.76,1712189741281250
80.05,1712189741296875
23.07,1712189741312500
-34.94,1712189741328125
-92.44,1712189741343750
-149.16,1712189741359375
-205.23,1712189741375000
-260.37,1712189741390625
-313.74,1712189741406250
-363.87,1712189741421875
-409.83,1712189741437500
-450.91,1712189741453125
-486.5,1712189741468750
-515.74,1712189741484375
-537.23,1712189741500000
-549.22,1712189741515625
-549.96,1712189741531250
-538.37,1712189741546875
-514.21,1712189741562500
-478.67,1712189741578125
-433.88,1712189741593750
-382.45,1712189741609375
-327.02,1712189741625000
-269.84,1712189741640625
-212.63,1712189741656250
-156.66,1712189741671875
-102.95,1712189741687500
-52.37,1712189741703125
-5.9,1712189741718750
35.58,1712189741734375
71.43,1712189741750000
101.35,1712189741765625
125.5,1712189741781250
144.38,1712189741796875
158.69,1712189741812500
169.15,1712189741828125
176.37,1712189741843750
180.75,1712189741859375
182.57,1712189741875000
182.07,1712189741890625
179.51,1712189741906250
175.23,1712189741921875
169.65,1712189741937500
163.18,1712189741953125
156.15,1712189741968750
148.81,1712189741984375
141.3,1712189742000000
133.69,1712189742015625
126.02,1712189742031250
118.33,1712189742046875
110.69,1712189742062500
103.16,1712189742078125
95.8,1712189742093750
88.68,1712189742109375
81.83,1712189742125000
75.25,1712189742140625
68.95,1712189742156250
62.95,1712189742171875
57.25,1712189742187500
51.86,1712189742203125
46.78,1712189742218750
42.03,1712189742234375
37.59,1712189742250000
33.45,1712189742265625
29.61,1712189742281250
26.07,1712189742296875
22.81,1712189742312500
19.83,1712189742328125
17.11,1712189742343750
14.67,1712189742359375
12.48,1712189742375000
10.54,1712189742390625
8.83,1712189742406250
7.35,1712189742421875
6.07,1712189742437500
4.97,1712189742453125
4.05,1712189742468750
3.27,1712189742484375
2.62,1712189742500000
2.09,1712189742515625
1.65,1712189742531250
1.3,1712189742546875
1.01,1712189742562500
0.79,1712189742578125
0.61,1712189742593750
0.47,1712189742609375
0.37,1712189742625000
0.29,1712189742640625
0.23,1712189742656250
0.19,1712189742671875
0.16,1712189742687500
0.14,1712189742703125
0.14,1712189742718750
0.15,1712189742734375
0.16,1712189742750000
0.18,1712189742765625
0.21,1712189742781250
0.24,1712189742796875
0.28,1712189742812500
0.32,1712189742828125
0.36,1712189742843750
0.41,1712189742859375
0.45,1712189742875000
0.5,1712189742890625
0.55,1712189742906250
0.6,1712189742921875
0.66,1712189742937500
0.71,1712189742953125
0.77,1712189742968750
0.84,1712189742984375
0.91,1712189743000000
0.99,1712189743015625
1.08,1712189743031250
1.17,1712189743046875
1.28,1712189743062500
1.4,1712189743078125
1.53,1712189743093750
1.68,1712189743109375
1.85,1712189743125000
2.04,1712189743140625
2.25,1712189743156250
2.49,1712189743171875
2.75,1712189743187500
3.03,1712189743203125
3.35,1712189743218750
3.69,1712189743234375
4.07,1712189743250000
4.48,1712189743265625
4.92,1712189743281250
5.41,1712189743296875
5.93,1712189743312500
6.49,1712189743328125
7.09,1712189743343750
7.73,1712189743359375
8.42,1712189743375000
9.15,1712189743390625
9.93,1712189743406250
10.75,1712189743421875
11.62,1712189743437500
12.53,1712189743453125
13.49,1712189743468750
14.51,1712189743484375
15.6,1712189743500000
16.75,1712189743515625
17.97,1712189743531250
19.22,1712189743546875
20.52,1712189743562500
21.8,1712189743578125
22.99,1712189743593750
24.02,1712189743609375
24.77,1712189743625000
25.12,1712189743640625
24.93,1712189743656250
24.12,1712189743671875
22.61,1712189743687500
20.39,1712189743703125
17.47,1712189743718750
13.9,1712189743734375
9.86,1712189743750000
5.5,1712189743765625
1.02,1712189743781250
-3.35,1712189743796875
-7.42,1712189743812500
-11.01,1712189743828125
-14.0,1712189743843750
-16.28,1712189743859375
-17.84,1712189743875000
-18.67,1712189743890625
-18.84,1712189743906250
-18.43,1712189743921875
-17.57,1712189743937500
-16.37,1712189743953125
-14.94,1712189743968750
-13.37,1712189743984375
-11.71,1712189744000000
-9.99,1712189744015625
-8.17,1712189744031250
-6.33,1712189744046875
-4.49,1712189744062500
-2.68,1712189744078125
-0.94,1712189744093750
0.72,1712189744109375
2.3,1712189744125000
3.86,1712189744140625
5.48,1712189744156250
7.27,1712189744171875
9.22,1712189744187500
11.3,1712189744203125
13.48,1712189744218750
15.74,1712189744234375
18.02,1712189744250000
20.36,1712189744265625
22.8,1712189744281250
25.47,1712189744296875
28.6,1712189744312500
32.05,1712189744328125
35.71,1712189744343750
39.45,1712189744359375
43.11,1712189744375000
46.52,1712189744390625
49.63,1712189744406250
52.52,1712189744421875
55.46,1712189744437500
58.84,1712189744453125
62.54,1712189744468750
66.44,1712189744484375
70.35,1712189744500000
74.02,1712189744515625
77.16,1712189744531250
79.69,1712189744546875
81.7,1712189744562500
83.57,1712189744578125
85.82,1712189744593750
88.25,1712189744609375
90.55,1712189744625000
92.18,1712189744640625
92.39,1712189744656250
90.28,1712189744671875
84.97,1712189744687500
75.56,1712189744703125
60.8,1712189744718750
43.95,1712189744734375
26.08,1712189744750000
7.78,1712189744765625
-10.81,1712189744781250
-29.81,1712189744796875
-49.63,1712189744812500
-70.87,1712189744828125
-94.25,1712189744843750
-120.13,1712189744859375
-147.92,1712189744875000
-176.33,1712189744890625
-202.47,1712189744906250
-222.68,1712189744921875
-233.72,1712189744937500
-234.03,1712189744953125
-224.32,1712189744968750
-207.07,1712189744984375
-185.55,1712189745000000
-162.45,1712189745015625
-139.81,1712189745031250
-118.38,1712189745046875
-98.34,1712189745062500
-79.99,1712189745078125
-64.02,1712189745093750
-51.36,1712189745109375
-42.66,1712189745125000
-37.89,1712189745140625
-36.33,1712189745156250
-37.16,1712189745171875
-39.41,1712189745187500
-42.28,1712189745203125
-45.3,1712189745218750
-48.34,1712189745234375
-51.47,1712189745250000
-54.88,1712189745265625
-58.9,1712189745281250
-63.98,1712189745296875
-70.81,1712189745312500
-79.84,1712189745328125
-90.88,1712189745343750
-102.66,1712189745359375
-112.58,1712189745375000
-117.14,1712189745390625
-112.86,1712189745406250
-97.54,1712189745421875
-71.18,1712189745437500
-36.32,1712189745453125
2.73,1712189745468750
41.22,1712189745484375
75.26,1712189745500000
102.56,1712189745515625
122.45,1712189745531250
135.22,1712189745546875
141.49,1712189745562500
141.84,1712189745578125
136.92,1712189745593750
127.81,1712189745609375
116.16,1712189745625000
103.98,1712189745640625
93.12,1712189745656250
84.75,1712189745671875
79.14,1712189745687500
75.76,1712189745703125
73.72,1712189745718750
72.08,1712189745734375
70.16,1712189745750000
67.36,1712189745765625
63.08,1712189745781250
56.72,1712189745796875
47.77,1712189745812500
36.16,1712189745828125
22.32,1712189745843750
7.27,1712189745859375
-7.82,1712189745875000
-21.94,1712189745890625
-34.6,1712189745906250
-45.94,1712189745921875
-56.68,1712189745937500
-67.92,1712189745953125
-80.81,1712189745968750
-96.15,1712189745984375
-113.84,1712189746000000
-132.38,1712189746015625
-148.73,1712189746031250
-158.82,1712189746046875
-158.66,1712189746062500
-145.83,1712189746078125
-120.44,1712189746093750
-85.37,1712189746109375
-45.4,1712189746125000
-5.66,1712189746140625
29.77,1712189746156250
58.68,1712189746171875
80.6,1712189746187500
96.11,1712189746203125
105.98,1712189746218750
110.84,1712189746234375
111.14,1712189746250000
107.58,1712189746265625
101.31,1712189746281250
93.87,1712189746296875
86.82,1712189746312500
81.29,1712189746328125
77.66,1712189746343750
75.62,1712189746359375
74.42,1712189746375000
73.32,1712189746390625
71.71,1712189746406250
69.21,1712189746421875
65.47,1712189746437500
60.01,1712189746453125
52.31,1712189746468750
41.94,1712189746484375
28.94,1712189746500000
13.91,1712189746515625
-2.06,1712189746531250
-17.79,1712189746546875
-32.29,1712189746562500
-45.19,1712189746578125
-56.81,1712189746593750
-68.02,1712189746609375
-80.01,1712189746625000
-93.83,1712189746640625
-109.89,1712189746656250
-127.46,1712189746671875
-144.35,1712189746687500
-157.12,1712189746703125
-161.84,1712189746718750
-155.25,1712189746734375
-135.93,1712189746750000
-105.08,1712189746765625
-66.27,1712189746781250
-24.4,1712189746796875
15.67,1712189746812500
50.41,1712189746828125
78.1,1712189746843750
98.54,1712189746859375
112.32,1712189746875000
120.13,1712189746890625
122.57,1712189746906250
120.27,1712189746921875
114.28,1712189746937500
106.14,1712189746953125
97.68,1712189746968750
90.46,1712189746984375
85.36,1712189747000000
82.26,1712189747015625
80.46,1712189747031250
78.96,1712189747046875
77.07,1712189747062500
74.48,1712189747078125
71.1,1712189747093750
66.79,1712189747109375
61.15,1712189747125000
53.55,1712189747140625
43.43,1712189747156250
30.68,1712189747171875
15.85,1712189747187500
0.07,1712189747203125
-15.28,1712189747218750
-29.14,1712189747234375
-41.13,1712189747250000
-51.74,1712189747265625
-62.18,1712189747281250
-73.92,1712189747296875
-88.09,1712189747312500
-104.91,1712189747328125
-123.26,1712189747343750
-140.52,1712189747359375
-153.11,1712189747375000
-157.31,1712189747390625
-150.46,1712189747406250
-131.88,1712189747421875
-103.14,1712189747437500
-67.73,1712189747453125
-29.96,1712189747468750
6.16,1712189747484375
37.76,1712189747500000
63.33,1712189747515625
82.44,1712189747531250
95.24,1712189747546875
102.05,1712189747562500
103.4,1712189747578125
100.19,1712189747593750
93.83,1712189747609375
86.18,1712189747625000
79.08,1712189747640625
73.87,1712189747656250
70.96,1712189747671875
69.83,1712189747687500
69.4,1712189747703125
68.61,1712189747718750
66.82,1712189747734375
63.94,1712189747750000
60.09,1712189747765625
55.24,1712189747781250
48.93,1712189747796875
40.39,1712189747812500
29.1,1712189747828125
15.17,1712189747843750
-0.4,1712189747859375
-15.99,1712189747875000
-30.0,1712189747890625
-41.55,1712189747906250
-50.77,1712189747921875
-58.73,1712189747937500
-67.04,1712189747953125
-77.23,1712189747968750
-90.27,1712189747984375
-106.16,1712189748000000
-123.63,1712189748015625
-140.1,1712189748031250
-151.97,1712189748046875
-155.45,1712189748062500
-147.62,1712189748078125
-127.57,1712189748093750
-96.94,1712189748109375
-59.56,1712189748125000
-20.37,1712189748140625
16.05,1712189748156250
46.57,1712189748171875
69.83,1712189748187500
85.86,1712189748203125
95.37,1712189748218750
99.13,1712189748234375
97.85,1712189748250000
92.39,1712189748265625
84.07,1712189748281250
74.68,1712189748296875
66.1,1712189748312500
59.81,1712189748328125
56.37,1712189748343750
55.36,1712189748359375
55.72,1712189748375000
56.23,1712189748390625
56.02,1712189748406250
54.66,1712189748421875
51.97,1712189748437500
47.76,1712189748453125
41.67,1712189748468750
33.28,1712189748484375
22.51,1712189748500000
9.8,1712189748515625
-3.82,1712189748531250
-17.06,1712189748546875
-28.92,1712189748562500
-39.03,1712189748578125
-47.79,1712189748593750
-56.27,1712189748609375
-65.85,1712189748625000
-77.75,1712189748640625
-92.45,1712189748656250
-109.15,1712189748671875
-125.53,1712189748687500
-137.97,1712189748703125
-142.49,1712189748718750
-136.0,1712189748734375
-117.47,1712189748750000
-88.5,1712189748765625
-52.82,1712189748781250
-15.15,1712189748796875
20.23,1712189748812500
50.37,1712189748828125
73.9,1712189748843750
90.58,1712189748859375
100.71,1712189748875000
104.75,1712189748890625
103.32,1712189748906250
97.44,1712189748921875
88.66,1712189748937500
78.96,1712189748953125
70.22,1712189748968750
63.8,1712189748984375
60.12,1712189749000000
58.7,1712189749015625
58.47,1712189749031250
58.25,1712189749046875
57.17,1712189749062500
54.79,1712189749078125
50.88,1712189749093750
45.21,1712189749109375
37.42,1712189749125000
27.14,1712189749140625
14.38,1712189749156250
-0.3,1712189749171875
-15.75,1712189749187500
-30.57,1712189749203125
-43.61,1712189749218750
-54.44,1712189749234375
-63.47,1712189749250000
-71.87,1712189749265625
-81.18,1712189749281250
-92.87,1712189749296875
-107.75,1712189749312500
-125.31,1712189749328125
-143.45,1712189749343750
-158.58,1712189749359375
-166.42,1712189749375000
-163.29,1712189749390625
-147.42,1712189749406250
-119.68,1712189749421875
-83.4,1712189749437500
-43.31,1712189749453125
-4.13,1712189749468750
30.6,1712189749484375
58.95,1712189749500000
80.44,1712189749515625
95.37,1712189749531250
104.29,1712189749546875
107.74,1712189749562500
106.47,1712189749578125
101.56,1712189749593750
94.58,1712189749609375
87.26,1712189749625000
81.1,1712189749640625
76.88,1712189749656250
74.45,1712189749671875
73.0,1712189749687500
71.51,1712189749703125
69.28,1712189749718750
66.16,1712189749734375
62.33,1712189749750000
57.91,1712189749765625
52.64,1712189749781250
45.82,1712189749796875
36.62,1712189749812500
24.67,1712189749828125
10.3,1712189749843750
-5.44,1712189749859375
-21.21,1712189749875000
-35.76,1712189749890625
-48.45,1712189749906250
-59.34,1712189749921875
-69.11,1712189749937500
-78.96,1712189749953125
-90.27,1712189749968750
-104.17,1712189749984375
-120.93,1712189750000000
-139.38,1712189750015625
-156.65,1712189750031250
-168.69,1712189750046875
-171.3,1712189750062500
-161.51,1712189750078125
-138.83,1712189750093750
-105.45,1712189750109375
-65.64,1712189750125000
-24.34,1712189750140625
14.13,1712189750156250
47.07,1712189750171875
73.38,1712189750187500
93.02,1712189750203125
106.34,1712189750218750
113.67,1712189750234375
115.43,1712189750250000
112.39,1712189750265625
106.03,1712189750281250
98.31,1712189750296875
91.27,1712189750312500
86.36,1712189750328125
84.01,1712189750343750
83.64,1712189750359375
84.05,1712189750375000
84.02,1712189750390625
82.81,1712189750406250
80.17,1712189750421875
76.16,1712189750437500
70.81,1712189750453125
63.8,1712189750468750
54.59,1712189750484375
42.76,1712189750500000
28.3,1712189750515625
11.92,1712189750531250
-5.08,1712189750546875
-21.18,1712189750562500
-35.17,1712189750578125
-46.63,1712189750593750
-56.09,1712189750609375
-64.84,1712189750625000
-74.5,1712189750640625
-86.51,1712189750656250
-101.5,1712189750671875
-118.9,1712189750687500
-136.66,1712189750703125
-151.45,1712189750718750
-159.37,1712189750734375
-156.99,1712189750750000
-142.52,1712189750765625
-116.52,1712189750781250
-81.93,1712189750796875
-43.18,1712189750812500
-4.95,1712189750828125
29.11,1712189750843750
56.94,1712189750859375
78.06,1712189750875000
92.84,1712189750890625
101.87,1712189750906250
105.58,1712189750921875
104.45,1712189750937500
99.35,1712189750953125
91.71,1712189750968750
83.34,1712189750984375
75.95,1712189751000000
70.65,1712189751015625
67.55,1712189751031250
66.02,1712189751046875
65.07,1712189751062500
63.85,1712189751078125
61.96,1712189751093750
59.35,1712189751109375
56.02,1712189751125000
51.71,1712189751140625
45.83,1712189751156250
37.59,1712189751171875
26.53,1712189751187500
12.79,1712189751203125
-2.67,1712189751218750
-18.36,1712189751234375
-32.77,1712189751250000
-44.96,1712189751265625
-54.87,1712189751281250
-63.39,1712189751296875
-71.98,1712189751312500
-82.2,1712189751328125
-95.11,1712189751343750
-110.89,1712189751359375
-128.37,1712189751375000
-145.02,1712189751390625
-157.28,1712189751406250
-161.34,1712189751421875
-154.34,1712189751437500
-135.33,1712189751453125
-105.8,1712189751468750
-69.33,1712189751484375
-30.48,1712189751500000
6.38,1712189751515625
38.17,1712189751531250
63.3,1712189751546875
81.44,1712189751562500
92.88,1712189751578125
98.19,1712189751593750
98.07,1712189751609375
93.48,1712189751625000
85.83,1712189751640625
76.94,1712189751656250
68.64,1712189751671875
62.43,1712189751687500
59.0,1712189751703125
58.2,1712189751718750
59.13,1712189751734375
60.58,1712189751750000
61.45,1712189751765625
61.0,1712189751781250
58.89,1712189751796875
54.92,1712189751812500
48.95,1712189751828125
40.74,1712189751843750
30.2,1712189751859375
17.57,1712189751875000
3.56,1712189751890625
-10.68,1712189751906250
-24.01,1712189751921875
-35.58,1712189751937500
-45.3,1712189751953125
-53.82,1712189751968750
-62.49,1712189751984375
-72.85,1712189752000000
-86.1,1712189752015625
-102.3,1712189752031250
-119.97,1712189752046875
-135.96,1712189752062500
-146.1,1712189752078125
-146.44,1712189752093750
-134.58,1712189752109375
-110.7,1712189752125000
-77.6,1712189752140625
-39.84,1712189752156250
-2.33,1712189752171875
31.09,1712189752187500
58.25,1712189752203125
78.58,1712189752218750
92.37,1712189752234375
100.15,1712189752250000
102.41,1712189752265625
99.73,1712189752281250
93.16,1712189752296875
84.28,1712189752312500
74.92,1712189752328125
66.71,1712189752343750
60.61,1712189752359375
56.74,1712189752375000
54.61,1712189752390625
53.47,1712189752406250
52.6,1712189752421875
51.45,1712189752437500
49.56,1712189752453125
46.33,1712189752468750
41.09,1712189752484375
33.24,1712189752500000
22.54,1712189752515625
9.39,1712189752531250
-5.25,1712189752546875
-20.11,1712189752562500
-34.03,1712189752578125
-46.35,1712189752593750
-57.14,1712189752609375
-67.14,1712189752625000
-77.59,1712189752640625
-89.86,1712189752656250
-104.89,1712189752671875
-122.56,1712189752687500
-141.21,1712189752703125
-157.62,1712189752718750
-167.68,1712189752734375
-167.49,1712189752750000
-154.78,1712189752765625
-129.77,1712189752781250
-95.22,1712189752796875
-55.53,1712189752812500
-15.45,1712189752828125
21.14,1712189752843750
51.86,1712189752859375
75.73,1712189752875000
92.76,1712189752890625
103.32,1712189752906250
108.05,1712189752921875
107.73,1712189752937500
103.55,1712189752953125
96.96,1712189752968750
89.55,1712189752984375
82.69,1712189753000000
77.32,1712189753015625
73.68,1712189753031250
71.51,1712189753046875
70.14,1712189753062500
68.81,1712189753078125
66.79,1712189753093750
63.45,1712189753109375
58.37,1712189753125000
51.22,1712189753140625
41.88,1712189753156250
30.4,1712189753171875
17.13,1712189753187500
2.71,1712189753203125
-12.08,1712189753218750
-26.47,1712189753234375
-39.83,1712189753250000
-51.99,1712189753265625
-63.24,1712189753281250
-74.42,1712189753296875
-86.69,1712189753312500
-101.04,1712189753328125
-117.65,1712189753343750
-135.22,1712189753359375
-150.89,1712189753375000
-160.64,1712189753390625
-160.6,1712189753406250
-148.37,1712189753421875
-124.08,1712189753437500
-90.41,1712189753453125
-51.77,1712189753468750
-12.88,1712189753484375
22.48,1712189753500000
52.14,1712189753515625
75.31,1712189753531250
92.07,1712189753546875
102.74,1712189753562500
107.68,1712189753578125
107.5,1712189753593750
103.2,1712189753609375
96.28,1712189753625000
88.46,1712189753640625
81.23,1712189753656250
75.6,1712189753671875
71.9,1712189753687500
69.87,1712189753703125
68.91,1712189753718750
68.33,1712189753734375
67.47,1712189753750000
65.73,1712189753765625
62.55,1712189753781250
57.4,1712189753796875
49.78,1712189753812500
39.44,1712189753828125
26.52,1712189753843750
11.67,1712189753859375
-4.01,1712189753875000
-19.29,1712189753890625
-33.15,1712189753906250
-45.14,1712189753921875
-55.57,1712189753937500
-65.4,1712189753953125
-76.01,1712189753968750
-88.65,1712189753984375
-103.86,1712189754000000
-120.86,1712189754015625
-137.38,1712189754031250
-149.82,1712189754046875
-154.23,1712189754062500
-147.54,1712189754078125
-128.68,1712189754093750
-99.1,1712189754109375
-62.45,1712189754125000
-23.42,1712189754140625
13.61,1712189754156250
45.55,1712189754171875
70.89,1712189754187500
89.41,1712189754203125
101.5,1712189754218750
107.71,1712189754234375
108.7,1712189754250000
105.33,1712189754265625
98.9,1712189754281250
91.03,1712189754296875
83.31,1712189754312500
76.91,1712189754328125
72.26,1712189754343750
69.05,1712189754359375
66.59,1712189754375000
64.15,1712189754390625
61.31,1712189754406250
57.93,1712189754421875
53.94,1712189754437500
49.07,1712189754453125
42.8,1712189754468750
34.5,1712189754484375
23.78,1712189754500000
10.87,1712189754515625
-3.4,1712189754531250
-17.81,1712189754546875
-31.09,1712189754562500
-42.48,1712189754578125
-51.93,1712189754593750
-60.18,1712189754609375
-68.55,1712189754625000
-78.58,1712189754640625
-91.38,1712189754656250
-107.06,1712189754671875
-124.23,1712189754687500
-139.94,1712189754703125
-150.25,1712189754718750
-151.31,1712189754734375
-140.64,1712189754750000
-118.09,1712189754765625
-86.0,1712189754781250
-48.57,1712189754796875
-10.56,1712189754812500
23.96,1712189754828125
52.43,1712189754843750
73.87,1712189754859375
88.4,1712189754875000
96.62,1712189754890625
99.19,1712189754906250
96.83,1712189754921875
90.54,1712189754937500
81.69,1712189754953125
72.12,1712189754968750
63.61,1712189754984375
57.55,1712189755000000
54.53,1712189755015625
54.22,1712189755031250
55.63,1712189755046875
57.51,1712189755062500
58.67,1712189755078125
58.16,1712189755093750
55.37,1712189755109375
50.02,1712189755125000
42.12,1712189755140625
32.08,1712189755156250
20.56,1712189755171875
8.37,1712189755187500
-3.71,1712189755203125
-15.13,1712189755218750
-25.73,1712189755234375
-35.66,1712189755250000
-45.44,1712189755265625
-55.87,1712189755281250
-67.84,1712189755296875
-82.02,1712189755312500
-98.36,1712189755328125
-115.44,1712189755343750
-130.43,1712189755359375
-139.47,1712189755375000
-138.79,1712189755390625
-126.12,1712189755406250
-101.61,1712189755421875
-68.01,1712189755437500
-29.85,1712189755453125
7.98,1712189755468750
41.49,1712189755484375
68.25,1712189755500000
87.44,1712189755515625
99.28,1712189755531250
104.5,1712189755546875
103.97,1712189755562500
98.79,1712189755578125
90.34,1712189755593750
80.38,1712189755609375
70.78,1712189755625000
63.03,1712189755640625
57.94,1712189755656250
55.39,1712189755671875
54.56,1712189755687500
54.36,1712189755703125
53.8,1712189755718750
52.21,1712189755734375
49.17,1712189755750000
44.35,1712189755765625
37.39,1712189755781250
28.08,1712189755796875
16.49,1712189755812500
3.14,1712189755828125
-11.04,1712189755843750
-25.02,1712189755859375
-37.99,1712189755875000
-49.65,1712189755890625
-60.26,1712189755906250
-70.57,1712189755921875
-81.59,1712189755937500
-94.35,1712189755953125
-109.38,1712189755968750
-126.12,1712189755984375
-142.57,1712189756000000
-155.37,1712189756015625
-160.6,1712189756031250
-155.0,1712189756046875
-137.3,1712189756062500
-108.77,1712189756078125
-72.93,1712189756093750
-34.33,1712189756109375
2.75,1712189756125000
35.26,1712189756140625
61.65,1712189756156250
81.51,1712189756171875
95.0,1712189756187500
102.44,1712189756203125
104.35,1712189756218750
101.63,1712189756234375
95.69,1712189756250000
88.24,1712189756265625
80.9,1712189756281250
74.82,1712189756296875
70.46,1712189756312500
67.63,1712189756328125
65.75,1712189756343750
64.21,1712189756359375
62.56,1712189756375000
60.43,1712189756390625
57.48,1712189756406250
53.25,1712189756421875
47.2,1712189756437500
38.84,1712189756453125
28.04,1712189756468750
15.14,1712189756484375
1.03,1712189756500000
-13.14,1712189756515625
-26.26,1712189756531250
-37.7,1712189756546875
-47.52,1712189756562500
-56.51,1712189756578125
-66.04,1712189756593750
-77.61,1712189756609375
-92.26,1712189756625000
-109.96,1712189756640625
-129.13,1712189756656250
-146.6,1712189756671875
-158.25,1712189756687500
-160.11,1712189756703125
-149.7,1712189756718750
-126.97,1712189756734375
-94.41,1712189756750000
-56.29,1712189756765625
-17.31,1712189756781250
18.59,1712189756796875
49.03,1712189756812500
73.07,1712189756828125
90.67,1712189756843750
102.17,1712189756859375
107.95,1712189756875000
108.6,1712189756890625
105.16,1712189756906250
99.2,1712189756921875
92.58,1712189756937500
86.93,1712189756953125
83.15,1712189756968750
81.14,1712189756984375
80.08,1712189757000000
78.9,1712189757015625
76.8,1712189757031250
73.59,1712189757046875
69.54,1712189757062500
64.97,1712189757078125
59.84,1712189757093750
53.6,1712189757109375
45.39,1712189757125000
34.56,1712189757140625
21.11,1712189757156250
5.79,1712189757171875
-10.03,1712189757187500
-24.89,1712189757203125
-37.75,1712189757218750
-48.37,1712189757234375
-57.37,1712189757250000
-66.04,1712189757265625
-75.96,1712189757281250
-88.42,1712189757296875
-103.81,1712189757312500
-121.16,1712189757328125
-137.94,1712189757343750
-150.49,1712189757359375
-154.97,1712189757375000
-148.56,1712189757390625
-130.45,1712189757406250
-102.2,1712189757421875
-67.31,1712189757437500
-30.15,1712189757453125
5.23,1712189757468750
35.97,1712189757484375
60.59,1712189757500000
78.67,1712189757515625
90.32,1712189757531250
95.9,1712189757546875
95.98,1712189757562500
91.42,1712189757578125
83.55,1712189757593750
74.12,1712189757609375
64.93,1712189757625000
57.42,1712189757640625
52.3,1712189757656250
49.46,1712189757671875
48.23,1712189757687500
47.71,1712189757703125
47.15,1712189757718750
45.96,1712189757734375
43.75,1712189757750000
40.14,1712189757765625
34.69,1712189757781250
26.86,1712189757796875
16.35,1712189757812500
3.41,1712189757828125
-11.09,1712189757843750
-25.97,1712189757859375
-40.14,1712189757875000
-52.89,1712189757890625
-64.07,1712189757906250
-74.19,1712189757921875
-84.46,1712189757937500
-96.57,1712189757953125
-111.68,1712189757968750
-129.94,1712189757984375
-150.12,1712189758000000
-169.62,1712189758015625
-184.77,1712189758031250
-191.73,1712189758046875
-187.84,1712189758062500
-172.97,1712189758078125
-149.81,1712189758093750
-122.48,1712189758109375
-95.45,1712189758125000
-72.48,1712189758140625
-55.95,1712189758156250
-46.39,1712189758171875
-42.54,1712189758187500
-42.03,1712189758203125
-42.37,1712189758218750
-41.33,1712189758234375
-36.28,1712189758250000
-24.84,1712189758265625
-5.61,1712189758281250
21.11,1712189758296875
53.7,1712189758312500
89.87,1712189758328125
127.19,1712189758343750
163.34,1712189758359375
191.19,1712189758375000
203.68,1712189758390625
198.37,1712189758406250
179.55,1712189758421875
154.5,1712189758437500
128.73,1712189758453125
104.69,1712189758468750
82.88,1712189758484375
62.93,1712189758500000
44.83,1712189758515625
29.29,1712189758531250
16.88,1712189758546875
7.21,1712189758562500
-0.91,1712189758578125
-8.22,1712189758593750
-13.87,1712189758609375
-15.37,1712189758625000
-10.36,1712189758640625
2.75,1712189758656250
23.79,1712189758671875
50.36,1712189758687500
78.38,1712189758703125
103.11,1712189758718750
120.76,1712189758734375
129.57,1712189758750000
131.98,1712189758765625
127.82,1712189758781250
117.89,1712189758796875
103.48,1712189758812500
86.02,1712189758828125
66.87,1712189758843750
47.21,1712189758859375
28.24,1712189758875000
10.99,1712189758890625
-3.38,1712189758906250
-14.21,1712189758921875
-20.72,1712189758937500
-22.51,1712189758953125
-20.08,1712189758968750
-15.09,1712189758984375
-10.13,1712189759000000
-7.71,1712189759015625
-9.24,1712189759031250
-13.97,1712189759046875
-19.75,1712189759062500
-23.54,1712189759078125
-23.19,1712189759093750
-18.38,1712189759109375
-10.66,1712189759125000
-2.61,1712189759140625
4.05,1712189759156250
7.33,1712189759171875
5.94,1712189759187500
-0.84,1712189759203125
-12.88,1712189759218750
-29.47,1712189759234375
-49.32,1712189759250000
-70.67,1712189759265625
-91.45,1712189759281250
-109.72,1712189759296875
-123.95,1712189759312500
-132.76,1712189759328125
-134.86,1712189759343750
-128.89,1712189759359375
-113.63,1712189759375000
-88.36,1712189759390625
-53.2,1712189759406250
-9.47,1712189759421875
40.17,1712189759437500
91.63,1712189759453125
139.93,1712189759468750
179.7,1712189759484375
206.33,1712189759500000
217.15,1712189759515625
212.19,1712189759531250
194.29,1712189759546875
168.06,1712189759562500
138.32,1712189759578125
108.56,1712189759593750
80.46,1712189759609375
53.97,1712189759625000
28.24,1712189759640625
2.58,1712189759656250
-22.91,1712189759671875
-47.32,1712189759687500
-69.11,1712189759703125
-86.67,1712189759718750
-98.61,1712189759734375
-104.05,1712189759750000
-102.9,1712189759765625
-96.03,1712189759781250
-85.32,1712189759796875
-73.34,1712189759812500
-62.93,1712189759828125
-56.52,1712189759843750
-55.7,1712189759859375
-61.03,1712189759875000
-72.21,1712189759890625
-88.48,1712189759906250
-108.82,1712189759921875
-131.99,1712189759937500
-156.06,1712189759953125
-178.12,1712189759968750
-194.24,1712189759984375
-200.31,1712189760000000
-193.21,1712189760015625
-172.22,1712189760031250
-139.54,1712189760046875
-99.83,1712189760062500
-58.82,1712189760078125
-21.53,1712189760093750
8.97,1712189760109375
31.9,1712189760125000
48.08,1712189760140625
58.82,1712189760156250
65.11,1712189760171875
67.31,1712189760187500
65.57,1712189760203125
60.44,1712189760218750
53.29,1712189760234375
46.12,1712189760250000
40.96,1712189760265625
39.16,1712189760281250
40.86,1712189760296875
45.0,1712189760312500
49.78,1712189760328125
53.32,1712189760343750
54.26,1712189760359375
52.06,1712189760375000
46.83,1712189760390625
39.12,1712189760406250
29.62,1712189760421875
18.91,1712189760437500
7.47,1712189760453125
-4.38,1712189760468750
-16.38,1712189760484375
-28.46,1712189760500000
-40.7,1712189760515625
-53.46,1712189760531250
-67.37,1712189760546875
-83.09,1712189760562500
-100.88,1712189760578125
-119.88,1712189760593750
-137.73,1712189760609375
-150.6,1712189760625000
-154.22,1712189760640625
-145.27,1712189760656250
-122.92,1712189760671875
-89.35,1712189760687500
-49.32,1712189760703125
-8.63,1712189760718750
27.75,1712189760734375
56.86,1712189760750000
78.04,1712189760765625
92.14,1712189760781250
100.46,1712189760796875
104.02,1712189760812500
103.36,1712189760828125
98.98,1712189760843750
91.72,1712189760859375
83.03,1712189760875000
74.64,1712189760890625
68.12,1712189760906250
64.43,1712189760921875
63.64,1712189760937500
65.01,1712189760953125
67.3,1712189760968750
69.05,1712189760984375
68.98,1712189761000000
66.15,1712189761015625
60.02,1712189761031250
50.55,1712189761046875
38.15,1712189761062500
23.59,1712189761078125
7.91,1712189761093750
-7.8,1712189761109375
-22.72,1712189761125000
-36.48,1712189761140625
-49.39,1712189761156250
-62.46,1712189761171875
-77.15,1712189761187500
-94.71,1712189761203125
-115.39,1712189761218750
-137.75,1712189761234375
-158.35,1712189761250000
-172.34,1712189761265625
-174.84,1712189761281250
-162.69,1712189761296875
-135.78,1712189761312500
-97.4,1712189761328125
-53.26,1712189761343750
-9.74,1712189761359375
28.04,1712189761375000
57.37,1712189761390625
78.0,1712189761406250
91.23,1712189761421875
98.8,1712189761437500
102.01,1712189761453125
101.63,1712189761468750
98.17,1712189761484375
92.35,1712189761500000
85.28,1712189761515625
78.31,1712189761531250
72.66,1712189761546875
69.06,1712189761562500
67.68,1712189761578125
68.12,1712189761593750
69.67,1712189761609375
71.3,1712189761625000
71.92,1712189761640625
70.35,1712189761656250
65.68,1712189761671875
57.41,1712189761687500
45.71,1712189761703125
31.32,1712189761718750
15.35,1712189761734375
-1.07,1712189761750000
-17.17,1712189761765625
-32.67,1712189761781250
-47.7,1712189761796875
-62.79,1712189761812500
-78.72,1712189761828125
-96.32,1712189761843750
-115.97,1712189761859375
-136.97,1712189761875000
-156.98,1712189761890625
-172.09,1712189761906250
-177.64,1712189761921875
-169.86,1712189761937500
-147.34,1712189761953125
-111.95,1712189761968750
-68.42,1712189761984375
-22.96,1712189762000000
18.72,1712189762015625
52.86,1712189762031250
78.2,1712189762046875
95.44,1712189762062500
106.13,1712189762078125
111.79,1712189762093750
113.37,1712189762109375
111.55,1712189762125000
106.98,1712189762140625
100.69,1712189762156250
93.96,1712189762171875
88.04,1712189762187500
83.75,1712189762203125
81.25,1712189762218750
80.14,1712189762234375
79.7,1712189762250000
79.26,1712189762265625
78.23,1712189762281250
76.13,1712189762296875
72.4,1712189762312500
66.41,1712189762328125
57.6,1712189762343750
45.77,1712189762359375
31.29,1712189762375000
15.08,1712189762390625
-1.65,1712189762406250
-17.84,1712189762421875
-32.93,1712189762437500
-47.08,1712189762453125
-61.11,1712189762468750
-76.22,1712189762484375
-93.54,1712189762500000
-113.48,1712189762515625
-135.06,1712189762531250
-155.56,1712189762546875
-170.77,1712189762562500
-176.07,1712189762578125
-167.9,1712189762593750
-145.27,1712189762609375
-110.22,1712189762625000
-67.44,1712189762640625
-22.71,1712189762656250
18.82,1712189762671875
53.8,1712189762687500
81.01,1712189762703125
100.64,1712189762718750
113.48,1712189762734375
120.27,1712189762750000
121.63,1712189762765625
118.5,1712189762781250
112.37,1712189762796875
105.21,1712189762812500
98.99,1712189762828125
94.99,1712189762843750
93.38,1712189762859375
93.36,1712189762875000
93.63,1712189762890625
93.05,1712189762906250
91.0,1712189762921875
87.46,1712189762937500
82.63,1712189762953125
76.48,1712189762968750
68.67,1712189762984375
58.56,1712189763000000
45.75,1712189763015625
30.42,1712189763031250
13.48,1712189763046875
-3.6,1712189763062500
-19.3,1712189763078125
-32.68,1712189763093750
-43.7,1712189763109375
-53.34,1712189763125000
-63.32,1712189763140625
-75.53,1712189763156250
-91.41,1712189763171875
-111.1,1712189763187500
-132.92,1712189763203125
-153.31,1712189763218750
-167.42,1712189763234375
-170.4,1712189763250000
-159.17,1712189763265625
-133.6,1712189763281250
-96.71,1712189763296875
-53.87,1712189763312500
-10.93,1712189763328125
27.41,1712189763343750
58.61,1712189763359375
82.09,1712189763375000
98.42,1712189763390625
108.36,1712189763406250
112.42,1712189763421875
111.02,1712189763437500
105.03,1712189763453125
95.97,1712189763468750
85.99,1712189763484375
77.16,1712189763500000
70.93,1712189763515625
67.77,1712189763531250
67.19,1712189763546875
68.14,1712189763562500
69.43,1712189763578125
70.06,1712189763593750
69.21,1712189763609375
66.27,1712189763625000
60.7,1712189763640625
52.21,1712189763656250
40.79,1712189763671875
26.87,1712189763687500
11.27,1712189763703125
-4.97,1712189763718750
-20.85,1712189763734375
-35.57,1712189763750000
-48.87,1712189763765625
-61.06,1712189763781250
-73.11,1712189763796875
-86.43,1712189763812500
-102.39,1712189763828125
-121.49,1712189763843750
-142.56,1712189763859375
-162.4,1712189763875000
-176.31,1712189763890625
-179.28,1712189763906250
-167.89,1712189763921875
-141.61,1712189763937500
-103.22,1712189763953125
-58.09,1712189763968750
-12.43,1712189763984375
28.43,1712189764000000
61.18,1712189764015625
84.72,1712189764031250
99.63,1712189764046875
107.15,1712189764062500
108.65,1712189764078125
105.35,1712189764093750
98.52,1712189764109375
89.56,1712189764125000
80.08,1712189764140625
71.54,1712189764156250
65.0,1712189764171875
60.85,1712189764187500
58.87,1712189764203125
58.36,1712189764218750
58.43,1712189764234375
58.24,1712189764250000
57.05,1712189764265625
54.16,1712189764281250
48.95,1712189764296875
40.88,1712189764312500
29.78,1712189764328125
15.92,1712189764343750
0.13,1712189764359375
-16.36,1712189764375000
-32.31,1712189764390625
-46.85,1712189764406250
-59.75,1712189764421875
-71.55,1712189764437500
-83.47,1712189764453125
-97.04,1712189764468750
-113.56,1712189764484375
-133.3,1712189764500000
-154.8,1712189764515625
-174.59,1712189764531250
-187.7,1712189764546875
-189.0,1712189764562500
-175.09,1712189764578125
-145.72,1712189764593750
-104.19,1712189764609375
-56.47,1712189764625000
-9.25,1712189764640625
32.01,1712189764656250
64.32,1712189764671875
87.16,1712189764687500
101.61,1712189764703125
109.29,1712189764718750
111.57,1712189764734375
109.51,1712189764750000
104.26,1712189764765625
97.23,1712189764781250
90.06,1712189764796875
84.16,1712189764812500
80.26,1712189764828125
78.18,1712189764843750
77.02,1712189764859375
75.79,1712189764875000
73.91,1712189764890625
71.38,1712189764906250
68.61,1712189764921875
65.84,1712189764937500
62.76,1712189764953125
58.33,1712189764968750
51.32,1712189764984375
40.88,1712189765000000
27.04,1712189765015625
10.87,1712189765031250
-6.05,1712189765046875
-22.2,1712189765062500
-36.77,1712189765078125
-49.88,1712189765093750
-62.53,1712189765109375
-76.15,1712189765125000
-92.18,1712189765140625
-111.49,1712189765156250
-133.79,1712189765171875
-157.18,1712189765187500
-177.98,1712189765203125
-191.38,1712189765218750
-192.71,1712189765234375
-179.13,1712189765250000
-150.88,1712189765265625
-111.48,1712189765281250
-66.61,1712189765296875
-22.16,1712189765312500
17.51,1712189765328125
50.41,1712189765343750
76.4,1712189765359375
96.11,1712189765375000
109.93,1712189765390625
117.72,1712189765406250
119.38,1712189765421875
115.62,1712189765437500
108.32,1712189765453125
100.01,1712189765468750
93.03,1712189765484375
88.67,1712189765500000
86.73,1712189765515625
86.03,1712189765531250
85.15,1712189765546875
83.18,1712189765562500
79.98,1712189765578125
75.98,1712189765593750
71.58,1712189765609375
66.71,1712189765625000
60.61,1712189765640625
52.18,1712189765656250
40.48,1712189765671875
25.43,1712189765687500
7.94,1712189765703125
-10.24,1712189765718750
-27.12,1712189765734375
-41.29,1712189765750000
-52.36,1712189765765625
-61.17,1712189765781250
-69.42,1712189765796875
-79.16,1712189765812500
-92.1,1712189765828125
-109.01,1712189765843750
-129.23,1712189765859375
-150.38,1712189765875000
-168.63,1712189765890625
-179.36,1712189765906250
-178.46,1712189765921875
-163.68,1712189765937500
-135.54,1712189765953125
-97.31,1712189765968750
-54.1,1712189765984375
-11.25,1712189766000000
27.07,1712189766015625
58.55,1712189766031250
82.6,1712189766046875
99.54,1712189766062500
109.9,1712189766078125
114.1,1712189766093750
112.75,1712189766109375
107.04,1712189766125000
98.92,1712189766140625
90.73,1712189766156250
84.51,1712189766171875
81.29,1712189766187500
80.82,1712189766203125
81.83,1712189766218750
82.71,1712189766234375
82.29,1712189766250000
80.17,1712189766265625
76.72,1712189766281250
72.5,1712189766296875
67.76,1712189766312500
62.14,1712189766328125
54.77,1712189766343750
44.77,1712189766359375
31.76,1712189766375000
16.24,1712189766390625
-0.59,1712189766406250
-17.05,1712189766421875
-31.68,1712189766437500
-43.78,1712189766453125
-53.7,1712189766468750
-62.78,1712189766484375
-72.91,1712189766500000
-85.97,1712189766515625
-103.0,1712189766531250
-123.46,1712189766546875
-144.89,1712189766562500
-163.17,1712189766578125
-173.36,1712189766593750
-171.26,1712189766609375
-154.74,1712189766625000
-124.73,1712189766640625
-84.98,1712189766656250
-40.97,1712189766671875
1.69,1712189766687500
38.73,1712189766703125
67.85,1712189766718750
88.57,1712189766734375
101.43,1712189766750000
107.17,1712189766765625
106.52,1712189766781250
100.33,1712189766796875
90.03,1712189766812500
77.73,1712189766828125
65.93,1712189766843750
56.74,1712189766859375
51.24,1712189766875000
49.27,1712189766890625
49.7,1712189766906250
51.12,1712189766921875
52.45,1712189766937500
53.1,1712189766953125
52.8,1712189766968750
51.19,1712189766984375
47.61,1712189767000000
41.3,1712189767015625
31.77,1712189767031250
19.23,1712189767046875
4.66,1712189767062500
-10.55,1712189767078125
-25.0,1712189767093750
-37.86,1712189767109375
-48.99,1712189767125000
-59.04,1712189767140625
-69.15,1712189767156250
-80.67,1712189767171875
-94.79,1712189767187500
-111.89,1712189767203125
-131.04,1712189767218750
-149.52,1712189767234375
-163.16,1712189767250000
-167.33,1712189767265625
-158.45,1712189767281250
-135.41,1712189767296875
-100.27,1712189767312500
-57.69,1712189767328125
-13.58,1712189767343750
26.71,1712189767359375
59.59,1712189767375000
83.57,1712189767390625
98.8,1712189767406250
106.19,1712189767421875
106.88,1712189767437500
102.06,1712189767453125
93.18,1712189767468750
82.19,1712189767484375
71.3,1712189767500000
62.55,1712189767515625
57.14,1712189767531250
55.16,1712189767546875
55.72,1712189767562500
57.42,1712189767578125
59.03,1712189767593750
59.87,1712189767609375
59.76,1712189767625000
58.66,1712189767640625
56.3,1712189767656250
51.99,1712189767671875
44.81,1712189767687500
34.09,1712189767703125
19.88,1712189767718750
3.1,1712189767734375
-14.69,1712189767750000
-31.8,1712189767765625
-47.09,1712189767781250
-60.25,1712189767796875
-72.01,1712189767812500
-83.84,1712189767828125
-97.49,1712189767843750
-114.29,1712189767859375
-134.45,1712189767875000
-156.44,1712189767890625
-176.8,1712189767906250
-190.89,1712189767921875
-193.94,1712189767937500
-182.75,1712189767953125
-156.84,1712189767968750
-118.89,1712189767984375
-73.93,1712189768000000
-27.83,1712189768015625
14.28,1712189768031250
49.16,1712189768046875
75.59,1712189768062500
93.82,1712189768078125
104.71,1712189768093750
109.19,1712189768109375
108.15,1712189768125000
102.66,1712189768140625
94.26,1712189768156250
84.9,1712189768171875
76.55,1712189768187500
70.68,1712189768203125
67.9,1712189768218750
67.76,1712189768234375
69.07,1712189768250000
70.51,1712189768265625
71.09,1712189768281250
70.42,1712189768296875
68.52,1712189768312500
65.45,1712189768328125
60.93,1712189768343750
54.33,1712189768359375
44.91,1712189768375000
32.37,1712189768390625
17.24,1712189768406250
0.86,1712189768421875
-15.03,1712189768437500
-29.0,1712189768453125
-40.43,1712189768468750
-49.92,1712189768484375
-58.99,1712189768500000
-69.65,1712189768515625
-83.66,1712189768531250
-101.85,1712189768546875
-123.47,1712189768562500
-145.88,1712189768578125
-164.88,1712189768593750
-175.55,1712189768609375
-173.71,1712189768625000
-157.29,1712189768640625
-127.19,1712189768656250
-87.1,1712189768671875
-42.4,1712189768687500
1.47,1712189768703125
40.36,1712189768718750
72.04,1712189768734375
95.97,1712189768750000
112.52,1712189768765625
122.3,1712189768781250
125.8,1712189768796875
123.72,1712189768812500
117.24,1712189768828125
108.18,1712189768843750
98.79,1712189768859375
91.04,1712189768875000
86.16,1712189768890625
84.17,1712189768906250
84.1,1712189768921875
84.53,1712189768937500
84.2,1712189768953125
82.48,1712189768968750
79.49,1712189768984375
75.68,1712189769000000
71.4,1712189769015625
66.41,1712189769031250
59.9,1712189769046875
50.82,1712189769062500
38.58,1712189769078125
23.47,1712189769093750
6.82,1712189769109375
-9.52,1712189769125000
-23.89,1712189769140625
-35.53,1712189769156250
-44.87,1712189769171875
-53.34,1712189769187500
-62.84,1712189769203125
-75.09,1712189769218750
-91.16,1712189769234375
-110.95,1712189769250000
-132.87,1712189769265625
-153.82,1712189769281250
-169.54,1712189769296875
-175.5,1712189769312500
-168.36,1712189769328125
-147.18,1712189769343750
-113.96,1712189769359375
-73.26,1712189769375000
-30.72,1712189769390625
8.54,1712189769406250
41.08,1712189769421875
65.53,1712189769437500
82.08,1712189769453125
91.57,1712189769468750
94.95,1712189769484375
93.13,1712189769500000
87.18,1712189769515625
78.61,1712189769531250
69.33,1712189769546875
61.31,1712189769562500
55.95,1712189769578125
53.78,1712189769593750
54.31,1712189769609375
56.39,1712189769625000
58.76,1712189769640625
60.45,1712189769656250
60.95,1712189769671875
60.03,1712189769687500
57.41,1712189769703125
52.63,1712189769718750
45.04,1712189769734375
34.19,1712189769750000
20.26,1712189769765625
4.18,1712189769781250
-12.5,1712189769796875
-28.15,1712189769812500
-41.66,1712189769828125
-52.86,1712189769843750
-62.58,1712189769859375
-72.34,1712189769875000
-83.84,1712189769890625
-98.27,1712189769906250
-115.77,1712189769921875
-134.96,1712189769937500
-152.81,1712189769953125
-165.14,1712189769968750
-167.64,1712189769984375
-157.25,1712189770000000
-133.37,1712189770015625
-98.34,1712189770031250
-56.84,1712189770046875
-14.5,1712189770062500
23.7,1712189770078125
54.55,1712189770093750
76.95,1712189770109375
91.28,1712189770125000
98.71,1712189770140625
100.42,1712189770156250
97.53,1712189770171875
91.22,1712189770187500
82.97,1712189770203125
74.49,1712189770218750
67.43,1712189770234375
62.88,1712189770250000
61.06,1712189770265625
61.27,1712189770281250
62.23,1712189770296875
62.6,1712189770312500
61.53,1712189770328125
58.75,1712189770343750
54.39,1712189770359375
48.57,1712189770375000
41.07,1712189770390625
31.32,1712189770406250
18.82,1712189770421875
3.66,1712189770437500
-13.18,1712189770453125
-30.06,1712189770468750
-45.17,1712189770484375
-57.39,1712189770500000
-66.75,1712189770515625
-74.5,1712189770531250
-82.65,1712189770546875
-93.33,1712189770562500
-107.95,1712189770578125
-126.49,1712189770593750
-147.06,1712189770609375
-165.95,1712189770625000
-178.36,1712189770640625
-179.7,1712189770656250
-167.12,1712189770671875
-140.62,1712189770687500
-103.17,1712189770703125
-59.86,1712189770718750
-16.3,1712189770734375
22.85,1712189770750000
54.81,1712189770765625
78.63,1712189770781250
94.61,1712189770796875
103.5,1712189770812500
106.14,1712189770828125
103.47,1712189770843750
96.82,1712189770859375
88.06,1712189770875000
79.36,1712189770890625
72.64,1712189770906250
69.0,1712189770921875
68.3,1712189770937500
69.35,1712189770953125
70.51,1712189770968750
70.46,1712189770984375
68.78,1712189771000000
65.97,1712189771015625
62.85,1712189771031250
59.91,1712189771046875
56.68,1712189771062500
51.79,1712189771078125
43.71,1712189771093750
31.49,1712189771109375
15.46,1712189771125000
-2.8,1712189771140625
-21.07,1712189771156250
-37.4,1712189771171875
-50.87,1712189771187500
-61.82,1712189771203125
-71.74,1712189771218750
-82.62,1712189771234375
-96.31,1712189771250000
-113.88,1712189771265625
-135.11,1712189771281250
-158.04,1712189771296875
-179.08,1712189771312500
-193.56,1712189771328125
-196.94,1712189771343750
-186.26,1712189771359375
-161.26,1712189771375000
-124.63,1712189771390625
-81.27,1712189771406250
-36.79,1712189771421875
4.06,1712189771437500
38.29,1712189771453125
64.79,1712189771468750
83.78,1712189771484375
95.94,1712189771500000
101.91,1712189771515625
102.33,1712189771531250
98.1,1712189771546875
90.77,1712189771562500
82.36,1712189771578125
75.0,1712189771593750
70.22,1712189771609375
68.47,1712189771625000
69.05,1712189771640625
70.54,1712189771656250
71.54,1712189771671875
71.31,1712189771687500
69.97,1712189771703125
68.14,1712189771718750
66.31,1712189771734375
64.23,1712189771750000
60.89,1712189771765625
54.83,1712189771781250
44.93,1712189771796875
31.01,1712189771812500
14.02,1712189771828125
-4.34,1712189771843750
-22.24,1712189771859375
-38.37,1712189771875000
-52.44,1712189771890625
-65.13,1712189771906250
-77.86,1712189771921875
-92.34,1712189771937500
-109.99,1712189771953125
-131.31,1712189771968750
-155.15,1712189771984375
-178.47,1712189772000000
-196.59,1712189772015625
-204.37,1712189772031250
-197.85,1712189772046875
-175.77,1712189772062500
-140.11,1712189772078125
-95.57,1712189772093750
-47.98,1712189772109375
-2.59,1712189772125000
37.06,1712189772140625
69.32,1712189772156250
93.83,1712189772171875
110.76,1712189772187500
120.36,1712189772203125
122.96,1712189772218750
119.41,1712189772234375
111.37,1712189772250000
101.28,1712189772265625
91.82,1712189772281250
85.17,1712189772296875
82.38,1712189772312500
83.16,1712189772328125
86.04,1712189772343750
89.09,1712189772359375
90.73,1712189772375000
90.18,1712189772390625
87.55,1712189772406250
83.35,1712189772421875
77.91,1712189772437500
70.95,1712189772453125
61.64,1712189772468750
49.14,1712189772484375
33.25,1712189772500000
14.73,1712189772515625
-4.75,1712189772531250
-23.24,1712189772546875
-39.32,1712189772562500
-52.64,1712189772578125
-64.1,1712189772593750
-75.53,1712189772609375
-89.07,1712189772625000
-106.4,1712189772640625
-128.03,1712189772656250
-152.65,1712189772671875
-177.01,1712189772687500
-196.34,1712189772703125
-205.38,1712189772718750
-199.99,1712189772734375
-178.49,1712189772750000
-142.41,1712189772765625
-96.05,1712189772781250
-45.27,1712189772796875
4.23,1712189772812500
48.19,1712189772828125
84.36,1712189772843750
112.06,1712189772859375
131.47,1712189772875000
142.94,1712189772890625
146.94,1712189772906250
144.29,1712189772921875
136.59,1712189772937500
126.31,1712189772953125
116.21,1712189772968750
108.63,1712189772984375
104.74,1712189773000000
104.24,1712189773015625
105.66,1712189773031250
107.21,1712189773046875
107.56,1712189773062500
106.18,1712189773078125
103.27,1712189773093750
99.11,1712189773109375
93.58,1712189773125000
85.92,1712189773140625
75.05,1712189773156250
60.22,1712189773171875
41.58,1712189773187500
20.27,1712189773203125
-1.78,1712189773218750
-22.59,1712189773234375
-40.73,1712189773250000
-55.85,1712189773265625
-68.68,1712189773281250
-80.81,1712189773296875
-94.26,1712189773312500
-110.8,1712189773328125
-131.35,1712189773343750
-155.16,1712189773359375
-179.44,1712189773375000
-199.53,1712189773390625
-209.87,1712189773406250
-205.57,1712189773421875
-184.14,1712189773437500
-146.47,1712189773453125
-96.81,1712189773468750
-41.55,1712189773484375
12.64,1712189773500000
60.39,1712189773515625
98.59,1712189773531250
126.16,1712189773546875
143.49,1712189773562500
151.59,1712189773578125
151.68,1712189773593750
145.27,1712189773609375
134.22,1712189773625000
120.9,1712189773640625
107.8,1712189773656250
97.06,1712189773671875
89.92,1712189773687500
86.53,1712189773703125
86.0,1712189773718750
87.02,1712189773734375
88.3,1712189773750000
88.96,1712189773765625
88.53,1712189773781250
86.63,1712189773796875
82.69,1712189773812500
75.85,1712189773828125
65.21,1712189773843750
50.29,1712189773859375
31.46,1712189773875000
10.07,1712189773890625
-11.82,1712189773906250
-32.13,1712189773921875
-49.44,1712189773937500
-63.5,1712189773953125
-75.33,1712189773968750
-86.81,1712189773984375
-100.18,1712189774000000
-117.15,1712189774015625
-138.13,1712189774031250
-161.62,1712189774046875
-184.04,1712189774062500
-200.3,1712189774078125
-205.09,1712189774093750
-194.54,1712189774109375
-167.65,1712189774125000
-126.73,1712189774140625
-76.87,1712189774156250
-24.33,1712189774171875
25.07,1712189774187500
67.3,1712189774203125
100.29,1712189774218750
123.61,1712189774234375
137.7,1712189774250000
143.31,1712189774265625
141.46,1712189774281250
133.56,1712189774296875
121.64,1712189774312500
108.13,1712189774328125
95.42,1712189774343750
85.31,1712189774359375
78.59,1712189774375000
74.97,1712189774390625
73.48,1712189774406250
72.99,1712189774421875
72.51,1712189774437500
71.47,1712189774453125
69.39,1712189774468750
65.68,1712189774484375
59.42,1712189774500000
49.6,1712189774515625
35.53,1712189774531250
17.35,1712189774546875
-3.77,1712189774562500
-25.92,1712189774578125
-47.02,1712189774593750
-65.6,1712189774609375
-81.23,1712189774625000
-94.73,1712189774640625
-107.85,1712189774656250
-122.7,1712189774671875
-140.95,1712189774687500
-162.96,1712189774703125
-187.07,1712189774718750
-209.43,1712189774734375
-224.67,1712189774750000
-227.3,1712189774765625
-213.42,1712189774781250
-182.21,1712189774796875
-136.46,1712189774812500
-81.75,1712189774828125
-24.84,1712189774843750
28.14,1712189774859375
73.04,1712189774875000
107.94,1712189774890625
132.66,1712189774906250
147.97,1712189774921875
154.9,1712189774937500
154.62,1712189774953125
148.53,1712189774968750
138.5,1712189774984375
126.72,1712189775000000
115.35,1712189775015625
105.98,1712189775031250
99.26,1712189775046875
94.85,1712189775062500
91.77,1712189775078125
88.93,1712189775093750
85.67,1712189775109375
81.83,1712189775125000
77.61,1712189775140625
72.96,1712189775156250
67.28,1712189775171875
59.37,1712189775187500
47.88,1712189775203125
32.0,1712189775218750
12.07,1712189775234375
-10.38,1712189775250000
-33.02,1712189775265625
-53.59,1712189775281250
-70.69,1712189775296875
-84.37,1712189775312500
-96.0,1712189775328125
-107.85,1712189775343750
-122.31,1712189775359375
-140.98,1712189775375000
-163.81,1712189775390625
-188.64,1712189775406250
-211.2,1712189775421875
-225.94,1712189775437500
-227.49,1712189775453125
-212.34,1712189775468750
-180.11,1712189775484375
-133.86,1712189775500000
-79.21,1712189775515625
-22.71,1712189775531250
29.9,1712189775546875
74.78,1712189775562500
110.2,1712189775578125
135.95,1712189775593750
152.53,1712189775609375
160.59,1712189775625000
160.94,1712189775640625
154.79,1712189775656250
144.04,1712189775671875
131.13,1712189775687500
118.62,1712189775703125
108.51,1712189775718750
101.72,1712189775734375
97.94,1712189775750000
95.98,1712189775765625
94.41,1712189775781250
92.22,1712189775796875
89.02,1712189775812500
84.92,1712189775828125
80.05,1712189775843750
74.08,1712189775859375
66.11,1712189775875000
54.96,1712189775890625
39.78,1712189775906250
20.7,1712189775921875
-1.08,1712189775937500
-23.44,1712189775953125
-44.18,1712189775968750
-61.72,1712189775984375
-75.71,1712189776000000
-87.13,1712189776015625
-97.89,1712189776031250
-110.26,1712189776046875
-126.03,1712189776062500
-145.73,1712189776078125
-168.04,1712189776093750
-189.58,1712189776109375
-205.47,1712189776125000
-210.47,1712189776140625
-200.6,1712189776156250
-174.59,1712189776171875
-134.41,1712189776187500
-84.83,1712189776203125
-31.9,1712189776218750
18.68,1712189776234375
62.86,1712189776250000
98.67,1712189776265625
125.67,1712189776281250
144.2,1712189776296875
154.71,1712189776312500
157.69,1712189776328125
153.9,1712189776343750
144.81,1712189776359375
132.74,1712189776375000
120.38,1712189776390625
110.15,1712189776406250
103.45,1712189776421875
100.26,1712189776437500
99.35,1712189776453125
98.94,1712189776468750
97.53,1712189776484375
94.41,1712189776500000
89.75,1712189776515625
84.12,1712189776531250
77.89,1712189776546875
70.72,1712189776562500
61.63,1712189776578125
49.42,1712189776593750
33.4,1712189776609375
13.92,1712189776625000
-7.56,1712189776640625
-28.9,1712189776656250
-48.08,1712189776671875
-63.9,1712189776687500
-76.49,1712189776703125
-87.12,1712189776718750
-97.86,1712189776734375
-110.85,1712189776750000
-127.63,1712189776765625
-148.47,1712189776781250
-171.81,1712189776796875
-194.19,1712189776812500
-210.72,1712189776828125
-216.24,1712189776843750
-206.85,1712189776859375
-181.35,1712189776875000
-141.8,1712189776890625
-92.95,1712189776906250
-40.99,1712189776921875
8.31,1712189776937500
50.79,1712189776953125
84.41,1712189776968750
108.78,1712189776984375
124.37,1712189777000000
131.96,1712189777015625
132.36,1712189777031250
126.73,1712189777046875
116.82,1712189777062500
105.0,1712189777078125
93.84,1712189777093750
85.38,1712189777109375
80.53,1712189777125000
78.87,1712189777140625
79.03,1712189777156250
79.37,1712189777171875
78.75,1712189777187500
76.81,1712189777203125
73.69,1712189777218750
69.56,1712189777234375
64.07,1712189777250000
56.35,1712189777265625
45.36,1712189777281250
30.52,1712189777296875
12.16,1712189777312500
-8.29,1712189777328125
-28.81,1712189777343750
-47.41,1712189777359375
-62.87,1712189777375000
-75.24,1712189777390625
-85.83,1712189777406250
-96.75,1712189777421875
-110.22,1712189777437500
-127.79,1712189777453125
-149.52,1712189777468750
-173.61,1712189777484375
-196.47,1712189777500000
-213.39,1712189777515625
-219.73,1712189777531250
-212.31,1712189777546875
-190.52,1712189777562500
-156.5,1712189777578125
-114.61,1712189777593750
-70.11,1712189777609375
-27.85,1712189777625000
8.66,1712189777640625
37.34,1712189777656250
57.21,1712189777671875
67.78,1712189777687500
68.86,1712189777703125
60.87,1712189777718750
45.25,1712189777734375
24.78,1712189777750000
3.27,1712189777765625
-15.18,1712189777781250
-27.48,1712189777796875
-32.61,1712189777812500
-32.34,1712189777828125
-31.03,1712189777843750
-34.23,1712189777859375
-46.5,1712189777875000
-69.36,1712189777890625
-100.41,1712189777906250
-134.06,1712189777921875
-163.45,1712189777937500
-182.7,1712189777953125
-188.22,1712189777968750
-178.91,1712189777984375
-155.37,1712189778000000
-119.33,1712189778015625
-73.38,1712189778031250
-21.29,1712189778046875
31.93,1712189778062500
80.51,1712189778078125
119.09,1712189778093750
144.07,1712189778109375
154.12,1712189778125000
150.1,1712189778140625
134.51,1712189778156250
111.01,1712189778171875
84.39,1712189778187500
60.34,1712189778203125
44.8,1712189778218750
42.57,1712189778234375
55.83,1712189778250000
83.36,1712189778265625
120.97,1712189778281250
162.84,1712189778296875
203.41,1712189778312500
238.68,1712189778328125
266.53,1712189778343750
286.15,1712189778359375
297.25,1712189778375000
299.57,1712189778390625
292.92,1712189778406250
277.69,1712189778421875
255.24,1712189778437500
227.87,1712189778453125
198.31,1712189778468750
168.9,1712189778484375
141.13,1712189778500000
115.6,1712189778515625
92.33,1712189778531250
71.31,1712189778546875
52.67,1712189778562500
36.59,1712189778578125
22.94,1712189778593750
11.05,1712189778609375
-0.21,1712189778625000
-12.04,1712189778640625
-25.41,1712189778656250
-40.72,1712189778671875
-57.94,1712189778687500
-76.67,1712189778703125
-96.4,1712189778718750
-116.51,1712189778734375
-136.23,1712189778750000
-154.65,1712189778765625
-170.91,1712189778781250
-184.64,1712189778796875
-196.31,1712189778812500
-207.48,1712189778828125
-220.33,1712189778843750
-236.71,1712189778859375
-256.8,1712189778875000
-278.16,1712189778890625
-295.74,1712189778906250
-303.26,1712189778921875
-295.17,1712189778937500
-268.63,1712189778953125
-224.43,1712189778968750
-166.65,1712189778984375
-101.28,1712189779000000
-34.4,1712189779015625
29.07,1712189779031250
86.02,1712189779046875
134.84,1712189779062500
174.82,1712189779078125
205.66,1712189779093750
227.19,1712189779109375
239.55,1712189779125000
243.41,1712189779140625
240.12,1712189779156250
231.59,1712189779171875
219.93,1712189779187500
206.94,1712189779203125
193.76,1712189779218750
180.7,1712189779234375
167.56,1712189779250000
154.06,1712189779265625
140.3,1712189779281250
126.75,1712189779296875
113.93,1712189779312500
101.95,1712189779328125
90.25,1712189779343750
77.77,1712189779359375
63.34,1712189779375000
46.19,1712189779390625
26.41,1712189779406250
4.91,1712189779421875
-16.81,1712189779437500
-37.06,1712189779453125
-54.49,1712189779468750
-68.45,1712189779484375
-79.19,1712189779500000
-87.87,1712189779515625
-96.28,1712189779531250
-106.25,1712189779546875
-118.94,1712189779562500
-134.25,1712189779578125
-150.7,1712189779593750
-166.07,1712189779609375
-178.29,1712189779625000
-186.05,1712189779640625
-188.89,1712189779656250
-186.56,1712189779671875
-178.16,1712189779687500
-161.89,1712189779703125
-135.8,1712189779718750
-99.19,1712189779734375
-53.93,1712189779750000
-4.78,1712189779765625
41.74,1712189779781250
79.29,1712189779796875
103.68,1712189779812500
113.92,1712189779828125
111.87,1712189779843750
101.2,1712189779859375
85.99,1712189779875000
69.85,1712189779890625
55.5,1712189779906250
44.7,1712189779921875
38.34,1712189779937500
36.43,1712189779953125
38.2,1712189779968750
42.25,1712189779984375
46.81,1712189780000000
50.18,1712189780015625
50.98,1712189780031250
48.32,1712189780046875
41.75,1712189780062500
31.22,1712189780078125
17.09,1712189780093750
0.23,1712189780109375
-18.11,1712189780125000
-36.46,1712189780140625
-53.51,1712189780156250
-68.43,1712189780171875
-81.18,1712189780187500
-92.42,1712189780203125
-103.26,1712189780218750
-115.01,1712189780234375
-128.84,1712189780250000
-145.49,1712189780265625
-164.76,1712189780281250
-185.08,1712189780296875
-203.34,1712189780312500
-215.27,1712189780328125
-216.48,1712189780343750
-203.88,1712189780359375
-176.99,1712189780375000
-138.27,1712189780390625
-92.5,1712189780406250
-45.34,1712189780421875
-1.65,1712189780437500
35.51,1712189780453125
65.07,1712189780468750
87.21,1712189780484375
102.54,1712189780500000
111.48,1712189780515625
114.33,1712189780531250
111.62,1712189780546875
104.73,1712189780562500
95.88,1712189780578125
87.68,1712189780593750
82.36,1712189780609375
81.0,1712189780625000
83.2,1712189780640625
87.3,1712189780656250
91.2,1712189780671875
93.14,1712189780687500
92.32,1712189780703125
88.9,1712189780718750
83.61,1712189780734375
77.12,1712189780750000
69.57,1712189780765625
60.51,1712189780781250
49.19,1712189780796875
35.07,1712189780812500
18.25,1712189780828125
-0.36,1712189780843750
-19.31,1712189780859375
-37.08,1712189780875000
-52.63,1712189780890625
-65.65,1712189780906250
-76.7,1712189780921875
-86.91,1712189780937500
-97.73,1712189780953125
-110.54,1712189780968750
-126.39,1712189780984375
-145.53,1712189781000000
-166.92,1712189781015625
-187.91,1712189781031250
-204.37,1712189781046875
-211.61,1712189781062500
-205.67,1712189781078125
-184.83,1712189781093750
-150.41,1712189781109375
-106.63,1712189781125000
-59.35,1712189781140625
-14.48,1712189781156250
23.5,1712189781171875
52.29,1712189781187500
71.59,1712189781203125
82.29,1712189781218750
85.78,1712189781234375
83.47,1712189781250000
76.81,1712189781265625
67.64,1712189781281250
58.34,1712189781296875
51.45,1712189781312500
48.94,1712189781328125
51.37,1712189781343750
57.51,1712189781359375
64.81,1712189781375000
70.63,1712189781390625
73.54,1712189781406250
73.95,1712189781421875
73.72,1712189781437500
74.86,1712189781453125
78.12,1712189781468750
82.26,1712189781484375
84.41,1712189781500000
81.47,1712189781515625
71.67,1712189781531250
55.5,1712189781546875
35.6,1712189781562500
15.64,1712189781578125
-1.26,1712189781593750
-13.73,1712189781609375
-22.51,1712189781625000
-30.04,1712189781640625
-39.57,1712189781656250
-54.21,1712189781671875
-76.28,1712189781687500
-106.82,1712189781703125
-145.08,1712189781718750
-188.05,1712189781734375
-230.27,1712189781750000
-264.31,1712189781765625
-282.27,1712189781781250
-278.07,1712189781796875
-249.51,1712189781812500
-199.44,1712189781828125
-135.27,1712189781843750
-66.97,1712189781859375
-4.23,1712189781875000
46.04,1712189781890625
80.84,1712189781906250
100.83,1712189781921875
108.93,1712189781937500
108.75,1712189781953125
103.67,1712189781968750
96.46,1712189781984375
89.41,1712189782000000
84.57,1712189782015625
83.71,1712189782031250
87.83,1712189782046875
96.63,1712189782062500
108.59,1712189782078125
121.38,1712189782093750
133.12,1712189782109375
142.8,1712189782125000
150.24,1712189782140625
155.6,1712189782156250
159.02,1712189782171875
160.13,1712189782187500
157.99,1712189782203125
151.55,1712189782218750
140.12,1712189782234375
124.37,1712189782250000
105.9,1712189782265625
86.77,1712189782281250
69.06,1712189782296875
54.61,1712189782312500
44.59,1712189782328125
39.0,1712189782343750
36.68,1712189782359375
35.23,1712189782375000
32.65,1712189782390625
27.27,1712189782406250
18.14,1712189782421875
5.86,1712189782437500
-7.1,1712189782453125
-16.99,1712189782468750
-20.29,1712189782484375
-15.01,1712189782500000
-1.76,1712189782515625
17.79,1712189782531250
41.19,1712189782546875
66.3,1712189782562500
89.17,1712189782578125
106.21,1712189782593750
116.52,1712189782609375
121.24,1712189782625000
124.56,1712189782640625
123.36,1712189782656250
114.71,1712189782671875
98.2,1712189782687500
74.5,1712189782703125
48.16,1712189782718750
24.82,1712189782734375
8.66,1712189782750000
0.66,1712189782765625
-1.07,1712189782781250
-0.25,1712189782796875
0.91,1712189782812500
2.06,1712189782828125
4.06,1712189782843750
7.94,1712189782859375
13.22,1712189782875000
17.23,1712189782890625
15.91,1712189782906250
5.73,1712189782921875
-14.96,1712189782937500
-44.21,1712189782953125
-77.76,1712189782968750
-111.12,1712189782984375
-140.97,1712189783000000
-166.44,1712189783015625
-188.69,1712189783031250
-209.53,1712189783046875
-230.09,1712189783062500
-250.96,1712189783078125
-272.41,1712189783093750
-295.24,1712189783109375
-320.81,1712189783125000
-349.62,1712189783140625
-380.62,1712189783156250
-410.32,1712189783171875
-432.81,1712189783187500
-441.07,1712189783203125
-429.86,1712189783218750
-397.54,1712189783234375
-345.88,1712189783250000
-278.84,1712189783265625
-200.65,1712189783281250
-115.78,1712189783296875
-29.13,1712189783312500
54.06,1712189783328125
128.73,1712189783343750
190.22,1712189783359375
235.35,1712189783375000
262.28,1712189783390625
270.07,1712189783406250
263.77,1712189783421875
252.54,1712189783437500
243.4,1712189783453125
237.93,1712189783468750
234.32,1712189783484375
232.48,1712189783500000
230.25,1712189783515625
226.71,1712189783531250
221.94,1712189783546875
216.61,1712189783562500
210.74,1712189783578125
203.79,1712189783593750
193.0,1712189783609375
177.99,1712189783625000
159.49,1712189783640625
138.21,1712189783656250
115.25,1712189783671875
91.84,1712189783687500
69.4,1712189783703125
48.93,1712189783718750
30.85,1712189783734375
15.39,1712189783750000
3.21,1712189783765625
-5.57,1712189783781250
-12.06,1712189783796875
-18.04,1712189783812500
-25.78,1712189783828125
-37.3,1712189783843750
-54.0,1712189783859375
-75.85,1712189783875000
-100.62,1712189783890625
-123.43,1712189783906250
-138.26,1712189783921875
-139.97,1712189783937500
-125.83,1712189783953125
-96.78,1712189783968750
-57.39,1712189783984375
-14.61,1712189784000000
24.41,1712189784015625
54.56,1712189784031250
74.15,1712189784046875
84.18,1712189784062500
86.82,1712189784078125
84.08,1712189784093750
76.88,1712189784109375
65.32,1712189784125000
49.42,1712189784140625
29.9,1712189784156250
8.4,1712189784171875
-12.95,1712189784187500
-32.49,1712189784203125
-49.69,1712189784218750
-65.05,1712189784234375
-79.49,1712189784250000
-93.47,1712189784265625
-106.5,1712189784281250
-117.07,1712189784296875
-123.2,1712189784312500
-122.94,1712189784328125
-115.05,1712189784343750
-99.28,1712189784359375
-76.3,1712189784375000
-47.75,1712189784390625
-16.12,1712189784406250
15.42,1712189784421875
43.3,1712189784437500
64.05,1712189784453125
74.76,1712189784468750
73.55,1712189784484375
59.78,1712189784500000
34.13,1712189784515625
-1.45,1712189784531250
-43.76,1712189784546875
-88.33,1712189784562500
-129.67,1712189784578125
-162.06,1712189784593750
-180.66,1712189784609375
-182.86,1712189784625000
-169.19,1712189784640625
-143.36,1712189784656250
-111.24,1712189784671875
-79.09,1712189784687500
-51.95,1712189784703125
-32.46,1712189784718750
-20.79,1712189784734375
-15.26,1712189784750000
-13.3,1712189784765625
-12.51,1712189784781250
-11.28,1712189784796875
-9.01,1712189784812500
-5.99,1712189784828125
-2.9,1712189784843750
-0.34,1712189784859375
1.59,1712189784875000
3.42,1712189784890625
5.91,1712189784906250
9.56,1712189784921875
14.3,1712189784937500
19.5,1712189784953125
24.56,1712189784968750
29.38,1712189784984375
34.57,1712189785000000
41.14,1712189785015625
49.76,1712189785031250
60.34,1712189785046875
72.03,1712189785062500
83.81,1712189785078125
95.01,1712189785093750
105.49,1712189785109375
115.3,1712189785125000
124.09,1712189785140625
130.77,1712189785156250
133.65,1712189785171875
130.98,1712189785187500
121.78,1712189785203125
106.45,1712189785218750
87.01,1712189785234375
66.78,1712189785250000
49.64,1712189785265625
39.05,1712189785281250
37.06,1712189785296875
43.7,1712189785312500
56.91,1712189785328125
73.12,1712189785343750
88.19,1712189785359375
98.34,1712189785375000
100.79,1712189785390625
93.99,1712189785406250
77.62,1712189785421875
52.64,1712189785437500
21.52,1712189785453125
-11.83,1712189785468750
-42.66,1712189785484375
-66.55,1712189785500000
-80.83,1712189785515625
-85.39,1712189785531250
-82.48,1712189785546875
-75.39,1712189785562500
-66.92,1712189785578125
-58.28,1712189785593750
-49.18,1712189785609375
-38.7,1712189785625000
-26.55,1712189785640625
-13.89,1712189785656250
-3.15,1712189785671875
2.93,1712189785687500
2.48,1712189785703125
-4.74,1712189785718750
-17.28,1712189785734375
-32.67,1712189785750000
-48.35,1712189785765625
-62.47,1712189785781250
-74.39,1712189785796875
-84.54,1712189785812500
-94.09,1712189785828125
-104.31,1712189785843750
-116.13,1712189785859375
-129.58,1712189785875000
-143.39,1712189785890625
-154.92,1712189785906250
-160.35,1712189785921875
-155.37,1712189785937500
-136.03,1712189785953125
-99.98,1712189785968750
-47.64,1712189785984375
17.2,1712189786000000
87.76,1712189786015625
155.78,1712189786031250
213.53,1712189786046875
255.88,1712189786062500
281.31,1712189786078125
291.49,1712189786093750
289.73,1712189786109375
279.25,1712189786125000
262.08,1712189786140625
239.22,1712189786156250
211.71,1712189786171875
181.58,1712189786187500
151.99,1712189786203125
126.14,1712189786218750
105.95,1712189786234375
91.11,1712189786250000
79.5,1712189786265625
68.58,1712189786281250
56.85,1712189786296875
44.46,1712189786312500
32.64,1712189786328125
22.62,1712189786343750
14.53,1712189786359375
7.37,1712189786375000
-0.28,1712189786390625
-9.13,1712189786406250
-18.58,1712189786421875
-26.9,1712189786437500
-32.37,1712189786453125
-34.61,1712189786468750
-35.38,1712189786484375
-38.63,1712189786500000
-49.4,1712189786515625
-72.13,1712189786531250
-108.58,1712189786546875
-156.6,1712189786562500
-210.0,1712189786578125
-259.97,1712189786593750
-297.68,1712189786609375
-316.76,1712189786625000
-314.98,1712189786640625
-294.29,1712189786656250
-259.43,1712189786671875
-216.04,1712189786687500
-169.18,1712189786703125
-122.93,1712189786718750
-80.62,1712189786734375
-45.23,1712189786750000
-19.32,1712189786765625
-4.5,1712189786781250
-0.63,1712189786796875
-5.59,1712189786812500
-15.65,1712189786828125
-26.66,1712189786843750
-35.14,1712189786859375
-38.94,1712189786875000
-37.42,1712189786890625
-30.94,1712189786906250
-20.37,1712189786921875
-6.7,1712189786937500
8.96,1712189786953125
25.26,1712189786968750
40.64,1712189786984375
53.47,1712189787000000
62.5,1712189787015625
67.08,1712189787031250
67.18,1712189787046875
63.16,1712189787062500
55.48,1712189787078125
44.45,1712189787093750
30.17,1712189787109375
12.6,1712189787125000
-8.3,1712189787140625
-32.42,1712189787156250
-59.05,1712189787171875
-86.3,1712189787187500
-110.74,1712189787203125
-127.63,1712189787218750
-132.2,1712189787234375
-121.46,1712189787250000
-95.82,1712189787265625
-59.55,1712189787281250
-19.59,1712189787296875
16.68,1712189787312500
43.82,1712189787328125
59.48,1712189787343750
64.17,1712189787359375
59.95,1712189787375000
49.05,1712189787390625
33.25,1712189787406250
14.08,1712189787421875
-6.49,1712189787437500
-25.68,1712189787453125
-40.26,1712189787468750
-47.43,1712189787484375
-45.88,1712189787500000
-36.21,1712189787515625
-20.81,1712189787531250
-2.93,1712189787546875
14.29,1712189787562500
28.72,1712189787578125
39.42,1712189787593750
46.47,1712189787609375
50.37,1712189787625000
51.49,1712189787640625
49.78,1712189787656250
44.96,1712189787671875
36.84,1712189787687500
25.69,1712189787703125
12.4,1712189787718750
-2.09,1712189787734375
-17.38,1712189787750000
-34.35,1712189787765625
-54.93,1712189787781250
-81.08,1712189787796875
-113.13,1712189787812500
-148.44,1712189787828125
-181.44,1712189787843750
-205.19,1712189787859375
-213.93,1712189787875000
-205.23,1712189787890625
-180.75,1712189787906250
-145.32,1712189787921875
-104.77,1712189787937500
-64.0,1712189787953125
-26.21,1712189787968750
6.74,1712189787984375
33.33,1712189788000000
51.91,1712189788015625
61.18,1712189788031250
61.31,1712189788046875
54.61,1712189788062500
45.31,1712189788078125
38.16,1712189788093750
36.75,1712189788109375
42.51,1712189788125000
54.97,1712189788140625
72.87,1712189788156250
95.26,1712189788171875
121.62,1712189788187500
150.8,1712189788203125
179.88,1712189788218750
203.7,1712189788234375
216.14,1712189788250000
212.41,1712189788265625
191.24,1712189788281250
155.68,1712189788296875
111.81,1712189788312500
66.33,1712189788328125
24.11,1712189788343750
-13.11,1712189788359375
-46.33,1712189788375000
-77.75,1712189788390625
-108.97,1712189788406250
-139.79,1712189788421875
-168.09,1712189788437500
-190.65,1712189788453125
-204.45,1712189788468750
-207.84,1712189788484375
-200.93,1712189788500000
-185.45,1712189788515625
-163.78,1712189788531250
-137.82,1712189788546875
-108.44,1712189788562500
-75.56,1712189788578125
-38.62,1712189788593750
2.74,1712189788609375
48.22,1712189788625000
96.75,1712189788640625
146.64,1712189788656250
195.78,1712189788671875
241.85,1712189788687500
282.68,1712189788703125
316.49,1712189788718750
342.13,1712189788734375
358.8,1712189788750000
365.64,1712189788765625
361.36,1712189788781250
344.48,1712189788796875
314.25,1712189788812500
271.75,1712189788828125
220.47,1712189788843750
165.73,1712189788859375
113.11,1712189788875000
66.6,1712189788890625
27.52,1712189788906250
-5.41,1712189788921875
-34.75,1712189788937500
-62.73,1712189788953125
-90.16,1712189788968750
-116.34,1712189788984375
-139.93,1712189789000000
-160.3,1712189789015625
-178.32,1712189789031250
-196.13,1712189789046875
-215.75,1712189789062500
-237.28,1712189789078125
-257.78,1712189789093750
-271.67,1712189789109375
-272.73,1712189789125000
-257.08,1712189789140625
-225.3,1712189789156250
-182.81,1712189789171875
-137.86,1712189789187500
-98.19,1712189789203125
-68.12,1712189789218750
-47.37,1712189789234375
-32.13,1712189789250000
-17.48,1712189789265625
0.34,1712189789281250
22.93,1712189789296875
50.08,1712189789312500
80.76,1712189789328125
113.73,1712189789343750
147.42,1712189789359375
179.56,1712189789375000
207.14,1712189789390625
227.32,1712189789406250
238.53,1712189789421875
241.27,1712189789437500
237.89,1712189789453125
231.3,1712189789468750
223.5,1712189789484375
214.84,1712189789500000
204.4,1712189789515625
191.12,1712189789531250
174.88,1712189789546875
156.86,1712189789562500
138.86,1712189789578125
122.24,1712189789593750
106.94,1712189789609375
91.27,1712189789625000
72.52,1712189789640625
47.83,1712189789656250
15.1,1712189789671875
-26.24,1712189789687500
-74.83,1712189789703125
-127.16,1712189789718750
-177.71,1712189789734375
-219.74,1712189789750000
-246.67,1712189789765625
-253.98,1712189789781250
-240.7,1712189789796875
-210.11,1712189789812500
-168.77,1712189789828125
-124.54,1712189789843750
-84.11,1712189789859375
-51.26,1712189789875000
-26.55,1712189789890625
-8.35,1712189789906250
5.48,1712189789921875
16.22,1712189789937500
23.97,1712189789953125
28.33,1712189789968750
29.29,1712189789984375
27.74,1712189790000000
25.26,1712189790015625
23.27,1712189790031250
22.21,1712189790046875
21.38,1712189790062500
19.45,1712189790078125
15.33,1712189790093750
8.96,1712189790109375
1.33,1712189790125000
-5.95,1712189790140625
-11.62,1712189790156250
-15.43,1712189790171875
-18.29,1712189790187500
-21.86,1712189790203125
-27.74,1712189790218750
-36.81,1712189790234375
-48.83,1712189790250000
-62.58,1712189790265625
-76.4,1712189790281250
-88.93,1712189790296875
-99.83,1712189790312500
-110.12,1712189790328125
-121.87,1712189790343750
-137.47,1712189790359375
-158.37,1712189790375000
-183.97,1712189790390625
-211.0,1712189790406250
-233.97,1712189790421875
-246.61,1712189790437500
-243.88,1712189790453125
-223.74,1712189790468750
-187.86,1712189790484375
-141.01,1712189790500000
-89.33,1712189790515625
-38.38,1712189790531250
8.15,1712189790546875
48.65,1712189790562500
82.92,1712189790578125
111.06,1712189790593750
132.95,1712189790609375
148.24,1712189790625000
156.89,1712189790640625
159.66,1712189790656250
158.09,1712189790671875
154.17,1712189790687500
149.77,1712189790703125
146.23,1712189790718750
144.29,1712189790734375
144.24,1712189790750000
146.23,1712189790765625
150.42,1712189790781250
156.95,1712189790796875
165.62,1712189790812500
175.6,1712189790828125
185.22,1712189790843750
192.3,1712189790859375
194.81,1712189790875000
191.65,1712189790890625
183.14,1712189790906250
170.9,1712189790921875
157.14,1712189790937500
143.84,1712189790953125
132.26,1712189790968750
123.04,1712189790984375
116.46,1712189791000000
112.7,1712189791015625
111.6,1712189791031250
112.03,1712189791046875
111.83,1712189791062500
108.19,1712189791078125
99.01,1712189791093750
84.22,1712189791109375
66.46,1712189791125000
50.49,1712189791140625
41.56,1712189791156250
43.41,1712189791171875
56.85,1712189791187500
79.5,1712189791203125
106.56,1712189791218750
132.21,1712189791234375
150.93,1712189791250000
158.35,1712189791265625
151.52,1712189791281250
129.32,1712189791296875
92.65,1712189791312500
44.75,1712189791328125
-8.91,1712189791343750
-61.56,1712189791359375
-106.71,1712189791375000
-139.83,1712189791390625
-159.36,1712189791406250
-166.69,1712189791421875
-165.03,1712189791437500
-157.85,1712189791453125
-147.88,1712189791468750
-136.88,1712189791484375
-125.71,1712189791500000
-114.75,1712189791515625
-104.26,1712189791531250
-94.57,1712189791546875
-85.98,1712189791562500
-78.62,1712189791578125
-72.5,1712189791593750
-67.69,1712189791609375
-64.42,1712189791625000
-62.68,1712189791640625
-61.87,1712189791656250
-60.86,1712189791671875
-58.46,1712189791687500
-53.96,1712189791703125
-47.3,1712189791718750
-39.07,1712189791734375
-30.41,1712189791750000
-23.31,1712189791765625
-19.49,1712189791781250
-19.47,1712189791796875
-22.06,1712189791812500
-24.54,1712189791828125
-23.2,1712189791843750
-14.35,1712189791859375
4.35,1712189791875000
32.85,1712189791890625
67.08,1712189791906250
101.9,1712189791921875
133.71,1712189791937500
161.54,1712189791953125
185.83,1712189791968750
206.99,1712189791984375
224.35,1712189792000000
235.96,1712189792015625
239.13,1712189792031250
228.73,1712189792046875
202.67,1712189792062500
164.3,1712189792078125
121.09,1712189792093750
80.05,1712189792109375
44.82,1712189792125000
15.17,1712189792140625
-11.76,1712189792156250
-39.87,1712189792171875
-77.53,1712189792187500
-129.42,1712189792203125
-192.74,1712189792218750
-258.44,1712189792234375
-316.76,1712189792250000
-360.84,1712189792265625
-387.37,1712189792281250
-396.7,1712189792296875
-392.08,1712189792312500
-385.84,1712189792328125
-389.11,1712189792343750
-405.98,1712189792359375
-433.25,1712189792375000
-465.49,1712189792390625
-498.18,1712189792406250
-527.87,1712189792421875
-552.25,1712189792437500
-527.79,1712189792453125
-433.44,1712189792468750
-286.96,1712189792484375
-131.32,1712189792500000
1.4,1712189792515625
102.23,1712189792531250
175.65,1712189792546875
229.03,1712189792562500
267.48,1712189792578125
294.72,1712189792593750
306.77,1712189792609375
301.72,1712189792625000
283.86,1712189792640625
262.36,1712189792656250
244.69,1712189792671875
233.49,1712189792687500
227.7,1712189792703125
223.49,1712189792718750
218.1,1712189792734375
204.85,1712189792750000
180.05,1712189792765625
145.85,1712189792781250
108.72,1712189792796875
74.33,1712189792812500
44.99,1712189792828125
25.55,1712189792843750
14.19,1712189792859375
8.47,1712189792875000
3.27,1712189792890625
-4.65,1712189792906250
-14.83,1712189792921875
-24.1,1712189792937500
-29.63,1712189792953125
-30.6,1712189792968750
-27.7,1712189792984375
-23.02,1712189793000000
-17.76,1712189793015625
-14.18,1712189793031250
-13.51,1712189793046875
-15.27,1712189793062500
-17.67,1712189793078125
-19.12,1712189793093750
-18.97,1712189793109375
-17.3,1712189793125000
-15.15,1712189793140625
-12.91,1712189793156250
-11.28,1712189793171875
-10.58,1712189793187500
-10.66,1712189793203125
-10.92,1712189793218750
-10.91,1712189793234375
-10.53,1712189793250000
-9.89,1712189793265625
-9.46,1712189793281250
-9.27,1712189793296875
-9.12,1712189793312500
-8.76,1712189793328125
-8.1,1712189793343750
-7.27,1712189793359375
-6.52,1712189793375000
-6.17,1712189793390625
-6.42,1712189793406250
-7.42,1712189793421875
-8.91,1712189793437500
-10.45,1712189793453125
-11.53,1712189793468750
-12.02,1712189793484375
-12.12,1712189793500000
-12.28,1712189793515625
-13.06,1712189793531250
-14.84,1712189793546875
-17.65,1712189793562500
-21.08,1712189793578125
-24.45,1712189793593750
-27.15,1712189793609375
-28.95,1712189793625000
-30.07,1712189793640625
-31.06,1712189793656250
-32.51,1712189793671875
-35.0,1712189793687500
-38.84,1712189793703125
-44.22,1712189793718750
-51.44,1712189793734375
-59.26,1712189793750000
-66.0,1712189793765625
-69.58,1712189793781250
-68.23,1712189793796875
-61.4,1712189793812500
-50.32,1712189793828125
-37.58,1712189793843750
-26.44,1712189793859375
-19.18,1712189793875000
-16.26,1712189793890625
-16.46,1712189793906250
-17.49,1712189793921875
-17.13,1712189793937500
-14.15,1712189793953125
-8.79,1712189793968750
-1.43,1712189793984375
7.18,1712189794000000
16.46,1712189794015625
26.08,1712189794031250
35.61,1712189794046875
44.4,1712189794062500
51.65,1712189794078125
56.62,1712189794093750
58.81,1712189794109375
58.36,1712189794125000
55.95,1712189794140625
52.61,1712189794156250
49.47,1712189794171875
47.26,1712189794187500
46.14,1712189794203125
45.85,1712189794218750
45.73,1712189794234375
45.25,1712189794250000
44.18,1712189794265625
42.58,1712189794281250
40.77,1712189794296875
39.13,1712189794312500
37.81,1712189794328125
36.74,1712189794343750
35.51,1712189794359375
33.65,1712189794375000
30.79,1712189794390625
26.79,1712189794406250
21.75,1712189794421875
15.98,1712189794437500
9.8,1712189794453125
3.36,1712189794468750
-3.5,1712189794484375
-11.18,1712189794500000
-20.21,1712189794515625
-31.05,1712189794531250
-43.71,1712189794546875
-57.7,1712189794562500
-72.06,1712189794578125
-85.64,1712189794593750
-97.49,1712189794609375
-107.2,1712189794625000
-114.96,1712189794640625
-121.44,1712189794656250
-127.26,1712189794671875
-132.65,1712189794687500
-137.0,1712189794703125
-139.18,1712189794718750
-137.96,1712189794734375
-132.63,1712189794750000
-123.43,1712189794765625
-111.52,1712189794781250
-98.54,1712189794796875
-86.44,1712189794812500
-76.86,1712189794828125
-70.72,1712189794843750
-68.39,1712189794859375
-69.61,1712189794875000
-73.87,1712189794890625
-80.65,1712189794906250
-89.49,1712189794921875
-99.85,1712189794937500
-111.47,1712189794953125
-126.09,1712189794968750
-145.34,1712189794984375
-170.54,1712189795000000
-201.19,1712189795015625
-233.84,1712189795031250
-262.04,1712189795046875
-277.94,1712189795062500
-274.46,1712189795078125
-249.07,1712189795093750
-205.35,1712189795109375
-151.71,1712189795125000
-98.38,1712189795140625
-54.07,1712189795156250
-23.96,1712189795171875
-9.74,1712189795187500
-10.84,1712189795203125
-23.9,1712189795218750
-45.61,1712189795234375
-73.04,1712189795250000
-103.0,1712189795265625
-131.48,1712189795281250
-153.68,1712189795296875
-165.2,1712189795312500
-163.18,1712189795328125
-147.05,1712189795343750
-114.75,1712189795359375
-67.03,1712189795375000
-7.86,1712189795390625
56.71,1712189795406250
120.88,1712189795421875
180.78,1712189795437500
234.75,1712189795453125
282.54,1712189795468750
324.53,1712189795484375
367.43,1712189795500000
416.02,1712189795515625
471.09,1712189795531250
529.63,1712189795546875
587.71,1712189795562500
642.84,1712189795578125
694.56,1712189795593750
743.48,1712189795609375
790.15,1712189795625000
842.37,1712189795640625
904.1,1712189795656250
972.75,1712189795671875
1039.71,1712189795687500
1094.71,1712189795703125
1129.55,1712189795718750
1139.74,1712189795734375
1123.9,1712189795750000
1033.32,1712189795765625
848.31,1712189795781250
583.73,1712189795796875
283.63,1712189795812500
-4.15,1712189795828125
-248.91,1712189795843750
-440.66,1712189795859375
-582.42,1712189795875000
-682.46,1712189795890625
-749.49,1712189795906250
-783.33,1712189795921875
-785.26,1712189795937500
-761.12,1712189795953125
-722.6,1712189795968750
-680.08,1712189795984375
-640.75,1712189796000000
-607.9,1712189796015625
-582.16,1712189796031250
-562.42,1712189796046875
-541.29,1712189796062500
-513.79,1712189796078125
-479.71,1712189796093750
-443.29,1712189796109375
-409.7,1712189796125000
-382.4,1712189796140625
-361.82,1712189796156250
-348.53,1712189796171875
-341.31,1712189796187500
-334.83,1712189796203125
-325.47,1712189796218750
-312.85,1712189796234375
-299.74,1712189796250000
-289.67,1712189796265625
-285.28,1712189796281250
-287.3,1712189796296875
-294.84,1712189796312500
-305.64,1712189796328125
-315.19,1712189796343750
-319.69,1712189796359375
-316.98,1712189796375000
-306.8,1712189796390625
-289.81,1712189796406250
-266.94,1712189796421875
-238.89,1712189796437500
-206.34,1712189796453125
-169.71,1712189796468750
-129.14,1712189796484375
-85.5,1712189796500000
-40.78,1712189796515625
2.11,1712189796531250
39.96,1712189796546875
69.9,1712189796562500
89.99,1712189796578125
99.53,1712189796593750
99.24,1712189796609375
90.67,1712189796625000
75.83,1712189796640625
56.58,1712189796656250
34.37,1712189796671875
10.42,1712189796687500
-14.28,1712189796703125
-38.46,1712189796718750
-60.33,1712189796734375
-77.38,1712189796750000
-86.82,1712189796765625
-86.39,1712189796781250
-75.08,1712189796796875
-53.45,1712189796812500
-22.83,1712189796828125
14.89,1712189796843750
58.15,1712189796859375
106.19,1712189796875000
159.11,1712189796890625
217.54,1712189796906250
282.42,1712189796921875
354.73,1712189796937500
434.83,1712189796953125
522.11,1712189796968750
613.22,1712189796984375
701.39,1712189797000000
777.11,1712189797015625
830.78,1712189797031250
855.81,1712189797046875
851.01,1712189797062500
820.76,1712189797078125
772.92,1712189797093750
717.19,1712189797109375
660.7,1712189797125000
606.61,1712189797140625
554.96,1712189797156250
505.13,1712189797171875
457.38,1712189797187500
413.01,1712189797203125
372.9,1712189797218750
335.85,1712189797234375
301.86,1712189797250000
269.47,1712189797265625
236.44,1712189797281250
200.71,1712189797296875
161.99,1712189797312500
122.29,1712189797328125
84.83,1712189797343750
52.0,1712189797359375
23.22,1712189797375000
0.32,1712189797390625
-18.15,1712189797406250
-36.77,1712189797421875
-60.95,1712189797437500
-92.65,1712189797453125
-127.52,1712189797468750
-155.07,1712189797484375
-163.29,1712189797500000
-144.44,1712189797515625
-90.64,1712189797531250
-3.09,1712189797546875
107.59,1712189797562500
224.5,1712189797578125
330.46,1712189797593750
413.4,1712189797609375
468.96,1712189797625000
498.91,1712189797640625
471.76,1712189797656250
375.79,1712189797671875
222.33,1712189797687500
43.67,1712189797703125
-125.05,1712189797718750
-263.23,1712189797734375
-367.29,1712189797750000
-441.46,1712189797765625
-485.13,1712189797781250
-505.87,1712189797796875
-501.75,1712189797812500
-471.58,1712189797828125
-419.42,1712189797843750
-355.07,1712189797859375
-290.5,1712189797875000
-241.78,1712189797890625
-217.88,1712189797906250
-219.84,1712189797921875
-242.57,1712189797937500
-271.97,1712189797953125
-296.88,1712189797968750
-312.95,1712189797984375
-322.04,1712189798000000
-328.13,1712189798015625
-333.61,1712189798031250
-336.68,1712189798046875
-334.57,1712189798062500
-326.92,1712189798078125
-312.34,1712189798093750
-292.78,1712189798109375
-272.69,1712189798125000
-256.69,1712189798140625
-247.3,1712189798156250
-244.14,1712189798171875
-242.8,1712189798187500
-238.19,1712189798203125
-228.36,1712189798218750
-210.83,1712189798234375
-186.11,1712189798250000
-156.91,1712189798265625
-126.25,1712189798281250
-96.0,1712189798296875
-66.66,1712189798312500
-36.15,1712189798328125
-2.3,1712189798343750
35.88,1712189798359375
78.45,1712189798375000
122.19,1712189798390625
160.52,1712189798406250
184.71,1712189798421875
189.92,1712189798437500
170.11,1712189798453125
124.44,1712189798468750
59.21,1712189798484375
-14.87,1712189798500000
-85.3,1712189798515625
-141.55,1712189798531250
-177.15,1712189798546875
-190.63,1712189798562500
-185.11,1712189798578125
-167.38,1712189798593750
-144.73,1712189798609375
-121.38,1712189798625000
-99.51,1712189798640625
-79.19,1712189798656250
-59.26,1712189798671875
-37.99,1712189798687500
-13.5,1712189798703125
15.99,1712189798718750
51.84,1712189798734375
92.84,1712189798750000
140.02,1712189798765625
193.29,1712189798781250
250.97,1712189798796875
309.3,1712189798812500
363.7,1712189798828125
410.06,1712189798843750
445.52,1712189798859375
468.35,1712189798875000
465.53,1712189798890625
431.08,1712189798906250
366.43,1712189798921875
280.8,1712189798937500
186.85,1712189798953125
96.29,1712189798968750
17.03,1712189798984375
-46.9,1712189799000000
-94.69,1712189799015625
-127.74,1712189799031250
-146.56,1712189799046875
-153.76,1712189799062500
-151.76,1712189799078125
-143.06,1712189799093750
-129.13,1712189799109375
-110.04,1712189799125000
-84.75,1712189799140625
-52.24,1712189799156250
-13.75,1712189799171875
28.04,1712189799187500
65.53,1712189799203125
88.46,1712189799218750
83.7,1712189799234375
43.06,1712189799250000
-32.62,1712189799265625
-132.61,1712189799281250
-239.31,1712189799296875
-335.5,1712189799312500
-407.49,1712189799328125
-447.9,1712189799343750
-455.31,1712189799359375
-433.43,1712189799375000
-389.05,1712189799390625
-330.98,1712189799406250
-271.93,1712189799421875
-217.56,1712189799437500
-171.4,1712189799453125
-134.04,1712189799468750
-103.67,1712189799484375
-76.68,1712189799500000
-49.02,1712189799515625
-16.27,1712189799531250
25.15,1712189799546875
74.95,1712189799562500
130.51,1712189799578125
186.9,1712189799593750
239.05,1712189799609375
282.43,1712189799625000
312.76,1712189799640625
324.93,1712189799656250
314.11,1712189799671875
277.92,1712189799687500
219.45,1712189799703125
149.1,1712189799718750
81.41,1712189799734375
30.42,1712189799750000
4.32,1712189799765625
2.95,1712189799781250
19.51,1712189799796875
45.23,1712189799812500
73.35,1712189799828125
100.48,1712189799843750
125.12,1712189799859375
144.09,1712189799875000
151.9,1712189799890625
142.93,1712189799906250
115.04,1712189799921875
72.05,1712189799937500
22.93,1712189799953125
-21.85,1712189799968750
-54.68,1712189799984375
-73.24,1712189800000000
-80.46,1712189800015625
-81.66,1712189800031250
-81.67,1712189800046875
-83.21,1712189800062500
-86.17,1712189800078125
-88.02,1712189800093750
-85.25,1712189800109375
-75.1,1712189800125000
-57.19,1712189800140625
-34.79,1712189800156250
-14.15,1712189800171875
-2.05,1712189800187500
-2.52,1712189800203125
-14.68,1712189800218750
-32.98,1712189800234375
-49.83,1712189800250000
-59.48,1712189800265625
-60.58,1712189800281250
-56.23,1712189800296875
-51.63,1712189800312500
-51.0,1712189800328125
-55.56,1712189800343750
-63.13,1712189800359375
-69.27,1712189800375000
-69.19,1712189800390625
-59.32,1712189800406250
-38.44,1712189800421875
-8.34,1712189800437500
26.23,1712189800453125
59.27,1712189800468750
85.33,1712189800484375
101.7,1712189800500000
109.41,1712189800515625
111.47,1712189800531250
111.66,1712189800546875
112.79,1712189800562500
115.74,1712189800578125
119.45,1712189800593750
121.79,1712189800609375
120.26,1712189800625000
112.79,1712189800640625
98.48,1712189800656250
78.06,1712189800671875
54.02,1712189800687500
30.15,1712189800703125
10.17,1712189800718750
-3.92,1712189800734375
-11.98,1712189800750000
-15.66,1712189800765625
-16.84,1712189800781250
-16.66,1712189800796875
-15.36,1712189800812500
-13.17,1712189800828125
-10.89,1712189800843750
-10.33,1712189800859375
-13.6,1712189800875000
-21.76,1712189800890625
-34.15,1712189800906250
-48.48,1712189800921875
-61.86,1712189800937500
-71.59,1712189800953125
-77.38,1712189800968750
-80.38,1712189800984375
-82.65,1712189801000000
-86.21,1712189801015625
-92.0,1712189801031250
-99.72,1712189801046875
-108.03,1712189801062500
-115.77,1712189801078125
-120.42,1712189801093750
-120.25,1712189801109375
-114.06,1712189801125000
-101.57,1712189801140625
-83.67,1712189801156250
-62.35,1712189801171875
-40.2,1712189801187500
-19.73,1712189801203125
-2.46,1712189801218750
11.31,1712189801234375
21.94,1712189801250000
30.1,1712189801265625
36.04,1712189801281250
39.49,1712189801296875
40.31,1712189801312500
38.89,1712189801328125
36.49,1712189801343750
35.03,1712189801359375
36.41,1712189801375000
41.21,1712189801390625
48.74,1712189801406250
57.24,1712189801421875
64.59,1712189801437500
69.14,1712189801453125
70.26,1712189801468750
68.48,1712189801484375
65.28,1712189801500000
62.25,1712189801515625
59.84,1712189801531250
57.27,1712189801546875
52.92,1712189801562500
45.16,1712189801578125
33.53,1712189801593750
19.21,1712189801609375
4.79,1712189801625000
-6.58,1712189801640625
-12.58,1712189801656250
-13.25,1712189801671875
-10.69,1712189801687500
-8.03,1712189801703125
-8.14,1712189801718750
-12.42,1712189801734375
-20.65,1712189801750000
-30.97,1712189801765625
-40.19,1712189801781250
-44.44,1712189801796875
-40.4,1712189801812500
-25.39,1712189801828125
1.63,1712189801843750
38.79,1712189801859375
80.55,1712189801875000
118.2,1712189801890625
143.06,1712189801906250
150.03,1712189801921875
140.04,1712189801937500
118.49,1712189801953125
94.17,1712189801968750
75.5,1712189801984375
66.79,1712189802000000
68.81,1712189802015625
76.48,1712189802031250
81.97,1712189802046875
79.06,1712189802062500
65.94,1712189802078125
42.88,1712189802093750
13.23,1712189802109375
-18.59,1712189802125000
-49.35,1712189802140625
-78.44,1712189802156250
-107.61,1712189802171875
-138.45,1712189802187500
-170.6,1712189802203125
-201.95,1712189802218750
-233.6,1712189802234375
-266.71,1712189802250000
-301.44,1712189802265625
-336.39,1712189802281250
-369.4,1712189802296875
-398.57,1712189802312500
-421.86,1712189802328125
-437.32,1712189802343750
-422.81,1712189802359375
-368.77,1712189802375000
-282.57,1712189802390625
-184.3,1712189802406250
-93.12,1712189802421875
-18.54,1712189802437500
38.57,1712189802453125
81.67,1712189802468750
114.97,1712189802484375
141.56,1712189802500000
159.24,1712189802515625
165.21,1712189802531250
158.94,1712189802546875
143.76,1712189802562500
126.2,1712189802578125
114.2,1712189802593750
114.95,1712189802609375
132.71,1712189802625000
166.29,1712189802640625
206.45,1712189802656250
241.12,1712189802671875
260.1,1712189802687500
258.49,1712189802703125
237.41,1712189802718750
202.4,1712189802734375
161.14,1712189802750000
120.93,1712189802765625
87.47,1712189802781250
61.79,1712189802796875
43.22,1712189802812500
30.99,1712189802828125
24.97,1712189802843750
25.06,1712189802859375
30.45,1712189802875000
39.85,1712189802890625
51.17,1712189802906250
63.5,1712189802921875
75.63,1712189802937500
87.47,1712189802953125
98.22,1712189802968750
105.62,1712189802984375
105.72,1712189803000000
94.57,1712189803015625
69.93,1712189803031250
31.99,1712189803046875
-15.62,1712189803062500
-68.62,1712189803078125
-121.57,1712189803093750
-168.71,1712189803109375
-204.6,1712189803125000
-224.9,1712189803140625
-227.08,1712189803156250
-211.16,1712189803171875
-184.99,1712189803187500
-150.62,1712189803203125
-112.44,1712189803218750
-75.53,1712189803234375
-43.99,1712189803250000
-19.66,1712189803265625
-2.07,1712189803281250
10.72,1712189803296875
20.94,1712189803312500
29.75,1712189803328125
37.94,1712189803343750
44.4,1712189803359375
47.87,1712189803375000
47.64,1712189803390625
44.16,1712189803406250
38.16,1712189803421875
30.64,1712189803437500
22.7,1712189803453125
15.17,1712189803468750
9.2,1712189803484375
4.71,1712189803500000
1.16,1712189803515625
-2.3,1712189803531250
-6.6,1712189803546875
-12.73,1712189803562500
-21.44,1712189803578125
-33.4,1712189803593750
-49.28,1712189803609375
-69.37,1712189803625000
-94.22,1712189803640625
-123.62,1712189803656250
-155.96,1712189803671875
-188.13,1712189803687500
-216.17,1712189803703125
-236.54,1712189803718750
-247.57,1712189803734375
-250.21,1712189803750000
-247.34,1712189803765625
-242.66,1712189803781250
-238.54,1712189803796875
-234.55,1712189803812500
-227.65,1712189803828125
-213.49,1712189803843750
-188.24,1712189803859375
-150.17,1712189803875000
-100.14,1712189803890625
-41.29,1712189803906250
21.93,1712189803921875
84.89,1712189803937500
143.71,1712189803953125
195.79,1712189803968750
239.8,1712189803984375
275.57,1712189804000000
303.68,1712189804015625
324.98,1712189804031250
340.26,1712189804046875
350.13,1712189804062500
355.29,1712189804078125
356.86,1712189804093750
356.36,1712189804109375
355.04,1712189804125000
353.34,1712189804140625
350.44,1712189804156250
344.74,1712189804171875
334.6,1712189804187500
319.47,1712189804203125
300.69,1712189804218750
281.21,1712189804234375
264.01,1712189804250000
250.07,1712189804265625
237.43,1712189804281250
221.75,1712189804296875
198.63,1712189804312500
165.68,1712189804328125
123.18,1712189804343750
74.17,1712189804359375
23.03,1712189804375000
-26.76,1712189804390625
-73.95,1712189804406250
-119.12,1712189804421875
-163.41,1712189804437500
-206.29,1712189804453125
-246.41,1712189804468750
-283.09,1712189804484375
-316.64,1712189804500000
-347.04,1712189804515625
-373.49,1712189804531250
-393.88,1712189804546875
-404.62,1712189804562500
-402.74,1712189804578125
-385.69,1712189804593750
-354.15,1712189804609375
-312.69,1712189804625000
-267.29,1712189804640625
-221.46,1712189804656250
-175.59,1712189804671875
-128.01,1712189804687500
-76.52,1712189804703125
-21.26,1712189804718750
37.76,1712189804734375
99.25,1712189804750000
157.63,1712189804765625
200.77,1712189804781250
219.72,1712189804796875
215.9,1712189804812500
199.13,1712189804828125
186.14,1712189804843750
177.07,1712189804859375
169.37,1712189804875000
161.52,1712189804890625
153.96,1712189804906250
145.19,1712189804921875
136.86,1712189804937500
130.15,1712189804953125
123.93,1712189804968750
115.56,1712189804984375
99.11,1712189805000000
72.29,1712189805015625
36.13,1712189805031250
-6.96,1712189805046875
-55.1,1712189805062500
-105.56,1712189805078125
-155.91,1712189805093750
-204.45,1712189805109375
-249.19,1712189805125000
-292.29,1712189805140625
-334.26,1712189805156250
-373.81,1712189805171875
-408.36,1712189805187500
-434.82,1712189805203125
-447.43,1712189805218750
-440.11,1712189805234375
-409.22,1712189805250000
-337.48,1712189805265625
-228.25,1712189805281250
-105.03,1712189805296875
2.51,1712189805312500
77.65,1712189805328125
120.88,1712189805343750
143.48,1712189805359375
162.22,1712189805375000
181.72,1712189805390625
200.4,1712189805406250
211.83,1712189805421875
213.31,1712189805437500
208.7,1712189805453125
207.08,1712189805468750
209.54,1712189805484375
218.76,1712189805500000
234.27,1712189805515625
251.79,1712189805531250
266.45,1712189805546875
271.86,1712189805562500
265.01,1712189805578125
247.41,1712189805593750
223.38,1712189805609375
196.8,1712189805625000
171.0,1712189805640625
147.14,1712189805656250
124.78,1712189805671875
104.22,1712189805687500
85.0,1712189805703125
67.57,1712189805718750
53.35,1712189805734375
43.49,1712189805750000
37.57,1712189805765625
34.55,1712189805781250
32.37,1712189805796875
28.63,1712189805812500
21.8,1712189805828125
10.28,1712189805843750
-6.41,1712189805859375
-27.12,1712189805875000
-48.94,1712189805890625
-67.9,1712189805906250
-79.23,1712189805921875
-79.24,1712189805937500
-66.45,1712189805953125
-41.83,1712189805968750
-8.93,1712189805984375
27.49,1712189806000000
62.99,1712189806015625
94.65,1712189806031250
121.38,1712189806046875
143.75,1712189806062500
162.65,1712189806078125
178.21,1712189806093750
189.73,1712189806109375
195.82,1712189806125000
195.52,1712189806140625
189.19,1712189806156250
178.47,1712189806171875
165.41,1712189806187500
151.07,1712189806203125
134.64,1712189806218750
113.78,1712189806234375
85.98,1712189806250000
50.17,1712189806265625
7.57,1712189806281250
-38.88,1712189806296875
-86.05,1712189806312500
-131.73,1712189806328125
-175.09,1712189806343750
-215.97,1712189806359375
-254.0,1712189806375000
-288.26,1712189806390625
-317.76,1712189806406250
-342.01,1712189806421875
-361.22,1712189806437500
-375.67,1712189806453125
-385.02,1712189806468750
-388.67,1712189806484375
-386.89,1712189806500000
-382.04,1712189806515625
-378.33,1712189806531250
-380.15,1712189806546875
-389.25,1712189806562500
-402.93,1712189806578125
-414.57,1712189806593750
-416.07,1712189806609375
-401.55,1712189806625000
-369.62,1712189806640625
-323.13,1712189806656250
-266.99,1712189806671875
-205.63,1712189806687500
-141.47,1712189806703125
-75.13,1712189806718750
-6.93,1712189806734375
62.15,1712189806750000
130.32,1712189806765625
195.44,1712189806781250
256.3,1712189806796875
312.78,1712189806812500
365.65,1712189806828125
416.05,1712189806843750
464.87,1712189806859375
512.42,1712189806875000
558.19,1712189806890625
600.49,1712189806906250
636.25,1712189806921875
661.45,1712189806937500
671.94,1712189806953125
664.78,1712189806968750
639.69,1712189806984375
599.51,1712189807000000
549.38,1712189807015625
495.1,1712189807031250
441.28,1712189807046875
390.38,1712189807062500
342.92,1712189807078125
298.27,1712189807093750
255.72,1712189807109375
214.95,1712189807125000
175.78,1712189807140625
137.65,1712189807156250
99.21,1712189807171875
58.38,1712189807187500
12.56,1712189807203125
-39.84,1712189807218750
-98.37,1712189807234375
-160.24,1712189807250000
-221.01,1712189807265625
-275.88,1712189807281250
-321.06,1712189807296875
-354.51,1712189807312500
-376.1,1712189807328125
-387.36,1712189807343750
-390.41,1712189807359375
-387.17,1712189807375000
-379.3,1712189807390625
-368.44,1712189807406250
-356.67,1712189807421875
-346.45,1712189807437500
-340.31,1712189807453125
-340.31,1712189807468750
-348.49,1712189807484375
-365.58,1712189807500000
-390.49,1712189807515625
-420.32,1712189807531250
-451.36,1712189807546875
-479.92,1712189807562500
-502.86,1712189807578125
-517.79,1712189807593750
-522.71,1712189807609375
-517.77,1712189807625000
-502.55,1712189807640625
-475.17,1712189807656250
-433.11,1712189807671875
-375.41,1712189807687500
-303.71,1712189807703125
-221.62,1712189807718750
-133.28,1712189807734375
-41.61,1712189807750000
48.28,1712189807765625
134.1,1712189807781250
217.32,1712189807796875
300.79,1712189807812500
383.99,1712189807828125
460.86,1712189807843750
521.98,1712189807859375
558.69,1712189807875000
566.81,1712189807890625
541.61,1712189807906250
485.19,1712189807921875
407.5,1712189807937500
322.51,1712189807953125
241.3,1712189807968750
168.35,1712189807984375
103.24,1712189808000000
43.7,1712189808015625
-12.24,1712189808031250
-74.36,1712189808046875
-149.98,1712189808062500
-239.17,1712189808078125
-335.46,1712189808093750
-432.09,1712189808109375
-525.75,1712189808125000
-616.28,1712189808140625
-704.79,1712189808156250
-737.54,1712189808171875
-683.76,1712189808187500
-556.9,1712189808203125
-405.43,1712189808218750
-272.57,1712189808234375
-175.36,1712189808250000
-110.13,1712189808265625
-63.56,1712189808281250
-21.05,1712189808296875
28.0,1712189808312500
78.91,1712189808328125
121.73,1712189808343750
149.3,1712189808359375
161.07,1712189808375000
160.68,1712189808390625
153.11,1712189808406250
143.77,1712189808421875
137.22,1712189808437500
135.02,1712189808453125
131.23,1712189808468750
119.95,1712189808484375
100.94,1712189808500000
80.16,1712189808515625
64.47,1712189808531250
57.51,1712189808546875
58.96,1712189808562500
65.92,1712189808578125
74.61,1712189808593750
78.25,1712189808609375
72.43,1712189808625000
58.09,1712189808640625
40.7,1712189808656250
26.58,1712189808671875
19.86,1712189808687500
22.12,1712189808703125
33.33,1712189808718750
47.94,1712189808734375
60.1,1712189808750000
65.4,1712189808765625
62.85,1712189808781250
54.97,1712189808796875
45.95,1712189808812500
39.58,1712189808828125
38.25,1712189808843750
42.49,1712189808859375
50.99,1712189808875000
61.43,1712189808890625
71.37,1712189808906250
79.63,1712189808921875
86.69,1712189808937500
93.85,1712189808953125
102.34,1712189808968750
112.85,1712189808984375
125.4,1712189809000000
139.44,1712189809015625
154.5,1712189809031250
169.48,1712189809046875
182.76,1712189809062500
192.43,1712189809078125
196.79,1712189809093750
194.88,1712189809109375
186.88,1712189809125000
174.11,1712189809140625
158.22,1712189809156250
140.77,1712189809171875
122.09,1712189809187500
101.45,1712189809203125
77.6,1712189809218750
49.63,1712189809234375
17.62,1712189809250000
-17.14,1712189809265625
-52.45,1712189809281250
-85.63,1712189809296875
-113.88,1712189809312500
-135.02,1712189809328125
-147.97,1712189809343750
-153.26,1712189809359375
-153.18,1712189809375000
-151.12,1712189809390625
-150.16,1712189809406250
-151.6,1712189809421875
-154.18,1712189809437500
-154.38,1712189809453125
-147.93,1712189809468750
-131.62,1712189809484375
-104.37,1712189809500000
-66.73,1712189809515625
-19.67,1712189809531250
36.32,1712189809546875
100.71,1712189809562500
171.1,1712189809578125
241.79,1712189809593750
304.12,1712189809609375
349.2,1712189809625000
371.68,1712189809640625
372.26,1712189809656250
357.44,1712189809671875
336.41,1712189809687500
317.02,1712189809703125
303.15,1712189809718750
294.8,1712189809734375
290.09,1712189809750000
287.56,1712189809765625
286.88,1712189809781250
287.96,1712189809796875
289.39,1712189809812500
287.84,1712189809828125
279.25,1712189809843750
260.78,1712189809859375
232.39,1712189809875000
196.71,1712189809890625
157.32,1712189809906250
116.58,1712189809921875
74.22,1712189809937500
27.85,1712189809953125
-24.76,1712189809968750
-83.14,1712189809984375
-142.73,1712189810000000
-195.76,1712189810015625
-234.16,1712189810031250
-252.81,1712189810046875
-251.46,1712189810062500
-234.29,1712189810078125
-207.55,1712189810093750
-176.83,1712189810109375
-145.57,1712189810125000
-115.38,1712189810140625
-87.55,1712189810156250
-64.24,1712189810171875
-48.38,1712189810187500
-42.3,1712189810203125
-46.12,1712189810218750
-57.06,1712189810234375
-70.4,1712189810250000
-81.29,1712189810265625
-86.56,1712189810281250
-85.46,1712189810296875
-79.36,1712189810312500
-70.71,1712189810328125
-61.81,1712189810343750
-54.09,1712189810359375
-48.03,1712189810375000
-43.48,1712189810390625
-40.06,1712189810406250
-37.63,1712189810421875
-36.47,1712189810437500
-37.14,1712189810453125
-40.06,1712189810468750
-45.23,1712189810484375
-51.93,1712189810500000
-58.93,1712189810515625
-64.94,1712189810531250
-69.11,1712189810546875
-71.44,1712189810562500
-72.88,1712189810578125
-74.95,1712189810593750
-79.17,1712189810609375
-86.4,1712189810625000
-96.37,1712189810640625
-107.45,1712189810656250
-116.89,1712189810671875
-121.56,1712189810687500
-118.81,1712189810703125
-107.4,1712189810718750
-87.94,1712189810734375
-62.74,1712189810750000
-35.05,1712189810765625
-8.01,1712189810781250
16.13,1712189810796875
36.38,1712189810812500
52.62,1712189810828125
65.08,1712189810843750
73.77,1712189810859375
78.36,1712189810875000
78.37,1712189810890625
73.57,1712189810906250
64.31,1712189810921875
51.48,1712189810937500
36.38,1712189810953125
20.53,1712189810968750
5.66,1712189810984375
-6.26,1712189811000000
-13.09,1712189811015625
-12.98,1712189811031250
-5.03,1712189811046875
10.11,1712189811062500
30.1,1712189811078125
51.55,1712189811093750
71.15,1712189811109375
86.69,1712189811125000
97.72,1712189811140625
105.28,1712189811156250
111.03,1712189811171875
116.3,1712189811187500
121.36,1712189811203125
125.42,1712189811218750
126.96,1712189811234375
124.26,1712189811250000
115.85,1712189811265625
100.77,1712189811281250
78.88,1712189811296875
51.13,1712189811312500
19.75,1712189811328125
-11.84,1712189811343750
-39.61,1712189811359375
-59.78,1712189811375000
-69.89,1712189811390625
-69.42,1712189811406250
-60.0,1712189811421875
-44.76,1712189811437500
-27.44,1712189811453125
-11.35,1712189811468750
1.39,1712189811484375
9.97,1712189811500000
14.67,1712189811515625
16.33,1712189811531250
15.72,1712189811546875
13.31,1712189811562500
9.18,1712189811578125
3.29,1712189811593750
-4.33,1712189811609375
-13.19,1712189811625000
-22.43,1712189811640625
-30.91,1712189811656250
-37.49,1712189811671875
-41.4,1712189811687500
-42.53,1712189811703125
-41.36,1712189811718750
-38.91,1712189811734375
-36.43,1712189811750000
-35.17,1712189811765625
-36.19,1712189811781250
-40.3,1712189811796875
-47.87,1712189811812500
-58.63,1712189811828125
-71.55,1712189811843750
-84.97,1712189811859375
-96.92,1712189811875000
-105.93,1712189811890625
-111.68,1712189811906250
-115.34,1712189811921875
-119.15,1712189811937500
-125.42,1712189811953125
-135.28,1712189811968750
-147.82,1712189811984375
-160.06,1712189812000000
-167.89,1712189812015625
-167.46,1712189812031250
-156.59,1712189812046875
-135.49,1712189812062500
-106.51,1712189812078125
-73.16,1712189812093750
-38.92,1712189812109375
-6.27,1712189812125000
23.58,1712189812140625
50.48,1712189812156250
74.73,1712189812171875
96.55,1712189812187500
115.84,1712189812203125
132.26,1712189812218750
145.53,1712189812234375
155.72,1712189812250000
163.33,1712189812265625
169.26,1712189812281250
174.5,1712189812296875
179.81,1712189812312500
185.4,1712189812328125
190.93,1712189812343750
195.7,1712189812359375
198.98,1712189812375000
200.22,1712189812390625
199.1,1712189812406250
195.12,1712189812421875
187.26,1712189812437500
173.78,1712189812453125
152.61,1712189812468750
122.32,1712189812484375
83.18,1712189812500000
37.76,1712189812515625
-9.39,1712189812531250
-53.11,1712189812546875
-89.44,1712189812562500
-116.98,1712189812578125
-137.25,1712189812593750
-153.77,1712189812609375
-170.4,1712189812625000
-189.73,1712189812640625
-212.12,1712189812656250
-235.58,1712189812671875
-256.49,1712189812687500
-270.59,1712189812703125
-273.84,1712189812718750
-263.39,1712189812734375
-238.25,1712189812750000
-199.77,1712189812765625
-151.72,1712189812781250
-99.6,1712189812796875
-49.44,1712189812812500
-6.33,1712189812828125
26.61,1712189812843750
48.48,1712189812859375
60.11,1712189812875000
63.17,1712189812890625
59.51,1712189812906250
50.85,1712189812921875
39.01,1712189812937500
26.03,1712189812953125
14.09,1712189812968750
5.0,1712189812984375
-0.39,1712189813000000
-2.6,1712189813015625
-3.23,1712189813031250
-4.21,1712189813046875
-7.04,1712189813062500
-12.12,1712189813078125
-18.58,1712189813093750
-24.61,1712189813109375
-28.02,1712189813125000
-26.94,1712189813140625
-20.51,1712189813156250
-9.27,1712189813171875
4.77,1712189813187500
18.51,1712189813203125
28.66,1712189813218750
32.7,1712189813234375
29.88,1712189813250000
21.56,1712189813265625
10.94,1712189813281250
2.03,1712189813296875
-1.67,1712189813312500
1.8,1712189813328125
12.34,1712189813343750
28.16,1712189813359375
46.69,1712189813375000
65.61,1712189813390625
83.49,1712189813406250
99.92,1712189813421875
115.02,1712189813437500
128.92,1712189813453125
141.39,1712189813468750
151.83,1712189813484375
159.75,1712189813500000
165.16,1712189813515625
168.63,1712189813531250
171.05,1712189813546875
173.1,1712189813562500
174.86,1712189813578125
175.67,1712189813593750
174.39,1712189813609375
169.61,1712189813625000
159.91,1712189813640625
143.8,1712189813656250
119.7,1712189813671875
86.23,1712189813687500
42.93,1712189813703125
-8.86,1712189813718750
-65.55,1712189813734375
-121.8,1712189813750000
-172.1,1712189813765625
-212.59,1712189813781250
-242.35,1712189813796875
-263.42,1712189813812500
-279.54,1712189813828125
-294.29,1712189813843750
-309.61,1712189813859375
-325.2,1712189813875000
-339.05,1712189813890625
-348.47,1712189813906250
-350.99,1712189813921875
-345.12,1712189813937500
-330.56,1712189813953125
-308.29,1712189813968750
-280.41,1712189813984375
-250.01,1712189814000000
-220.54,1712189814015625
-195.17,1712189814031250
-175.94,1712189814046875
-163.29,1712189814062500
-155.9,1712189814078125
-151.11,1712189814093750
-145.56,1712189814109375
-136.14,1712189814125000
-120.69,1712189814140625
-98.23,1712189814156250
-68.97,1712189814171875
-33.99,1712189814187500
4.98,1712189814203125
45.7,1712189814218750
85.39,1712189814234375
121.02,1712189814250000
149.75,1712189814265625
169.6,1712189814281250
180.04,1712189814296875
182.09,1712189814312500
177.92,1712189814328125
170.26,1712189814343750
161.53,1712189814359375
153.58,1712189814375000
147.58,1712189814390625
144.09,1712189814406250
143.28,1712189814421875
144.89,1712189814437500
148.24,1712189814453125
152.31,1712189814468750
155.96,1712189814484375
158.08,1712189814500000
157.75,1712189814515625
154.23,1712189814531250
147.1,1712189814546875
136.22,1712189814562500
122.09,1712189814578125
106.04,1712189814593750
90.01,1712189814609375
76.02,1712189814625000
65.18,1712189814640625
56.99,1712189814656250
49.45,1712189814671875
39.94,1712189814687500
26.56,1712189814703125
9.13,1712189814718750
-10.75,1712189814734375
-30.52,1712189814750000
-47.94,1712189814765625
-61.85,1712189814781250
-72.22,1712189814796875
-79.48,1712189814812500
-83.76,1712189814828125
-84.59,1712189814843750
-81.2,1712189814859375
-73.1,1712189814875000
-60.56,1712189814890625
-44.7,1712189814906250
-27.19,1712189814921875
-9.81,1712189814937500
5.87,1712189814953125
18.56,1712189814968750
27.48,1712189814984375
32.33,1712189815000000
33.4,1712189815015625
31.5,1712189815031250
27.8,1712189815046875
23.47,1712189815062500
19.51,1712189815078125
16.53,1712189815093750
14.84,1712189815109375
14.47,1712189815125000
15.25,1712189815140625
16.91,1712189815156250
19.03,1712189815171875
21.0,1712189815187500
22.12,1712189815203125
21.69,1712189815218750
19.12,1712189815234375
14.26,1712189815250000
7.41,1712189815265625
-0.69,1712189815281250
-9.13,1712189815296875
-17.0,1712189815312500
-23.82,1712189815328125
-29.58,1712189815343750
-34.77,1712189815359375
-40.26,1712189815375000
-47.06,1712189815390625
-55.96,1712189815406250
-67.16,1712189815421875
-79.88,1712189815437500
-92.16,1712189815453125
-101.15,1712189815468750
-103.8,1712189815484375
-97.85,1712189815500000
-82.76,1712189815515625
-59.99,1712189815531250
-32.63,1712189815546875
-4.42,1712189815562500
21.4,1712189815578125
42.79,1712189815593750
59.04,1712189815609375
70.35,1712189815625000
77.23,1712189815640625
80.18,1712189815656250
79.64,1712189815671875
76.22,1712189815687500
70.87,1712189815703125
64.82,1712189815718750
59.27,1712189815734375
55.09,1712189815750000
52.55,1712189815765625
51.44,1712189815781250
51.21,1712189815796875
51.25,1712189815812500
51.1,1712189815828125
50.35,1712189815843750
48.68,1712189815859375
45.72,1712189815875000
41.16,1712189815890625
34.8,1712189815906250
26.77,1712189815921875
17.51,1712189815937500
7.69,1712189815953125
-1.96,1712189815968750
-10.95,1712189815984375
-19.14,1712189816000000
-26.81,1712189816015625
-34.65,1712189816031250
-43.48,1712189816046875
-54.14,1712189816062500
-66.94,1712189816078125
-81.25,1712189816093750
-95.26,1712189816109375
-106.09,1712189816125000
-110.52,1712189816140625
-106.03,1712189816156250
-91.88,1712189816171875
-69.49,1712189816187500
-42.15,1712189816203125
-13.9,1712189816218750
11.69,1712189816234375
32.42,1712189816250000
47.67,1712189816265625
57.97,1712189816281250
64.24,1712189816296875
67.25,1712189816312500
67.46,1712189816328125
65.19,1712189816343750
60.92,1712189816359375
55.39,1712189816375000
49.55,1712189816390625
44.23,1712189816406250
39.94,1712189816421875
36.75,1712189816437500
34.42,1712189816453125
32.64,1712189816468750
31.12,1712189816484375
29.7,1712189816500000
28.11,1712189816515625
25.91,1712189816531250
22.44,1712189816546875
17.12,1712189816562500
9.74,1712189816578125
0.68,1712189816593750
-9.08,1712189816609375
-18.33,1712189816625000
-26.09,1712189816640625
-31.99,1712189816656250
-36.48,1712189816671875
-40.71,1712189816687500
-46.19,1712189816703125
-54.32,1712189816718750
-65.86,1712189816734375
-80.34,1712189816750000
-95.95,1712189816765625
-109.69,1712189816781250
-118.08,1712189816796875
-118.14,1712189816812500
-108.44,1712189816828125
-89.62,1712189816843750
-64.16,1712189816859375
-35.75,1712189816875000
-8.07,1712189816890625
16.1,1712189816906250
35.44,1712189816921875
50.07,1712189816937500
61.09,1712189816953125
69.91,1712189816968750
77.72,1712189816984375
85.14,1712189817000000
92.16,1712189817015625
98.38,1712189817031250
103.25,1712189817046875
106.22,1712189817062500
106.96,1712189817078125
105.37,1712189817093750
101.69,1712189817109375
96.47,1712189817125000
90.56,1712189817140625
84.83,1712189817156250
80.01,1712189817171875
76.29,1712189817187500
73.19,1712189817203125
69.65,1712189817218750
64.44,1712189817234375
56.7,1712189817250000
46.33,1712189817265625
33.96,1712189817281250
20.69,1712189817296875
7.71,1712189817312500
-4.21,1712189817328125
-14.97,1712189817343750
-25.15,1712189817359375
-35.71,1712189817375000
-47.61,1712189817390625
-61.29,1712189817406250
-76.34,1712189817421875
-91.16,1712189817437500
-102.84,1712189817453125
-108.07,1712189817468750
-104.26,1712189817484375
-90.72,1712189817500000
-69.1,1712189817515625
-42.78,1712189817531250
-15.81,1712189817546875
8.42,1712189817562500
28.19,1712189817578125
44.08,1712189817593750
57.59,1712189817609375
69.76,1712189817625000
80.22,1712189817640625
87.53,1712189817656250
90.31,1712189817671875
88.38,1712189817687500
83.06,1712189817703125
76.75,1712189817718750
72.82,1712189817734375
73.45,1712189817750000
78.56,1712189817765625
85.84,1712189817781250
92.18,1712189817796875
95.29,1712189817812500
94.63,1712189817828125
90.93,1712189817843750
85.25,1712189817859375
79.61,1712189817875000
75.47,1712189817890625
73.94,1712189817906250
75.84,1712189817921875
82.11,1712189817937500
93.16,1712189817953125
108.1,1712189817968750
123.91,1712189817984375
128.54,1712189818000000
113.36,1712189818015625
78.14,1712189818031250
32.95,1712189818046875
-9.14,1712189818062500
-40.81,1712189818078125
-63.46,1712189818093750
-82.74,1712189818109375
-104.8,1712189818125000
-130.47,1712189818140625
-153.47,1712189818156250
-166.31,1712189818171875
-164.61,1712189818187500
-150.0,1712189818203125
-126.97,1712189818218750
-102.41,1712189818234375
-81.64,1712189818250000
-66.66,1712189818265625
-56.94,1712189818281250
-48.71,1712189818296875
-39.55,1712189818312500
-28.77,1712189818328125
-17.17,1712189818343750
-5.89,1712189818359375
3.72,1712189818375000
9.86,1712189818390625
9.67,1712189818406250
-0.43,1712189818421875
-20.13,1712189818437500
-46.4,1712189818453125
-73.15,1712189818468750
-93.76,1712189818484375
-104.05,1712189818500000
-104.19,1712189818515625
-97.77,1712189818531250
-84.96,1712189818546875
-74.36,1712189818562500
-64.36,1712189818578125
-52.29,1712189818593750
-35.96,1712189818609375
-15.62,1712189818625000
5.91,1712189818640625
24.61,1712189818656250
37.2,1712189818671875
42.38,1712189818687500
40.08,1712189818703125
33.03,1712189818718750
23.21,1712189818734375
12.08,1712189818750000
0.55,1712189818765625
-10.77,1712189818781250
-21.01,1712189818796875
-28.61,1712189818812500
-31.61,1712189818828125
-29.01,1712189818843750
-19.89,1712189818859375
-5.71,1712189818875000
10.58,1712189818890625
25.61,1712189818906250
36.62,1712189818921875
42.36,1712189818937500
43.29,1712189818953125
41.01,1712189818968750
37.13,1712189818984375
33.6,1712189819000000
31.16,1712189819015625
29.77,1712189819031250
28.96,1712189819046875
28.21,1712189819062500
27.19,1712189819078125
25.99,1712189819093750
25.1,1712189819109375
25.14,1712189819125000
27.1,1712189819140625
31.5,1712189819156250
38.2,1712189819171875
46.22,1712189819187500
53.77,1712189819203125
58.69,1712189819218750
