value,timestamp
-0.0,1712814171000000
-0.0,1712814171015625
-0.0,1712814171031250
-0.0,1712814171046875
-0.0,1712814171062500
-0.0,1712814171078125
-0.0,1712814171093750
-0.0,1712814171109375
-0.0,1712814171125000
-0.0,1712814171140625
0.0,1712814171156250
0.01,1712814171171875
0.01,1712814171187500
-0.0,1712814171203125
-0.03,1712814171218750
-0.05,1712814171234375
-0.05,1712814171250000
0.0,1712814171265625
0.13,1712814171281250
0.36,1712814171296875
0.66,1712814171312500
1.01,1712814171328125
1.37,1712814171343750
1.72,1712814171359375
2.06,1712814171375000
2.4,1712814171390625
2.79,1712814171406250
3.24,1712814171421875
3.8,1712814171437500
4.42,1712814171453125
5.06,1712814171468750
5.66,1712814171484375
6.2,1712814171500000
6.68,1712814171515625
7.15,1712814171531250
7.68,1712814171546875
8.31,1712814171562500
9.14,1712814171578125
10.09,1712814171593750
11.04,1712814171609375
11.88,1712814171625000
12.56,1712814171640625
13.14,1712814171656250
13.76,1712814171671875
14.65,1712814171687500
15.96,1712814171703125
17.91,1712814171718750
20.32,1712814171734375
22.9,1712814171750000
25.38,1712814171765625
27.58,1712814171781250
29.57,1712814171796875
31.68,1712814171812500
34.32,1712814171828125
37.81,1712814171843750
42.54,1712814171859375
48.15,1712814171875000
54.1,1712814171890625
59.83,1712814171906250
64.97,1712814171921875
69.58,1712814171937500
74.14,1712814171953125
79.34,1712814171968750
85.71,1712814171984375
93.76,1712814172000000
103.0,1712814172015625
112.62,1712814172031250
121.73,1712814172046875
129.77,1712814172062500
136.75,1712814172078125
143.3,1712814172093750
150.75,1712814172109375
157.77,1712814172125000
166.64,1712814172140625
177.95,1712814172156250
191.79,1712814172171875
206.97,1712814172187500
220.57,1712814172203125
228.25,1712814172218750
225.36,1712814172234375
208.53,1712814172250000
176.87,1712814172265625
132.76,1712814172281250
80.05,1712814172296875
23.07,1712814172312500
-34.94,1712814172328125
-92.44,1712814172343750
-149.16,1712814172359375
-205.23,1712814172375000
-260.37,1712814172390625
-313.74,1712814172406250
-363.87,1712814172421875
-409.83,1712814172437500
-450.91,1712814172453125
-486.5,1712814172468750
-515.74,1712814172484375
-537.23,1712814172500000
-549.22,1712814172515625
-549.96,1712814172531250
-538.37,1712814172546875
-514.21,1712814172562500
-478.67,1712814172578125
-433.88,1712814172593750
-382.45,1712814172609375
-327.02,1712814172625000
-269.84,1712814172640625
-212.63,1712814172656250
-156.66,1712814172671875
-102.95,1712814172687500
-52.37,1712814172703125
-5.9,1712814172718750
35.58,1712814172734375
71.43,1712814172750000
101.35,1712814172765625
125.5,1712814172781250
144.38,1712814172796875
158.69,1712814172812500
169.15,1712814172828125
176.37,1712814172843750
180.75,1712814172859375
182.57,1712814172875000
182.07,1712814172890625
179.51,1712814172906250
175.23,1712814172921875
169.65,1712814172937500
163.18,1712814172953125
156.15,1712814172968750
148.81,1712814172984375
141.3,1712814173000000
133.69,1712814173015625
126.02,1712814173031250
118.33,1712814173046875
110.69,1712814173062500
103.16,1712814173078125
95.8,1712814173093750
88.68,1712814173109375
81.83,1712814173125000
75.25,1712814173140625
68.95,1712814173156250
62.95,1712814173171875
57.25,1712814173187500
51.86,1712814173203125
46.78,1712814173218750
42.03,1712814173234375
37.59,1712814173250000
33.45,1712814173265625
29.61,1712814173281250
26.07,1712814173296875
22.81,1712814173312500
19.83,1712814173328125
17.11,1712814173343750
14.67,1712814173359375
12.48,1712814173375000
10.54,1712814173390625
8.83,1712814173406250
7.35,1712814173421875
6.07,1712814173437500
4.97,1712814173453125
4.05,1712814173468750
3.27,1712814173484375
2.62,1712814173500000
2.09,1712814173515625
1.65,1712814173531250
1.3,1712814173546875
1.01,1712814173562500
0.79,1712814173578125
0.61,1712814173593750
0.48,1712814173609375
0.37,1712814173625000
0.29,1712814173640625
0.24,1712814173656250
0.2,1712814173671875
0.18,1712814173687500
0.17,1712814173703125
0.17,1712814173718750
0.19,1712814173734375
0.21,1712814173750000
0.24,1712814173765625
0.27,1712814173781250
0.31,1712814173796875
0.35,1712814173812500
0.39,1712814173828125
0.43,1712814173843750
0.48,1712814173859375
0.53,1712814173875000
0.58,1712814173890625
0.63,1712814173906250
0.68,1712814173921875
0.74,1712814173937500
0.8,1712814173953125
0.87,1712814173968750
0.94,1712814173984375
1.03,1712814174000000
1.12,1712814174015625
1.22,1712814174031250
1.33,1712814174046875
1.46,1712814174062500
1.6,1712814174078125
1.76,1712814174093750
1.94,1712814174109375
2.14,1712814174125000
2.36,1712814174140625
2.6,1712814174156250
2.87,1712814174171875
3.17,1712814174187500
3.49,1712814174203125
3.85,1712814174218750
4.25,1712814174234375
4.67,1712814174250000
5.13,1712814174265625
5.63,1712814174281250
6.17,1712814174296875
6.75,1712814174312500
7.37,1712814174328125
8.03,1712814174343750
8.74,1712814174359375
9.49,1712814174375000
10.28,1712814174390625
11.12,1712814174406250
12.01,1712814174421875
12.94,1712814174437500
13.93,1712814174453125
14.97,1712814174468750
16.08,1712814174484375
17.25,1712814174500000
18.48,1712814174515625
19.75,1712814174531250
21.03,1712814174546875
22.28,1712814174562500
23.4,1712814174578125
24.3,1712814174593750
24.87,1712814174609375
24.98,1712814174625000
24.51,1712814174640625
23.36,1712814174656250
21.49,1712814174671875
18.89,1712814174687500
15.61,1712814174703125
11.72,1712814174718750
7.41,1712814174734375
2.87,1712814174750000
-1.69,1712814174765625
-6.03,1712814174781250
-9.96,1712814174796875
-13.31,1712814174812500
-15.96,1712814174828125
-17.84,1712814174843750
-18.94,1712814174859375
-19.3,1712814174875000
-19.01,1712814174890625
-18.19,1712814174906250
-16.99,1712814174921875
-15.55,1712814174937500
-13.99,1712814174953125
-12.41,1712814174968750
-10.84,1712814174984375
-9.28,1712814175000000
-7.69,1712814175015625
-6.07,1712814175031250
-4.39,1712814175046875
-2.69,1712814175062500
-0.97,1712814175078125
0.77,1712814175093750
2.49,1712814175109375
4.25,1712814175125000
6.08,1712814175140625
8.09,1712814175156250
10.21,1712814175171875
12.43,1712814175187500
14.69,1712814175203125
16.95,1712814175218750
19.17,1712814175234375
21.35,1712814175250000
23.55,1712814175265625
25.94,1712814175281250
28.74,1712814175296875
31.84,1712814175312500
35.17,1712814175328125
38.6,1712814175343750
41.96,1712814175359375
45.11,1712814175375000
47.96,1712814175390625
50.63,1712814175406250
53.39,1712814175421875
56.73,1712814175437500
60.5,1712814175453125
64.63,1712814175468750
68.87,1712814175484375
72.86,1712814175500000
76.22,1712814175515625
78.71,1712814175531250
80.43,1712814175546875
81.77,1712814175562500
83.35,1712814175578125
85.03,1712814175593750
86.62,1712814175609375
87.59,1712814175625000
87.13,1712814175640625
84.3,1712814175656250
78.17,1712814175671875
67.85,1712814175687500
52.15,1712814175703125
34.49,1712814175718750
16.01,1712814175734375
-2.7,1712814175750000
-21.55,1712814175765625
-40.82,1712814175781250
-60.97,1712814175796875
-82.64,1712814175812500
-106.49,1712814175828125
-132.92,1712814175843750
-161.44,1712814175859375
-190.93,1712814175875000
-218.55,1712814175890625
-240.54,1712814175906250
-253.4,1712814175921875
-255.35,1712814175937500
-247.06,1712814175953125
-231.42,1712814175968750
-212.31,1712814175984375
-193.13,1712814176000000
-176.4,1712814176015625
-162.9,1712814176031250
-152.34,1712814176046875
-144.07,1712814176062500
-137.41,1712814176078125
-131.53,1712814176093750
-125.13,1712814176109375
-116.46,1712814176125000
-103.65,1712814176140625
-85.87,1712814176156250
-63.42,1712814176171875
-37.87,1712814176187500
-11.63,1712814176203125
12.83,1712814176218750
33.67,1712814176234375
50.1,1712814176250000
62.19,1712814176265625
70.66,1712814176281250
76.12,1712814176296875
79.11,1712814176312500
79.99,1712814176328125
79.06,1712814176343750
76.77,1712814176359375
73.69,1712814176375000
70.48,1712814176390625
67.67,1712814176406250
65.52,1712814176421875
63.95,1712814176437500
62.71,1712814176453125
61.48,1712814176468750
60.0,1712814176484375
58.05,1712814176500000
55.43,1712814176515625
51.93,1712814176531250
47.35,1712814176546875
41.62,1712814176562500
34.87,1712814176578125
27.52,1712814176593750
20.11,1712814176609375
13.13,1712814176625000
6.85,1712814176640625
1.19,1712814176656250
-4.25,1712814176671875
-10.08,1712814176687500
-16.96,1712814176703125
-25.37,1712814176718750
-35.46,1712814176734375
-46.75,1712814176750000
-58.19,1712814176765625
-68.11,1712814176781250
-74.6,1712814176796875
-76.03,1712814176812500
-71.54,1712814176828125
-61.27,1712814176843750
-46.36,1712814176859375
-28.61,1712814176875000
-9.98,1712814176890625
7.81,1712814176906250
23.56,1712814176921875
36.59,1712814176937500
46.57,1712814176953125
53.49,1712814176968750
57.45,1712814176984375
58.79,1712814177000000
58.09,1712814177015625
56.15,1712814177031250
53.79,1712814177046875
51.7,1712814177062500
50.18,1712814177078125
49.13,1712814177093750
48.18,1712814177109375
46.96,1712814177125000
45.3,1712814177140625
43.28,1712814177156250
41.21,1712814177171875
39.34,1712814177187500
37.71,1712814177203125
36.06,1712814177218750
33.89,1712814177234375
30.65,1712814177250000
25.96,1712814177265625
19.79,1712814177281250
12.52,1712814177296875
4.79,1712814177312500
-2.74,1712814177328125
-9.59,1712814177343750
-15.68,1712814177359375
-21.26,1712814177375000
-26.74,1712814177390625
-32.56,1712814177406250
-38.99,1712814177421875
-46.14,1712814177437500
-53.93,1712814177453125
-61.92,1712814177468750
-69.22,1712814177484375
-74.47,1712814177500000
-76.05,1712814177515625
-72.56,1712814177531250
-63.41,1712814177546875
-49.16,1712814177562500
-31.41,1712814177578125
-12.33,1712814177593750
6.03,1712814177609375
22.27,1712814177625000
35.81,1712814177640625
46.62,1712814177656250
54.89,1712814177671875
60.77,1712814177687500
64.23,1712814177703125
65.33,1712814177718750
64.33,1712814177734375
61.86,1712814177750000
58.72,1712814177765625
55.74,1712814177781250
53.5,1712814177796875
52.23,1712814177812500
51.68,1712814177828125
51.38,1712814177843750
50.82,1712814177859375
49.68,1712814177875000
47.94,1712814177890625
45.81,1712814177906250
43.56,1712814177921875
41.31,1712814177937500
38.9,1712814177953125
36.01,1712814177968750
32.29,1712814177984375
27.53,1712814178000000
21.77,1712814178015625
15.32,1712814178031250
8.61,1712814178046875
2.08,1712814178062500
-3.96,1712814178078125
-9.43,1712814178093750
-14.45,1712814178109375
-19.36,1712814178125000
-24.58,1712814178140625
-30.58,1712814178156250
-37.66,1712814178171875
-45.83,1712814178187500
-54.72,1712814178203125
-63.49,1712814178218750
-70.91,1712814178234375
-75.52,1712814178250000
-76.0,1712814178265625
-71.55,1712814178281250
-62.16,1712814178296875
-48.68,1712814178312500
-32.69,1712814178328125
-15.99,1712814178343750
-0.26,1712814178359375
13.36,1712814178375000
24.23,1712814178390625
32.2,1712814178406250
37.42,1712814178421875
40.21,1712814178437500
40.97,1712814178453125
40.17,1712814178468750
38.28,1712814178484375
35.81,1712814178500000
33.21,1712814178515625
30.88,1712814178531250
29.13,1712814178546875
28.11,1712814178562500
27.73,1712814178578125
27.7,1712814178593750
27.66,1712814178609375
27.42,1712814178625000
27.0,1712814178640625
26.71,1712814178656250
26.89,1712814178671875
27.72,1712814178687500
28.95,1712814178703125
29.91,1712814178718750
29.78,1712814178734375
27.85,1712814178750000
23.82,1712814178765625
17.9,1712814178781250
10.67,1712814178796875
2.92,1712814178812500
-4.72,1712814178828125
-11.9,1712814178843750
-18.62,1712814178859375
-25.18,1712814178875000
-31.98,1712814178890625
-39.38,1712814178906250
-47.56,1712814178921875
-56.36,1712814178937500
-65.3,1712814178953125
-73.43,1712814178968750
-79.45,1712814178984375
-81.95,1712814179000000
-79.84,1712814179015625
-72.76,1712814179031250
-61.29,1712814179046875
-46.92,1712814179062500
-31.54,1712814179078125
-16.91,1712814179093750
-4.23,1712814179109375
6.01,1712814179125000
13.77,1712814179140625
19.23,1712814179156250
22.55,1712814179171875
23.94,1712814179187500
23.65,1712814179203125
22.19,1712814179218750
20.2,1712814179234375
18.36,1712814179250000
17.16,1712814179265625
16.85,1712814179281250
17.39,1712814179296875
18.58,1712814179312500
20.05,1712814179328125
21.45,1712814179343750
22.49,1712814179359375
23.02,1712814179375000
22.99,1712814179390625
22.44,1712814179406250
21.38,1712814179421875
19.69,1712814179437500
17.18,1712814179453125
13.64,1712814179468750
9.05,1712814179484375
3.66,1712814179500000
-2.12,1712814179515625
-7.76,1712814179531250
-12.94,1712814179546875
-17.58,1712814179562500
-21.86,1712814179578125
-26.16,1712814179593750
-30.9,1712814179609375
-36.44,1712814179625000
-42.87,1712814179640625
-49.9,1712814179656250
-56.7,1712814179671875
-62.02,1712814179687500
-64.4,1712814179703125
-62.64,1712814179718750
-56.18,1712814179734375
-45.37,1712814179750000
-31.38,1712814179765625
-15.83,1712814179781250
-0.29,1712814179796875
14.01,1712814179812500
26.33,1712814179828125
36.32,1712814179843750
43.8,1712814179859375
48.63,1712814179875000
50.73,1712814179890625
50.21,1712814179906250
47.46,1712814179921875
43.21,1712814179937500
38.36,1712814179953125
33.77,1712814179968750
30.07,1712814179984375
27.47,1712814180000000
25.83,1712814180015625
24.79,1712814180031250
24.03,1712814180046875
23.41,1712814180062500
22.95,1712814180078125
22.75,1712814180093750
22.8,1712814180109375
22.88,1712814180125000
22.62,1712814180140625
21.6,1712814180156250
19.61,1712814180171875
16.64,1712814180187500
12.97,1712814180203125
8.98,1712814180218750
5.04,1712814180234375
1.35,1712814180250000
-2.02,1712814180265625
-5.19,1712814180281250
-8.31,1712814180296875
-11.63,1712814180312500
-15.44,1712814180328125
-20.12,1712814180343750
-26.06,1712814180359375
-33.45,1712814180375000
-42.07,1712814180390625
-51.03,1712814180406250
-58.88,1712814180421875
-63.77,1712814180437500
-64.14,1712814180453125
-59.16,1712814180468750
-49.17,1712814180484375
-35.49,1712814180500000
-20.05,1712814180515625
-4.73,1712814180531250
9.12,1712814180546875
20.83,1712814180562500
30.29,1712814180578125
37.61,1712814180593750
42.9,1712814180609375
46.17,1712814180625000
47.46,1712814180640625
46.92,1712814180656250
44.94,1712814180671875
42.11,1712814180687500
39.05,1712814180703125
36.29,1712814180718750
34.14,1712814180734375
32.71,1712814180750000
31.9,1712814180765625
31.48,1712814180781250
31.21,1712814180796875
30.82,1712814180812500
30.08,1712814180828125
28.76,1712814180843750
26.73,1712814180859375
23.87,1712814180875000
20.22,1712814180890625
15.91,1712814180906250
11.2,1712814180921875
6.36,1712814180937500
1.53,1712814180953125
-3.26,1712814180968750
-8.12,1712814180984375
-13.18,1712814181000000
-18.46,1712814181015625
-23.82,1712814181031250
-28.98,1712814181046875
-33.69,1712814181062500
-37.8,1712814181078125
-41.43,1712814181093750
-44.9,1712814181109375
-48.72,1712814181125000
-53.37,1712814181140625
-59.2,1712814181156250
-66.14,1712814181171875
-73.58,1712814181187500
-80.28,1712814181203125
-84.62,1712814181218750
-84.96,1712814181234375
-80.23,1712814181250000
-70.24,1712814181265625
-55.86,1712814181281250
-38.77,1712814181296875
-20.92,1712814181312500
-4.14,1712814181328125
10.34,1712814181343750
21.86,1712814181359375
30.39,1712814181375000
36.24,1712814181390625
39.93,1712814181406250
41.98,1712814181421875
42.94,1712814181437500
43.21,1712814181453125
43.15,1712814181468750
43.01,1712814181484375
42.98,1712814181500000
43.21,1712814181515625
43.8,1712814181531250
44.75,1712814181546875
45.9,1712814181562500
46.94,1712814181578125
47.51,1712814181593750
47.26,1712814181609375
46.01,1712814181625000
43.78,1712814181640625
40.78,1712814181656250
37.27,1712814181671875
33.49,1712814181687500
29.59,1712814181703125
25.67,1712814181718750
21.78,1712814181734375
17.93,1712814181750000
14.16,1712814181765625
10.42,1712814181781250
6.63,1712814181796875
2.72,1712814181812500
-1.25,1712814181828125
-5.15,1712814181843750
-8.76,1712814181859375
-11.92,1712814181875000
-14.65,1712814181890625
-17.22,1712814181906250
-20.12,1712814181921875
-23.84,1712814181937500
-28.65,1712814181953125
-34.42,1712814181968750
-40.47,1712814181984375
-45.71,1712814182000000
-48.83,1712814182015625
-48.67,1712814182031250
-44.63,1712814182046875
-36.76,1712814182062500
-25.9,1712814182078125
-13.31,1712814182093750
-0.43,1712814182109375
11.52,1712814182125000
21.74,1712814182140625
29.81,1712814182156250
35.66,1712814182171875
39.37,1712814182187500
41.07,1712814182203125
40.89,1712814182218750
39.08,1712814182234375
35.93,1712814182250000
31.87,1712814182265625
27.41,1712814182281250
23.02,1712814182296875
19.1,1712814182312500
15.91,1712814182328125
13.5,1712814182343750
11.8,1712814182359375
10.64,1712814182375000
9.76,1712814182390625
8.9,1712814182406250
7.81,1712814182421875
6.25,1712814182437500
4.06,1712814182453125
1.26,1712814182468750
-2.02,1712814182484375
-5.47,1712814182500000
-8.75,1712814182515625
-11.65,1712814182531250
-14.14,1712814182546875
-16.47,1712814182562500
-18.95,1712814182578125
-21.87,1712814182593750
-25.37,1712814182609375
-29.36,1712814182625000
-33.57,1712814182640625
-37.66,1712814182656250
-41.39,1712814182671875
-44.7,1712814182687500
-47.83,1712814182703125
-51.2,1712814182718750
-55.33,1712814182734375
-60.53,1712814182750000
-66.71,1712814182765625
-73.12,1712814182781250
-78.51,1712814182796875
-81.37,1712814182812500
-80.32,1712814182828125
-74.61,1712814182843750
-64.3,1712814182859375
-50.34,1712814182875000
-34.3,1712814182890625
-17.93,1712814182906250
-2.71,1712814182921875
10.41,1712814182937500
21.08,1712814182953125
29.37,1712814182968750
35.43,1712814182984375
39.39,1712814183000000
41.29,1712814183015625
41.26,1712814183031250
39.77,1712814183046875
37.57,1712814183062500
35.63,1712814183078125
34.68,1712814183093750
35.01,1712814183109375
36.39,1712814183125000
38.18,1712814183140625
39.72,1712814183156250
40.59,1712814183171875
40.64,1712814183187500
39.99,1712814183203125
38.84,1712814183218750
37.29,1712814183234375
35.25,1712814183250000
32.47,1712814183265625
28.63,1712814183281250
23.47,1712814183296875
16.96,1712814183312500
9.3,1712814183328125
0.95,1712814183343750
-7.53,1712814183359375
-15.64,1712814183375000
-23.05,1712814183390625
-29.63,1712814183406250
-35.52,1712814183421875
-41.05,1712814183437500
-46.63,1712814183453125
-52.68,1712814183468750
-59.45,1712814183484375
-66.78,1712814183500000
-73.98,1712814183515625
-79.85,1712814183531250
-82.96,1712814183546875
-82.04,1712814183562500
-76.49,1712814183578125
-66.55,1712814183593750
-53.32,1712814183609375
-38.43,1712814183625000
-23.6,1712814183640625
-10.22,1712814183656250
0.87,1712814183671875
9.44,1712814183687500
15.62,1712814183703125
19.76,1712814183718750
22.21,1712814183734375
23.3,1712814183750000
23.4,1712814183765625
23.01,1712814183781250
22.68,1712814183796875
22.92,1712814183812500
23.89,1712814183828125
25.37,1712814183843750
26.84,1712814183859375
27.7,1712814183875000
27.55,1712814183890625
26.4,1712814183906250
24.63,1712814183921875
22.68,1712814183937500
20.84,1712814183953125
19.04,1712814183968750
16.99,1712814183984375
14.28,1712814184000000
10.62,1712814184015625
6.01,1712814184031250
0.66,1712814184046875
-5.06,1712814184062500
-10.76,1712814184078125
-16.13,1712814184093750
-20.98,1712814184109375
-25.34,1712814184125000
-29.42,1712814184140625
-33.56,1712814184156250
-38.21,1712814184171875
-43.77,1712814184187500
-50.37,1712814184203125
-57.66,1712814184218750
-64.77,1712814184234375
-70.32,1712814184250000
-72.82,1712814184265625
-71.04,1712814184281250
-64.54,1712814184296875
-53.75,1712814184312500
-39.96,1712814184328125
-24.89,1712814184343750
-10.18,1712814184359375
2.95,1712814184375000
13.85,1712814184390625
22.34,1712814184406250
28.57,1712814184421875
32.77,1712814184437500
35.18,1712814184453125
36.0,1712814184468750
35.47,1712814184484375
33.94,1712814184500000
31.83,1712814184515625
29.68,1712814184531250
27.92,1712814184546875
26.87,1712814184562500
26.57,1712814184578125
26.83,1712814184593750
27.34,1712814184609375
27.77,1712814184625000
27.9,1712814184640625
27.66,1712814184656250
27.06,1712814184671875
26.05,1712814184687500
24.45,1712814184703125
22.02,1712814184718750
18.52,1712814184734375
13.92,1712814184750000
8.39,1712814184765625
2.42,1712814184781250
-3.5,1712814184796875
-8.95,1712814184812500
-13.81,1712814184828125
-18.27,1712814184843750
-22.74,1712814184859375
-27.7,1712814184875000
-33.56,1712814184890625
-40.53,1712814184906250
-48.46,1712814184921875
-56.91,1712814184937500
-65.01,1712814184953125
-71.61,1712814184968750
-75.41,1712814184984375
-75.31,1712814185000000
-70.7,1712814185015625
-61.72,1712814185031250
-49.3,1712814185046875
-34.89,1712814185062500
-20.13,1712814185078125
-6.39,1712814185093750
5.46,1712814185109375
15.05,1712814185125000
22.34,1712814185140625
27.43,1712814185156250
30.45,1712814185171875
31.62,1712814185187500
31.36,1712814185203125
30.44,1712814185218750
29.81,1712814185234375
30.35,1712814185250000
32.51,1712814185265625
36.14,1712814185281250
40.55,1712814185296875
44.84,1712814185312500
48.21,1712814185328125
50.31,1712814185343750
51.18,1712814185359375
51.15,1712814185375000
50.53,1712814185390625
49.44,1712814185406250
47.75,1712814185421875
45.2,1712814185437500
41.53,1712814185453125
36.59,1712814185468750
30.44,1712814185484375
23.32,1712814185500000
15.63,1712814185515625
7.8,1712814185531250
0.29,1712814185546875
-6.51,1712814185562500
-12.3,1712814185578125
-16.96,1712814185593750
-20.67,1712814185609375
-23.87,1712814185625000
-27.22,1712814185640625
-31.29,1712814185656250
-36.33,1712814185671875
-41.9,1712814185687500
-46.99,1712814185703125
-50.14,1712814185718750
-49.99,1712814185734375
-45.76,1712814185750000
-37.55,1712814185765625
-26.22,1712814185781250
-13.17,1712814185796875
0.07,1712814185812500
12.2,1712814185828125
22.22,1712814185843750
29.57,1712814185859375
34.02,1712814185875000
35.66,1712814185890625
34.9,1712814185906250
32.37,1712814185921875
28.85,1712814185937500
25.1,1712814185953125
21.85,1712814185968750
19.56,1712814185984375
18.46,1712814186000000
18.52,1712814186015625
19.49,1712814186031250
20.97,1712814186046875
22.51,1712814186062500
23.78,1712814186078125
24.56,1712814186093750
24.83,1712814186109375
24.65,1712814186125000
24.06,1712814186140625
23.02,1712814186156250
21.44,1712814186171875
19.25,1712814186187500
16.43,1712814186203125
13.08,1712814186218750
9.37,1712814186234375
5.44,1712814186250000
1.36,1712814186265625
-2.87,1712814186281250
-7.28,1712814186296875
-11.83,1712814186312500
-16.43,1712814186328125
-20.97,1712814186343750
-25.4,1712814186359375
-29.84,1712814186375000
-34.64,1712814186390625
-40.22,1712814186406250
-46.9,1712814186421875
-54.61,1712814186437500
-62.71,1712814186453125
-69.94,1712814186468750
-74.68,1712814186484375
-75.43,1712814186500000
-71.36,1712814186515625
-62.6,1712814186531250
-50.27,1712814186546875
-36.13,1712814186562500
-22.01,1712814186578125
-9.27,1712814186593750
1.36,1712814186609375
9.76,1712814186625000
16.06,1712814186640625
20.44,1712814186656250
22.99,1712814186671875
23.88,1712814186687500
23.41,1712814186703125
22.21,1712814186718750
21.09,1712814186734375
20.8,1712814186750000
21.83,1712814186765625
24.22,1712814186781250
27.68,1712814186796875
31.8,1712814186812500
36.17,1712814186828125
40.53,1712814186843750
44.65,1712814186859375
48.3,1712814186875000
51.16,1712814186890625
52.89,1712814186906250
53.21,1712814186921875
52.05,1712814186937500
49.54,1712814186953125
46.0,1712814186968750
41.83,1712814186984375
37.34,1712814187000000
32.7,1712814187015625
27.91,1712814187031250
22.9,1712814187046875
17.67,1712814187062500
12.32,1712814187078125
7.17,1712814187093750
2.48,1712814187109375
-1.56,1712814187125000
-5.06,1712814187140625
-8.44,1712814187156250
-12.25,1712814187171875
-16.99,1712814187187500
-22.88,1712814187203125
-29.76,1712814187218750
-37.04,1712814187234375
-43.82,1712814187250000
-49.0,1712814187265625
-51.42,1712814187281250
-50.12,1712814187296875
-44.54,1712814187312500
-34.79,1712814187328125
-21.64,1712814187343750
-6.39,1712814187359375
9.44,1712814187375000
24.53,1712814187390625
37.99,1712814187406250
49.44,1712814187421875
58.94,1712814187437500
66.64,1712814187453125
72.65,1712814187468750
76.92,1712814187484375
79.26,1712814187500000
79.59,1712814187515625
78.06,1712814187531250
75.16,1712814187546875
71.54,1712814187562500
67.75,1712814187578125
64.06,1712814187593750
60.33,1712814187609375
56.18,1712814187625000
51.22,1712814187640625
45.29,1712814187656250
38.52,1712814187671875
31.18,1712814187687500
23.55,1712814187703125
15.75,1712814187718750
7.83,1712814187734375
-0.18,1712814187750000
-8.12,1712814187765625
-15.7,1712814187781250
-22.55,1712814187796875
-28.45,1712814187812500
-33.36,1712814187828125
-37.41,1712814187843750
-40.78,1712814187859375
-43.65,1712814187875000
-46.11,1712814187890625
-48.21,1712814187906250
-50.06,1712814187921875
-51.89,1712814187937500
-54.08,1712814187953125
-57.1,1712814187968750
-61.41,1712814187984375
-67.26,1712814188000000
-74.5,1712814188015625
-82.43,1712814188031250
-89.87,1712814188046875
-95.32,1712814188062500
-97.33,1712814188078125
-94.84,1712814188093750
-87.55,1712814188109375
-76.01,1712814188125000
-61.46,1712814188140625
-45.57,1712814188156250
-29.93,1712814188171875
-15.77,1712814188187500
-3.75,1712814188203125
5.91,1712814188218750
13.3,1712814188234375
18.58,1712814188250000
21.91,1712814188265625
23.44,1712814188281250
23.44,1712814188296875
22.4,1712814188312500
20.92,1712814188328125
19.7,1712814188343750
19.26,1712814188359375
19.85,1712814188375000
21.36,1712814188390625
23.41,1712814188406250
25.51,1712814188421875
27.2,1712814188437500
28.2,1712814188453125
28.39,1712814188468750
27.79,1712814188484375
26.46,1712814188500000
24.53,1712814188515625
22.09,1712814188531250
19.28,1712814188546875
16.16,1712814188562500
12.78,1712814188578125
9.09,1712814188593750
5.02,1712814188609375
0.56,1712814188625000
-4.22,1712814188640625
-9.1,1712814188656250
-13.82,1712814188671875
-18.21,1712814188687500
-22.27,1712814188703125
-26.24,1712814188718750
-30.52,1712814188734375
-35.65,1712814188750000
-42.08,1712814188765625
-49.96,1712814188781250
-58.98,1712814188796875
-68.2,1712814188812500
-76.1,1712814188828125
-80.99,1712814188843750
-81.41,1712814188859375
-76.7,1712814188875000
-67.22,1712814188890625
-54.22,1712814188906250
-39.42,1712814188921875
-24.5,1712814188937500
-10.64,1712814188953125
1.54,1712814188968750
11.91,1712814188984375
20.49,1712814189000000
27.38,1712814189015625
32.54,1712814189031250
35.97,1712814189046875
37.76,1712814189062500
38.22,1712814189078125
37.78,1712814189093750
36.97,1712814189109375
36.19,1712814189125000
35.67,1712814189140625
35.48,1712814189156250
35.54,1712814189171875
35.76,1712814189187500
36.1,1712814189203125
36.55,1712814189218750
37.07,1712814189234375
37.5,1712814189250000
37.59,1712814189265625
37.04,1712814189281250
35.56,1712814189296875
33.06,1712814189312500
29.64,1712814189328125
25.57,1712814189343750
21.23,1712814189359375
16.93,1712814189375000
12.86,1712814189390625
8.97,1712814189406250
5.05,1712814189421875
0.81,1712814189437500
-3.88,1712814189453125
-8.97,1712814189468750
-14.18,1712814189484375
-19.22,1712814189500000
-23.94,1712814189515625
-28.48,1712814189531250
-33.27,1712814189546875
-38.91,1712814189562500
-45.83,1712814189578125
-54.09,1712814189593750
-63.17,1712814189609375
-71.91,1712814189625000
-78.84,1712814189640625
-82.46,1712814189656250
-81.6,1712814189671875
-75.82,1712814189687500
-65.46,1712814189703125
-51.48,1712814189718750
-35.35,1712814189734375
-18.63,1712814189750000
-2.73,1712814189765625
11.34,1712814189781250
22.96,1712814189796875
32.03,1712814189812500
38.72,1712814189828125
43.42,1712814189843750
46.51,1712814189859375
48.27,1712814189875000
48.94,1712814189890625
48.83,1712814189906250
48.25,1712814189921875
47.57,1712814189937500
47.08,1712814189953125
46.93,1712814189968750
47.09,1712814189984375
47.44,1712814190000000
47.87,1712814190015625
48.32,1712814190031250
48.73,1712814190046875
48.97,1712814190062500
48.79,1712814190078125
47.91,1712814190093750
46.09,1712814190109375
43.31,1712814190125000
39.79,1712814190140625
35.88,1712814190156250
31.96,1712814190171875
28.24,1712814190187500
24.69,1712814190203125
21.07,1712814190218750
17.02,1712814190234375
12.28,1712814190250000
6.82,1712814190265625
0.87,1712814190281250
-5.13,1712814190296875
-10.74,1712814190312500
-15.71,1712814190328125
-20.11,1712814190343750
-24.31,1712814190359375
-28.89,1712814190375000
-34.43,1712814190390625
-41.33,1712814190406250
-49.61,1712814190421875
-58.73,1712814190437500
-67.55,1712814190453125
-74.48,1712814190468750
-77.84,1712814190484375
-76.38,1712814190500000
-69.69,1712814190515625
-58.43,1712814190531250
-44.11,1712814190546875
-28.58,1712814190562500
-13.46,1712814190578125
0.24,1712814190593750
12.13,1712814190609375
22.24,1712814190625000
30.55,1712814190640625
36.98,1712814190656250
41.27,1712814190671875
43.39,1712814190687500
43.56,1712814190703125
42.47,1712814190718750
40.98,1712814190734375
39.9,1712814190750000
39.72,1712814190765625
40.46,1712814190781250
41.7,1712814190796875
42.84,1712814190812500
43.37,1712814190828125
43.01,1712814190843750
41.77,1712814190859375
39.88,1712814190875000
37.62,1712814190890625
35.28,1712814190906250
32.86,1712814190921875
30.27,1712814190937500
27.22,1712814190953125
23.41,1712814190968750
18.66,1712814190984375
12.98,1712814191000000
6.61,1712814191015625
-0.09,1712814191031250
-6.7,1712814191046875
-12.89,1712814191062500
-18.45,1712814191078125
-23.37,1712814191093750
-27.78,1712814191109375
-31.96,1712814191125000
-36.38,1712814191140625
-41.59,1712814191156250
-48.1,1712814191171875
-56.12,1712814191187500
-65.31,1712814191203125
-74.55,1712814191218750
-82.14,1712814191234375
-86.11,1712814191250000
-84.95,1712814191265625
-78.02,1712814191281250
-65.96,1712814191296875
-50.4,1712814191312500
-33.53,1712814191328125
-17.39,1712814191343750
-3.31,1712814191359375
8.22,1712814191375000
17.51,1712814191390625
25.15,1712814191406250
31.66,1712814191421875
37.21,1712814191437500
41.57,1712814191453125
44.39,1712814191468750
45.38,1712814191484375
44.57,1712814191500000
42.44,1712814191515625
39.71,1712814191531250
37.19,1712814191546875
35.48,1712814191562500
34.82,1712814191578125
35.05,1712814191593750
35.72,1712814191609375
36.26,1712814191625000
36.21,1712814191640625
35.35,1712814191656250
33.62,1712814191671875
31.1,1712814191687500
27.91,1712814191703125
24.14,1712814191718750
19.84,1712814191734375
15.15,1712814191750000
10.25,1712814191765625
5.39,1712814191781250
0.77,1712814191796875
-3.62,1712814191812500
-7.94,1712814191828125
-12.52,1712814191843750
-17.69,1712814191859375
-23.66,1712814191875000
-30.49,1712814191890625
-38.15,1712814191906250
-46.65,1712814191921875
-55.93,1712814191937500
-65.77,1712814191953125
-75.55,1712814191968750
-84.19,1712814191984375
-90.21,1712814192000000
-92.13,1712814192015625
-88.87,1712814192031250
-80.18,1712814192046875
-66.71,1712814192062500
-49.91,1712814192078125
-31.62,1712814192093750
-13.65,1712814192109375
2.6,1712814192125000
16.29,1712814192140625
27.15,1712814192156250
35.34,1712814192171875
41.22,1712814192187500
45.28,1712814192203125
47.94,1712814192218750
49.68,1712814192234375
50.95,1712814192250000
52.25,1712814192265625
53.98,1712814192281250
56.3,1712814192296875
58.99,1712814192312500
61.6,1712814192328125
63.53,1712814192343750
64.35,1712814192359375
63.95,1712814192375000
62.46,1712814192390625
60.21,1712814192406250
57.45,1712814192421875
54.29,1712814192437500
50.67,1712814192453125
46.46,1712814192468750
41.56,1712814192484375
35.95,1712814192500000
29.76,1712814192515625
23.21,1712814192531250
16.61,1712814192546875
10.31,1712814192562500
4.65,1712814192578125
-0.14,1712814192593750
-4.02,1712814192609375
-7.25,1712814192625000
-10.28,1712814192640625
-13.71,1712814192656250
-18.13,1712814192671875
-24.04,1712814192687500
-31.6,1712814192703125
-40.57,1712814192718750
-50.11,1712814192734375
-58.81,1712814192750000
-64.94,1712814192765625
-66.87,1712814192781250
-63.64,1712814192796875
-55.34,1712814192812500
-43.1,1712814192828125
-28.77,1712814192843750
-14.29,1712814192859375
-1.17,1712814192875000
9.86,1712814192890625
18.81,1712814192906250
26.03,1712814192921875
31.88,1712814192937500
36.49,1712814192953125
39.79,1712814192968750
41.7,1712814192984375
42.35,1712814193000000
42.1,1712814193015625
41.52,1712814193031250
41.14,1712814193046875
41.28,1712814193062500
42.0,1712814193078125
43.15,1712814193093750
44.51,1712814193109375
45.9,1712814193125000
47.28,1712814193140625
48.62,1712814193156250
49.85,1712814193171875
50.79,1712814193187500
51.21,1712814193203125
50.84,1712814193218750
49.53,1712814193234375
47.32,1712814193250000
44.41,1712814193265625
41.23,1712814193281250
38.4,1712814193296875
36.59,1712814193312500
36.4,1712814193328125
38.02,1712814193343750
41.05,1712814193359375
44.39,1712814193375000
46.4,1712814193390625
45.33,1712814193406250
39.88,1712814193421875
29.52,1712814193437500
14.76,1712814193453125
-2.95,1712814193468750
-21.58,1712814193484375
-38.83,1712814193500000
-52.57,1712814193515625
-61.11,1712814193531250
-63.53,1712814193546875
-59.73,1712814193562500
-50.54,1712814193578125
-37.5,1712814193593750
-22.56,1712814193609375
-7.62,1712814193625000
5.84,1712814193640625
17.01,1712814193656250
25.69,1712814193671875
32.12,1712814193687500
36.56,1712814193703125
39.19,1712814193718750
39.98,1712814193734375
38.79,1712814193750000
35.6,1712814193765625
30.62,1712814193781250
24.4,1712814193796875
17.62,1712814193812500
10.99,1712814193828125
5.04,1712814193843750
0.09,1712814193859375
-3.62,1712814193875000
-5.89,1712814193890625
-6.6,1712814193906250
-5.87,1712814193921875
-4.29,1712814193937500
-2.9,1712814193953125
-2.88,1712814193968750
-5.18,1712814193984375
-10.08,1712814194000000
-17.11,1712814194015625
-25.31,1712814194031250
-33.69,1712814194046875
-41.7,1712814194062500
-49.35,1712814194078125
-57.1,1712814194093750
-65.44,1712814194109375
-74.67,1712814194125000
-84.84,1712814194140625
-95.83,1712814194156250
-107.57,1712814194171875
-119.95,1712814194187500
-132.64,1712814194203125
-144.74,1712814194218750
-154.77,1712814194234375
-160.83,1712814194250000
-161.24,1712814194265625
-155.22,1712814194281250
-143.28,1712814194296875
-127.21,1712814194312500
-109.37,1712814194328125
-92.02,1712814194343750
-76.48,1712814194359375
-63.0,1712814194375000
-51.02,1712814194390625
-39.7,1712814194406250
-28.58,1712814194421875
-17.82,1712814194437500
-8.11,1712814194453125
-0.24,1712814194468750
5.19,1712814194484375
8.13,1712814194500000
9.05,1712814194515625
8.7,1712814194531250
7.89,1712814194546875
7.25,1712814194562500
7.14,1712814194578125
7.69,1712814194593750
8.88,1712814194609375
10.63,1712814194625000
12.75,1712814194640625
14.95,1712814194656250
16.88,1712814194671875
18.14,1712814194687500
18.43,1712814194703125
17.61,1712814194718750
15.73,1712814194734375
13.09,1712814194750000
10.1,1712814194765625
7.3,1712814194781250
5.09,1712814194796875
3.7,1712814194812500
3.0,1712814194828125
2.5,1712814194843750
1.48,1712814194859375
-0.73,1712814194875000
-4.49,1712814194890625
-9.46,1712814194906250
-14.59,1712814194921875
-18.29,1712814194937500
-18.9,1712814194953125
-15.29,1712814194968750
-7.33,1712814194984375
4.04,1712814195000000
17.09,1712814195015625
29.97,1712814195031250
41.29,1712814195046875
50.58,1712814195062500
58.21,1712814195078125
64.93,1712814195093750
71.46,1712814195109375
78.1,1712814195125000
84.66,1712814195140625
90.54,1712814195156250
94.83,1712814195171875
96.25,1712814195187500
93.22,1712814195203125
84.14,1712814195218750
68.04,1712814195234375
45.23,1712814195250000
17.75,1712814195265625
-10.91,1712814195281250
-36.73,1712814195296875
-56.43,1712814195312500
-68.47,1712814195328125
-73.2,1712814195343750
-72.33,1712814195359375
-67.93,1712814195375000
-61.55,1712814195390625
-53.91,1712814195406250
-45.2,1712814195421875
-35.69,1712814195437500
-26.1,1712814195453125
-17.75,1712814195468750
-12.17,1712814195484375
-10.53,1712814195500000
-13.34,1712814195515625
-20.27,1712814195531250
-30.49,1712814195546875
-42.97,1712814195562500
-56.75,1712814195578125
-70.83,1712814195593750
-84.0,1712814195609375
-94.62,1712814195625000
-100.71,1712814195640625
-100.43,1712814195656250
-92.74,1712814195671875
-77.91,1712814195687500
-57.61,1712814195703125
-34.42,1712814195718750
-10.98,1712814195734375
10.77,1712814195750000
29.87,1712814195765625
46.23,1712814195781250
60.01,1712814195796875
71.26,1712814195812500
79.71,1712814195828125
85.08,1712814195843750
87.48,1712814195859375
87.64,1712814195875000
86.77,1712814195890625
86.19,1712814195906250
86.84,1712814195921875
89.05,1712814195937500
92.61,1712814195953125
96.96,1712814195968750
101.5,1712814195984375
105.64,1712814196000000
108.88,1712814196015625
110.63,1712814196031250
110.28,1712814196046875
107.25,1712814196062500
101.22,1712814196078125
92.21,1712814196093750
80.69,1712814196109375
67.44,1712814196125000
53.31,1712814196140625
38.92,1712814196156250
24.48,1712814196171875
9.69,1712814196187500
-6.11,1712814196203125
-23.57,1712814196218750
-43.1,1712814196234375
-64.63,1712814196250000
-87.61,1712814196265625
-111.12,1712814196281250
-133.99,1712814196296875
-154.91,1712814196312500
-172.45,1712814196328125
-185.28,1712814196343750
-192.32,1712814196359375
-193.17,1712814196375000
-188.14,1712814196390625
-178.26,1712814196406250
-164.94,1712814196421875
-149.51,1712814196437500
-132.96,1712814196453125
-115.84,1712814196468750
-98.43,1712814196484375
-81.03,1712814196500000
-64.03,1712814196515625
-47.93,1712814196531250
-33.16,1712814196546875
-19.9,1712814196562500
-8.05,1712814196578125
2.7,1712814196593750
12.56,1712814196609375
21.63,1712814196625000
29.94,1712814196640625
37.52,1712814196656250
44.62,1712814196671875
51.53,1712814196687500
58.42,1712814196703125
65.11,1712814196718750
70.99,1712814196734375
75.24,1712814196750000
77.11,1712814196765625
76.32,1712814196781250
73.12,1712814196796875
68.24,1712814196812500
62.56,1712814196828125
56.86,1712814196843750
51.57,1712814196859375
46.82,1712814196875000
42.36,1712814196890625
37.74,1712814196906250
32.32,1712814196921875
25.37,1712814196937500
16.29,1712814196953125
4.84,1712814196968750
-8.52,1712814196984375
-22.45,1712814197000000
-34.78,1712814197015625
-42.94,1712814197031250
-44.68,1712814197046875
-38.84,1712814197062500
-25.85,1712814197078125
-7.56,1712814197093750
13.26,1712814197109375
33.82,1712814197125000
52.06,1712814197140625
66.87,1712814197156250
77.99,1712814197171875
85.64,1712814197187500
90.37,1712814197203125
93.0,1712814197218750
94.59,1712814197234375
96.39,1712814197250000
99.43,1712814197265625
104.17,1712814197281250
110.17,1712814197296875
116.34,1712814197312500
121.28,1712814197328125
123.95,1712814197343750
123.92,1712814197359375
121.44,1712814197375000
117.11,1712814197390625
111.58,1712814197406250
105.29,1712814197421875
98.47,1712814197437500
91.28,1712814197453125
83.91,1712814197468750
76.66,1712814197484375
69.9,1712814197500000
63.93,1712814197515625
58.8,1712814197531250
54.2,1712814197546875
49.45,1712814197562500
43.56,1712814197578125
35.53,1712814197593750
24.57,1712814197609375
10.31,1712814197625000
-7.11,1712814197640625
-27.04,1712814197656250
-48.33,1712814197671875
-69.32,1712814197687500
-87.94,1712814197703125
-101.92,1712814197718750
-109.24,1712814197734375
-108.8,1712814197750000
-100.85,1712814197765625
-87.13,1712814197781250
-70.37,1712814197796875
-53.56,1712814197812500
-38.94,1712814197828125
-27.6,1712814197843750
-19.41,1712814197859375
-13.54,1712814197875000
-9.04,1712814197890625
-5.19,1712814197906250
-1.64,1712814197921875
1.88,1712814197937500
5.62,1712814197953125
9.88,1712814197968750
14.89,1712814197984375
20.65,1712814198000000
26.83,1712814198015625
32.84,1712814198031250
38.09,1712814198046875
42.12,1712814198062500
44.7,1712814198078125
45.8,1712814198093750
45.49,1712814198109375
43.88,1712814198125000
41.03,1712814198140625
37.03,1712814198156250
32.04,1712814198171875
26.28,1712814198187500
20.11,1712814198203125
13.91,1712814198218750
8.08,1712814198234375
2.87,1712814198250000
-1.67,1712814198265625
-5.69,1712814198281250
-9.61,1712814198296875
-13.94,1712814198312500
-19.11,1712814198328125
-25.33,1712814198343750
-32.35,1712814198359375
-39.38,1712814198375000
-45.28,1712814198390625
-48.67,1712814198406250
-48.29,1712814198421875
-43.24,1712814198437500
-33.09,1712814198453125
-17.96,1712814198468750
1.43,1712814198484375
23.82,1712814198500000
47.37,1712814198515625
69.77,1712814198531250
88.55,1712814198546875
101.6,1712814198562500
107.67,1712814198578125
106.78,1712814198593750
100.14,1712814198609375
89.69,1712814198625000
77.49,1712814198640625
65.12,1712814198656250
53.52,1712814198671875
43.1,1712814198687500
34.06,1712814198703125
26.63,1712814198718750
21.12,1712814198734375
17.55,1712814198750000
15.45,1712814198765625
13.63,1712814198781250
10.45,1712814198796875
4.32,1712814198812500
-5.77,1712814198828125
-19.86,1712814198843750
-36.97,1712814198859375
-55.48,1712814198875000
-73.6,1712814198890625
-89.93,1712814198906250
-103.78,1712814198921875
-115.23,1712814198937500
-124.93,1712814198953125
-133.84,1712814198968750
-142.8,1712814198984375
-152.14,1712814199000000
-161.51,1712814199015625
-169.76,1712814199031250
-175.11,1712814199046875
-175.39,1712814199062500
-168.69,1712814199078125
-154.2,1712814199093750
-132.92,1712814199109375
-108.03,1712814199125000
-84.48,1712814199140625
-67.64,1712814199156250
-61.5,1712814199171875
-67.09,1712814199187500
-81.9,1712814199203125
-100.58,1712814199218750
-116.67,1712814199234375
-124.76,1712814199250000
-121.82,1712814199265625
-107.48,1712814199281250
-83.47,1712814199296875
-52.54,1712814199312500
-17.82,1712814199328125
17.63,1712814199343750
50.78,1712814199359375
78.95,1712814199375000
100.21,1712814199390625
113.77,1712814199406250
120.12,1712814199421875
120.67,1712814199437500
117.17,1712814199453125
111.12,1712814199468750
103.38,1712814199484375
94.33,1712814199500000
84.04,1712814199515625
72.53,1712814199531250
59.91,1712814199546875
46.35,1712814199562500
32.15,1712814199578125
17.79,1712814199593750
3.83,1712814199609375
-9.24,1712814199625000
-21.17,1712814199640625
-32.06,1712814199656250
-42.14,1712814199671875
-51.43,1712814199687500
-59.39,1712814199703125
-64.87,1712814199718750
-66.38,1712814199734375
-62.7,1712814199750000
-53.47,1712814199765625
-39.5,1712814199781250
-22.57,1712814199796875
-4.94,1712814199812500
11.37,1712814199828125
25.03,1712814199843750
35.55,1712814199859375
43.01,1712814199875000
47.71,1712814199890625
49.88,1712814199906250
49.64,1712814199921875
47.27,1712814199937500
43.37,1712814199953125
38.85,1712814199968750
34.82,1712814199984375
32.08,1712814200000000
30.85,1712814200015625
30.66,1712814200031250
30.71,1712814200046875
30.19,1712814200062500
28.74,1712814200078125
26.51,1712814200093750
24.01,1712814200109375
21.76,1712814200125000
20.1,1712814200140625
18.97,1712814200156250
18.1,1712814200171875
17.16,1712814200187500
15.92,1712814200203125
14.24,1712814200218750
12.02,1712814200234375
9.12,1712814200250000
5.31,1712814200265625
0.5,1712814200281250
-5.14,1712814200296875
-11.0,1712814200312500
-16.01,1712814200328125
-18.87,1712814200343750
-18.38,1712814200359375
-13.89,1712814200375000
-5.5,1712814200390625
5.88,1712814200406250
18.78,1712814200421875
31.67,1712814200437500
43.33,1712814200453125
53.15,1712814200468750
61.09,1712814200484375
67.45,1712814200500000
72.56,1712814200515625
76.56,1712814200531250
79.38,1712814200546875
80.94,1712814200562500
81.31,1712814200578125
80.76,1712814200593750
79.58,1712814200609375
77.9,1712814200625000
75.51,1712814200640625
71.87,1712814200656250
66.38,1712814200671875
58.7,1712814200687500
48.93,1712814200703125
37.67,1712814200718750
25.7,1712814200734375
13.72,1712814200750000
2.11,1712814200765625
-9.04,1712814200781250
-19.75,1712814200796875
-29.96,1712814200812500
-39.42,1712814200828125
-47.75,1712814200843750
-54.61,1712814200859375
-59.84,1712814200875000
-63.49,1712814200890625
-65.83,1712814200906250
-67.2,1712814200921875
-67.98,1712814200937500
-68.53,1712814200953125
-69.09,1712814200968750
-69.75,1712814200984375
-70.27,1712814201000000
-70.14,1712814201015625
-68.63,1712814201031250
-65.18,1712814201046875
-59.71,1712814201062500
-52.78,1712814201078125
-45.65,1712814201093750
-39.89,1712814201109375
-36.95,1712814201125000
-37.88,1712814201140625
-43.07,1712814201156250
-52.26,1712814201171875
-64.5,1712814201187500
-78.08,1712814201203125
-90.53,1712814201218750
-99.06,1712814201234375
-101.39,1712814201250000
-96.59,1712814201265625
-85.63,1712814201281250
-71.1,1712814201296875
-56.34,1712814201312500
-44.27,1712814201328125
-36.46,1712814201343750
-32.9,1712814201359375
-32.32,1712814201375000
-32.85,1712814201390625
-32.65,1712814201406250
-30.29,1712814201421875
-24.91,1712814201437500
-16.52,1712814201453125
-6.1,1712814201468750
4.43,1712814201484375
12.61,1712814201500000
16.21,1712814201515625
14.06,1712814201531250
6.51,1712814201546875
-4.63,1712814201562500
-16.65,1712814201578125
-26.74,1712814201593750
-32.75,1712814201609375
-33.58,1712814201625000
-29.29,1712814201640625
-20.9,1712814201656250
-9.96,1712814201671875
1.82,1712814201687500
12.91,1712814201703125
22.16,1712814201718750
28.92,1712814201734375
32.95,1712814201750000
34.42,1712814201765625
33.75,1712814201781250
31.48,1712814201796875
28.28,1712814201812500
24.72,1712814201828125
21.36,1712814201843750
18.59,1712814201859375
16.62,1712814201875000
15.4,1712814201890625
14.69,1712814201906250
14.06,1712814201921875
13.15,1712814201937500
11.68,1712814201953125
9.62,1712814201968750
7.12,1712814201984375
4.44,1712814202000000
1.8,1712814202015625
-0.75,1712814202031250
-3.35,1712814202046875
-6.25,1712814202062500
-9.76,1712814202078125
-14.12,1712814202093750
-19.53,1712814202109375
-26.0,1712814202125000
-33.31,1712814202140625
-40.88,1712814202156250
-47.71,1712814202171875
-52.52,1712814202187500
-54.02,1712814202203125
-51.28,1712814202218750
-44.03,1712814202234375
-32.85,1712814202250000
-18.96,1712814202265625
-3.96,1712814202281250
10.66,1712814202296875
23.72,1712814202312500
34.61,1712814202328125
43.08,1712814202343750
49.17,1712814202359375
52.93,1712814202375000
54.42,1712814202390625
53.76,1712814202406250
51.22,1712814202421875
47.35,1712814202437500
42.9,1712814202453125
38.64,1712814202468750
35.13,1712814202484375
32.53,1712814202500000
30.62,1712814202515625
28.95,1712814202531250
27.11,1712814202546875
24.89,1712814202562500
22.36,1712814202578125
19.78,1712814202593750
17.38,1712814202609375
15.23,1712814202625000
13.16,1712814202640625
10.74,1712814202656250
7.52,1712814202671875
3.15,1712814202687500
-2.52,1712814202703125
-9.33,1712814202718750
-16.93,1712814202734375
-24.73,1712814202750000
-31.99,1712814202765625
-37.85,1712814202781250
-41.39,1712814202796875
-41.82,1712814202812500
-38.58,1712814202828125
-31.69,1712814202843750
-21.68,1712814202859375
-9.58,1712814202875000
3.32,1712814202890625
15.82,1712814202906250
27.01,1712814202921875
36.32,1712814202937500
43.54,1712814202953125
48.6,1712814202968750
51.52,1712814202984375
52.35,1712814203000000
51.27,1712814203015625
48.64,1712814203031250
45.03,1712814203046875
41.15,1712814203062500
37.66,1712814203078125
34.97,1712814203093750
33.16,1712814203109375
32.03,1712814203125000
31.22,1712814203140625
30.37,1712814203156250
29.25,1712814203171875
27.78,1712814203187500
26.0,1712814203203125
23.94,1712814203218750
21.6,1712814203234375
18.94,1712814203250000
15.89,1712814203265625
12.4,1712814203281250
8.41,1712814203296875
3.93,1712814203312500
-1.02,1712814203328125
-6.26,1712814203343750
-11.38,1712814203359375
-15.64,1712814203375000
-18.05,1712814203390625
-17.57,1712814203406250
-13.45,1712814203421875
-5.59,1712814203437500
5.37,1712814203453125
18.2,1712814203468750
31.41,1712814203484375
43.74,1712814203500000
54.37,1712814203515625
63.01,1712814203531250
69.67,1712814203546875
74.43,1712814203562500
77.34,1712814203578125
78.41,1712814203593750
77.84,1712814203609375
76.07,1712814203625000
73.69,1712814203640625
71.25,1712814203656250
68.99,1712814203671875
66.8,1712814203687500
64.3,1712814203703125
61.19,1712814203718750
57.39,1712814203734375
53.02,1712814203750000
48.15,1712814203765625
42.44,1712814203781250
35.17,1712814203796875
25.44,1712814203812500
12.7,1712814203828125
-2.88,1712814203843750
-20.35,1712814203859375
-38.27,1712814203875000
-55.31,1712814203890625
-70.75,1712814203906250
-84.46,1712814203921875
-96.76,1712814203937500
-107.92,1712814203953125
-117.83,1712814203968750
-125.85,1712814203984375
-131.01,1712814204000000
-132.31,1712814204015625
-129.06,1712814204031250
-121.07,1712814204046875
-108.84,1712814204062500
-93.44,1712814204078125
-76.37,1712814204093750
-59.21,1712814204109375
-43.26,1712814204125000
-29.38,1712814204140625
-17.85,1712814204156250
-8.52,1712814204171875
-0.9,1712814204187500
5.61,1712814204203125
11.64,1712814204218750
17.77,1712814204234375
24.33,1712814204250000
31.31,1712814204265625
38.2,1712814204281250
44.14,1712814204296875
48.16,1712814204312500
49.64,1712814204328125
48.53,1712814204343750
45.33,1712814204359375
40.95,1712814204375000
36.22,1712814204390625
31.65,1712814204406250
27.34,1712814204421875
23.13,1712814204437500
18.85,1712814204453125
14.39,1712814204468750
9.8,1712814204484375
5.18,1712814204500000
0.64,1712814204515625
-3.81,1712814204531250
-8.17,1712814204546875
-12.43,1712814204562500
-16.6,1712814204578125
-20.63,1712814204593750
-24.41,1712814204609375
-27.65,1712814204625000
-29.91,1712814204640625
-30.65,1712814204656250
-29.32,1712814204671875
-25.63,1712814204687500
-19.68,1712814204703125
-12.04,1712814204718750
-3.57,1712814204734375
4.7,1712814204750000
11.89,1712814204765625
17.43,1712814204781250
21.06,1712814204796875
22.82,1712814204812500
22.9,1712814204828125
21.64,1712814204843750
19.37,1712814204859375
16.53,1712814204875000
13.5,1712814204890625
10.67,1712814204906250
8.32,1712814204921875
6.6,1712814204937500
5.52,1712814204953125
5.08,1712814204968750
5.21,1712814204984375
5.83,1712814205000000
6.82,1712814205015625
8.02,1712814205031250
9.15,1712814205046875
9.91,1712814205062500
10.01,1712814205078125
9.24,1712814205093750
7.54,1712814205109375
5.02,1712814205125000
1.93,1712814205140625
-1.39,1712814205156250
-4.57,1712814205171875
-7.32,1712814205187500
-9.53,1712814205203125
-11.34,1712814205218750
-13.1,1712814205234375
-15.26,1712814205250000
-18.18,1712814205265625
-21.88,1712814205281250
-25.91,1712814205296875
-29.37,1712814205312500
-31.19,1712814205328125
-30.4,1712814205343750
-26.59,1712814205359375
-20.0,1712814205375000
-11.54,1712814205390625
-2.47,1712814205406250
5.96,1712814205421875
12.91,1712814205437500
18.06,1712814205453125
21.51,1712814205468750
23.61,1712814205484375
24.67,1712814205500000
24.88,1712814205515625
24.27,1712814205531250
22.88,1712814205546875
20.78,1712814205562500
18.14,1712814205578125
15.15,1712814205593750
12.03,1712814205609375
8.95,1712814205625000
6.13,1712814205640625
3.82,1712814205656250
2.25,1712814205671875
1.62,1712814205687500
1.87,1712814205703125
2.67,1712814205718750
3.55,1712814205734375
4.04,1712814205750000
3.86,1712814205765625
3.05,1712814205781250
1.85,1712814205796875
0.6,1712814205812500
-0.4,1712814205828125
-1.07,1712814205843750
-1.5,1712814205859375
-1.94,1712814205875000
-2.73,1712814205890625
-4.28,1712814205906250
-6.91,1712814205921875
-10.76,1712814205937500
-15.61,1712814205953125
-20.85,1712814205968750
-25.57,1712814205984375
-28.84,1712814206000000
-30.02,1712814206015625
-29.0,1712814206031250
-26.21,1712814206046875
-22.48,1712814206062500
-18.71,1712814206078125
-15.58,1712814206093750
-13.45,1712814206109375
-12.24,1712814206125000
-11.71,1712814206140625
-11.52,1712814206156250
-11.47,1712814206171875
-11.51,1712814206187500
-11.79,1712814206203125
-12.58,1712814206218750
-14.1,1712814206234375
-16.43,1712814206250000
-19.38,1712814206265625
-22.49,1712814206281250
-25.16,1712814206296875
-26.81,1712814206312500
-27.09,1712814206328125
-25.92,1712814206343750
-23.57,1712814206359375
-20.48,1712814206375000
-17.17,1712814206390625
-14.11,1712814206406250
-11.69,1712814206421875
-10.28,1712814206437500
-10.16,1712814206453125
-11.55,1712814206468750
-14.37,1712814206484375
-18.18,1712814206500000
-22.26,1712814206515625
-25.74,1712814206531250
-28.09,1712814206546875
-29.32,1712814206562500
-29.99,1712814206578125
-31.03,1712814206593750
-33.19,1712814206609375
-36.62,1712814206625000
-40.71,1712814206640625
-44.3,1712814206656250
-46.08,1712814206671875
-45.1,1712814206687500
-41.13,1712814206703125
-34.62,1712814206718750
-26.57,1712814206734375
-18.18,1712814206750000
-10.56,1712814206765625
-4.43,1712814206781250
-0.12,1712814206796875
2.45,1712814206812500
3.62,1712814206828125
3.88,1712814206843750
3.64,1712814206859375
3.19,1712814206875000
2.65,1712814206890625
2.0,1712814206906250
1.25,1712814206921875
0.41,1712814206937500
-0.42,1712814206953125
-1.14,1712814206968750
-1.69,1712814206984375
-2.12,1712814207000000
-2.48,1712814207015625
-2.82,1712814207031250
-3.11,1712814207046875
-3.28,1712814207062500
-3.38,1712814207078125
-3.61,1712814207093750
-4.37,1712814207109375
-6.08,1712814207125000
-8.99,1712814207140625
-13.0,1712814207156250
-17.66,1712814207171875
-22.29,1712814207187500
-26.29,1712814207203125
-29.42,1712814207218750
-31.78,1712814207234375
-33.89,1712814207250000
-36.4,1712814207265625
-39.82,1712814207281250
-44.31,1712814207296875
-49.54,1712814207312500
-54.7,1712814207328125
-58.69,1712814207343750
-60.46,1712814207359375
-59.28,1712814207375000
-54.98,1712814207390625
-47.95,1712814207406250
-39.0,1712814207421875
-29.09,1712814207437500
-19.16,1712814207453125
-9.93,1712814207468750
-1.93,1712814207484375
4.48,1712814207500000
9.17,1712814207515625
12.17,1712814207531250
13.75,1712814207546875
14.31,1712814207562500
14.34,1712814207578125
14.22,1712814207593750
14.23,1712814207609375
14.49,1712814207625000
15.03,1712814207640625
15.86,1712814207656250
16.93,1712814207671875
18.2,1712814207687500
19.6,1712814207703125
21.04,1712814207718750
22.35,1712814207734375
23.37,1712814207750000
23.91,1712814207765625
23.7,1712814207781250
22.54,1712814207796875
20.31,1712814207812500
17.03,1712814207828125
12.96,1712814207843750
8.55,1712814207859375
4.26,1712814207875000
0.41,1712814207890625
-3.03,1712814207906250
-6.48,1712814207921875
-10.58,1712814207937500
-15.92,1712814207953125
-22.72,1712814207968750
-30.58,1712814207984375
-38.49,1712814208000000
-45.05,1712814208015625
-48.77,1712814208031250
-48.47,1712814208046875
-43.64,1712814208062500
-34.5,1712814208078125
-21.93,1712814208093750
-7.29,1712814208109375
7.89,1712814208125000
22.28,1712814208140625
34.88,1712814208156250
45.18,1712814208171875
53.11,1712814208187500
58.86,1712814208203125
62.83,1712814208218750
65.44,1712814208234375
67.17,1712814208250000
68.45,1712814208265625
69.49,1712814208281250
70.24,1712814208296875
70.38,1712814208312500
69.42,1712814208328125
66.96,1712814208343750
62.88,1712814208359375
57.45,1712814208375000
51.12,1712814208390625
44.4,1712814208406250
37.64,1712814208421875
31.04,1712814208437500
24.76,1712814208453125
18.95,1712814208468750
13.8,1712814208484375
9.39,1712814208500000
5.65,1712814208515625
2.25,1712814208531250
-1.21,1712814208546875
-5.12,1712814208562500
-9.83,1712814208578125
-15.55,1712814208593750
-22.36,1712814208609375
-30.14,1712814208625000
-38.37,1712814208640625
-46.14,1712814208656250
-52.15,1712814208671875
-55.14,1712814208687500
-54.26,1712814208703125
-49.44,1712814208718750
-41.42,1712814208734375
-31.6,1712814208750000
-21.61,1712814208765625
-12.83,1712814208781250
-6.17,1712814208796875
-2.03,1712814208812500
-0.44,1712814208828125
-1.25,1712814208843750
-4.26,1712814208859375
-9.32,1712814208875000
-16.21,1712814208890625
-24.58,1712814208906250
-33.96,1712814208921875
-43.7,1712814208937500
-53.26,1712814208953125
-62.25,1712814208968750
-70.59,1712814208984375
-78.43,1712814209000000
-86.02,1712814209015625
-93.55,1712814209031250
-101.1,1712814209046875
-108.65,1712814209062500
-116.08,1712814209078125
-123.16,1712814209093750
-129.31,1712814209109375
-133.5,1712814209125000
-134.32,1712814209140625
-130.55,1712814209156250
-121.73,1712814209171875
-108.71,1712814209187500
-93.52,1712814209203125
-78.84,1712814209218750
-67.0,1712814209234375
-59.31,1712814209250000
-55.86,1712814209265625
-55.8,1712814209281250
-57.82,1712814209296875
-60.24,1712814209312500
-61.04,1712814209328125
-57.66,1712814209343750
-47.22,1712814209359375
-27.17,1712814209375000
3.61,1712814209390625
44.13,1712814209406250
90.98,1712814209421875
139.0,1712814209437500
182.32,1712814209453125
215.84,1712814209468750
236.36,1712814209484375
243.28,1712814209500000
238.59,1712814209515625
226.1,1712814209531250
210.26,1712814209546875
194.93,1712814209562500
182.58,1712814209578125
174.16,1712814209593750
169.45,1712814209609375
167.69,1712814209625000
168.1,1712814209640625
169.85,1712814209656250
172.02,1712814209671875
173.54,1712814209687500
173.27,1712814209703125
170.32,1712814209718750
164.28,1712814209734375
155.31,1712814209750000
143.71,1712814209765625
129.45,1712814209781250
111.86,1712814209796875
89.8,1712814209812500
62.38,1712814209828125
29.67,1712814209843750
-6.73,1712814209859375
-44.01,1712814209875000
-79.01,1712814209890625
-109.38,1712814209906250
-134.19,1712814209921875
-153.98,1712814209937500
-169.84,1712814209953125
-182.47,1712814209968750
-191.45,1712814209984375
-195.41,1712814210000000
-192.84,1712814210015625
-182.93,1712814210031250
-165.9,1712814210046875
-142.77,1712814210062500
-114.76,1712814210078125
-82.83,1712814210093750
-47.86,1712814210109375
-11.18,1712814210125000
25.03,1712814210140625
57.73,1712814210156250
83.87,1712814210171875
101.54,1712814210187500
110.82,1712814210203125
113.93,1712814210218750
114.4,1712814210234375
115.86,1712814210250000
120.89,1712814210265625
130.53,1712814210281250
144.31,1712814210296875
160.68,1712814210312500
177.45,1712814210328125
192.07,1712814210343750
201.88,1712814210359375
204.55,1712814210375000
198.68,1712814210390625
184.21,1712814210406250
162.58,1712814210421875
136.14,1712814210437500
107.29,1712814210453125
77.73,1712814210468750
48.23,1712814210484375
19.16,1712814210500000
-8.74,1712814210515625
-34.04,1712814210531250
-55.02,1712814210546875
-70.51,1712814210562500
-80.9,1712814210578125
-88.22,1712814210593750
-95.29,1712814210609375
-104.39,1712814210625000
-116.01,1712814210640625
-128.71,1712814210656250
-139.79,1712814210671875
-146.76,1712814210687500
-148.38,1712814210703125
-145.12,1712814210718750
-138.47,1712814210734375
-130.06,1712814210750000
-120.83,1712814210765625
-110.85,1712814210781250
-99.67,1712814210796875
-87.04,1712814210812500
-73.39,1712814210828125
-59.91,1712814210843750
-48.23,1712814210859375
-39.73,1712814210875000
-34.91,1712814210890625
-33.27,1712814210906250
-33.4,1712814210921875
-33.56,1712814210937500
-32.2,1712814210953125
-28.34,1712814210968750
-21.73,1712814210984375
-12.77,1712814211000000
-2.35,1712814211015625
8.29,1712814211031250
17.77,1712814211046875
24.79,1712814211062500
28.41,1712814211078125
28.3,1712814211093750
24.83,1712814211109375
19.0,1712814211125000
12.04,1712814211140625
5.21,1712814211156250
-0.62,1712814211171875
-5.02,1712814211187500
-8.04,1712814211203125
-10.07,1712814211218750
-11.77,1712814211234375
-13.89,1712814211250000
-17.08,1712814211265625
-21.78,1712814211281250
-27.92,1712814211296875
-34.84,1712814211312500
-41.25,1712814211328125
-45.4,1712814211343750
-45.62,1712814211359375
-40.76,1712814211375000
-30.71,1712814211390625
-16.42,1712814211406250
0.29,1712814211421875
17.35,1712814211437500
32.96,1712814211453125
46.04,1712814211468750
56.2,1712814211484375
63.64,1712814211500000
68.76,1712814211515625
71.93,1712814211531250
73.37,1712814211546875
73.2,1712814211562500
71.47,1712814211578125
68.35,1712814211593750
64.13,1712814211609375
59.24,1712814211625000
54.17,1712814211640625
49.46,1712814211656250
45.46,1712814211671875
42.31,1712814211687500
39.83,1712814211703125
37.65,1712814211718750
35.28,1712814211734375
32.25,1712814211750000
28.34,1712814211765625
23.52,1712814211781250
17.98,1712814211796875
11.99,1712814211812500
5.85,1712814211828125
-0.21,1712814211843750
-6.0,1712814211859375
-11.44,1712814211875000
-16.51,1712814211890625
-21.38,1712814211906250
-26.41,1712814211921875
-32.05,1712814211937500
-38.59,1712814211953125
-45.92,1712814211968750
-53.27,1712814211984375
-59.27,1712814212000000
-62.32,1712814212015625
-61.16,1712814212031250
-55.34,1712814212046875
-45.34,1712814212062500
-32.39,1712814212078125
-18.0,1712814212093750
-3.53,1712814212109375
10.03,1712814212125000
21.97,1712814212140625
31.72,1712814212156250
38.82,1712814212171875
42.96,1712814212187500
44.34,1712814212203125
43.72,1712814212218750
42.32,1712814212234375
41.36,1712814212250000
41.56,1712814212265625
42.81,1712814212281250
44.26,1712814212296875
44.72,1712814212312500
43.19,1712814212328125
39.37,1712814212343750
33.72,1712814212359375
27.3,1712814212375000
21.45,1712814212390625
17.24,1712814212406250
15.23,1712814212421875
15.23,1712814212437500
16.48,1712814212453125
17.83,1712814212468750
18.18,1712814212484375
16.78,1712814212500000
13.41,1712814212515625
8.28,1712814212531250
1.9,1712814212546875
-5.18,1712814212562500
-12.59,1712814212578125
-20.1,1712814212593750
-27.62,1712814212609375
-35.04,1712814212625000
-42.16,1712814212640625
-48.6,1712814212656250
-53.79,1712814212671875
-57.01,1712814212687500
-57.56,1712814212703125
-54.95,1712814212718750
-49.04,1712814212734375
-40.22,1712814212750000
-29.34,1712814212765625
-17.47,1712814212781250
-5.71,1712814212796875
5.1,1712814212812500
14.42,1712814212828125
22.05,1712814212843750
27.98,1712814212859375
32.3,1712814212875000
35.09,1712814212890625
36.44,1712814212906250
36.49,1712814212921875
35.5,1712814212937500
33.86,1712814212953125
31.96,1712814212968750
30.12,1712814212984375
28.48,1712814213000000
27.03,1712814213015625
25.61,1712814213031250
24.13,1712814213046875
22.55,1712814213062500
20.98,1712814213078125
19.52,1712814213093750
18.2,1712814213109375
16.88,1712814213125000
15.28,1712814213140625
13.04,1712814213156250
9.9,1712814213171875
5.85,1712814213187500
1.13,1712814213203125
-3.77,1712814213218750
-8.25,1712814213234375
-11.9,1712814213250000
-14.7,1712814213265625
-17.09,1712814213281250
-19.86,1712814213296875
-23.89,1712814213312500
-29.68,1712814213328125
-37.02,1712814213343750
-44.98,1712814213359375
-52.06,1712814213375000
-56.65,1712814213390625
-57.58,1712814213406250
-54.43,1712814213421875
-47.61,1712814213437500
-38.17,1712814213453125
-27.4,1712814213468750
-16.45,1712814213484375
-6.08,1712814213500000
3.39,1712814213515625
11.9,1712814213531250
19.45,1712814213546875
25.89,1712814213562500
30.9,1712814213578125
34.19,1712814213593750
35.63,1712814213609375
35.48,1712814213625000
34.23,1712814213640625
32.53,1712814213656250
30.83,1712814213671875
29.35,1712814213687500
28.04,1712814213703125
26.74,1712814213718750
25.35,1712814213734375
23.93,1712814213750000
22.65,1712814213765625
21.73,1712814213781250
21.24,1712814213796875
21.0,1712814213812500
20.7,1712814213828125
19.89,1712814213843750
18.2,1712814213859375
15.49,1712814213875000
11.8,1712814213890625
7.4,1712814213906250
2.62,1712814213921875
-2.2,1712814213937500
-6.83,1712814213953125
-11.16,1712814213968750
-15.13,1712814213984375
-18.83,1712814214000000
-22.52,1712814214015625
-26.65,1712814214031250
-31.68,1712814214046875
-37.88,1712814214062500
-45.05,1712814214078125
-52.36,1712814214093750
-58.5,1712814214109375
-62.0,1712814214125000
-61.76,1712814214140625
-57.33,1712814214156250
-49.03,1712814214171875
-37.85,1712814214187500
-25.01,1712814214203125
-11.76,1712814214218750
0.85,1712814214234375
12.06,1712814214250000
21.34,1712814214265625
28.33,1712814214281250
32.89,1712814214296875
35.09,1712814214312500
35.21,1712814214328125
33.75,1712814214343750
31.35,1712814214359375
28.63,1712814214375000
26.13,1712814214390625
24.12,1712814214406250
22.58,1712814214421875
21.27,1712814214437500
19.87,1712814214453125
18.18,1712814214468750
16.26,1712814214484375
14.37,1712814214500000
12.88,1712814214515625
11.97,1712814214531250
11.53,1712814214546875
11.13,1712814214562500
10.21,1712814214578125
8.31,1712814214593750
5.29,1712814214609375
1.35,1712814214625000
-3.05,1712814214640625
-7.43,1712814214656250
-11.43,1712814214671875
-14.94,1712814214687500
-18.07,1712814214703125
-21.12,1712814214718750
-24.43,1712814214734375
-28.38,1712814214750000
-33.2,1712814214765625
-38.96,1712814214781250
-45.37,1712814214796875
-51.67,1712814214812500
-56.75,1712814214828125
-59.28,1712814214843750
-58.24,1712814214859375
-53.17,1712814214875000
-44.46,1712814214890625
-33.24,1712814214906250
-20.94,1712814214921875
-8.95,1712814214937500
1.71,1712814214953125
10.5,1712814214968750
17.25,1712814214984375
21.95,1712814215000000
24.7,1712814215015625
25.71,1712814215031250
25.3,1712814215046875
23.91,1712814215062500
22.02,1712814215078125
20.04,1712814215093750
18.24,1712814215109375
16.71,1712814215125000
15.45,1712814215140625
14.35,1712814215156250
13.32,1712814215171875
12.32,1712814215187500
11.35,1712814215203125
10.45,1712814215218750
9.58,1712814215234375
8.53,1712814215250000
6.99,1712814215265625
4.59,1712814215281250
1.14,1712814215296875
-3.24,1712814215312500
-8.14,1712814215328125
-12.98,1712814215343750
-17.27,1712814215359375
-20.86,1712814215375000
-24.01,1712814215390625
-27.3,1712814215406250
-31.35,1712814215421875
-36.51,1712814215437500
-42.69,1712814215453125
-49.19,1712814215468750
-54.76,1712814215484375
-58.01,1712814215500000
-57.75,1712814215515625
-53.43,1712814215531250
-45.29,1712814215546875
-34.4,1712814215562500
-22.19,1712814215578125
-10.13,1712814215593750
0.71,1712814215609375
9.72,1712814215625000
16.71,1712814215640625
21.76,1712814215656250
25.03,1712814215671875
26.69,1712814215687500
26.94,1712814215703125
26.07,1712814215718750
24.38,1712814215734375
22.2,1712814215750000
19.8,1712814215765625
17.42,1712814215781250
15.24,1712814215796875
13.35,1712814215812500
11.86,1712814215828125
10.74,1712814215843750
9.84,1712814215859375
8.95,1712814215875000
7.76,1712814215890625
5.97,1712814215906250
3.42,1712814215921875
0.09,1712814215937500
-3.93,1712814215953125
-8.4,1712814215968750
-13.11,1712814215984375
-17.78,1712814216000000
-22.25,1712814216015625
-26.46,1712814216031250
-30.45,1712814216046875
-34.44,1712814216062500
-38.78,1712814216078125
-43.85,1712814216093750
-49.84,1712814216109375
-56.51,1712814216125000
-63.08,1712814216140625
-68.29,1712814216156250
-70.74,1712814216171875
-69.35,1712814216187500
-63.69,1712814216203125
-54.2,1712814216218750
-41.96,1712814216234375
-28.4,1712814216250000
-14.87,1712814216265625
-2.44,1712814216281250
8.17,1712814216296875
16.56,1712814216312500
22.56,1712814216328125
26.17,1712814216343750
27.6,1712814216359375
27.25,1712814216375000
25.66,1712814216390625
23.4,1712814216406250
20.96,1712814216421875
18.71,1712814216437500
16.87,1712814216453125
15.51,1712814216468750
14.53,1712814216484375
13.71,1712814216500000
12.81,1712814216515625
11.64,1712814216531250
10.11,1712814216546875
8.29,1712814216562500
6.34,1712814216578125
4.35,1712814216593750
2.36,1712814216609375
0.37,1712814216625000
-1.7,1712814216640625
-3.93,1712814216656250
-6.34,1712814216671875
-8.99,1712814216687500
-11.99,1712814216703125
-15.57,1712814216718750
-20.13,1712814216734375
-26.08,1712814216750000
-33.74,1712814216765625
-43.0,1712814216781250
-53.11,1712814216796875
-62.68,1712814216812500
-69.9,1712814216828125
-73.1,1712814216843750
-71.24,1712814216859375
-64.26,1712814216875000
-53.09,1712814216890625
-39.24,1712814216906250
-24.39,1712814216921875
-9.89,1712814216937500
3.3,1712814216953125
14.64,1712814216968750
23.9,1712814216984375
30.97,1712814217000000
35.82,1712814217015625
38.48,1712814217031250
39.18,1712814217046875
38.24,1712814217062500
36.19,1712814217078125
33.61,1712814217093750
31.09,1712814217109375
29.01,1712814217125000
27.57,1712814217140625
26.68,1712814217156250
26.21,1712814217171875
26.04,1712814217187500
26.12,1712814217203125
26.46,1712814217218750
26.91,1712814217234375
27.17,1712814217250000
26.77,1712814217265625
25.25,1712814217281250
22.36,1712814217296875
18.15,1712814217312500
12.99,1712814217328125
7.43,1712814217343750
1.96,1712814217359375
-3.12,1712814217375000
-7.83,1712814217390625
-12.46,1712814217406250
-17.57,1712814217421875
-23.67,1712814217437500
-31.1,1712814217453125
-39.7,1712814217468750
-48.74,1712814217484375
-56.86,1712814217500000
-62.43,1712814217515625
-63.94,1712814217531250
-60.49,1712814217546875
-52.15,1712814217562500
-39.92,1712814217578125
-25.44,1712814217593750
-10.49,1712814217609375
3.45,1712814217625000
15.47,1712814217640625
25.18,1712814217656250
32.5,1712814217671875
37.56,1712814217687500
40.49,1712814217703125
41.51,1712814217718750
41.0,1712814217734375
39.52,1712814217750000
37.64,1712814217765625
35.86,1712814217781250
34.46,1712814217796875
33.48,1712814217812500
32.77,1712814217828125
32.19,1712814217843750
31.71,1712814217859375
31.37,1712814217875000
31.23,1712814217890625
31.21,1712814217906250
31.08,1712814217921875
30.47,1712814217937500
29.03,1712814217953125
26.61,1712814217968750
23.28,1712814217984375
19.35,1712814218000000
15.13,1712814218015625
10.81,1712814218031250
6.34,1712814218046875
1.51,1712814218062500
-3.97,1712814218078125
-10.29,1712814218093750
-17.49,1712814218109375
-25.45,1712814218125000
-33.82,1712814218140625
-42.0,1712814218156250
-49.15,1712814218171875
-54.09,1712814218187500
-55.64,1712814218203125
-52.84,1712814218218750
-45.4,1712814218234375
-33.95,1712814218250000
-19.92,1712814218265625
-5.09,1712814218281250
8.9,1712814218296875
21.01,1712814218312500
30.93,1712814218328125
38.77,1712814218343750
44.82,1712814218359375
49.14,1712814218375000
51.61,1712814218390625
52.03,1712814218406250
50.38,1712814218421875
47.0,1712814218437500
42.53,1712814218453125
37.78,1712814218468750
33.57,1712814218484375
30.57,1712814218500000
29.18,1712814218515625
29.5,1712814218531250
31.19,1712814218546875
33.55,1712814218562500
35.56,1712814218578125
36.15,1712814218593750
34.48,1712814218609375
30.13,1712814218625000
23.23,1712814218640625
14.53,1712814218656250
5.11,1712814218671875
-3.78,1712814218687500
-11.03,1712814218703125
-15.99,1712814218718750
-18.6,1712814218734375
-19.5,1712814218750000
-19.9,1712814218765625
-21.28,1712814218781250
-24.85,1712814218796875
-31.14,1712814218812500
-39.56,1712814218828125
-48.48,1712814218843750
-55.62,1712814218859375
-58.8,1712814218875000
-56.66,1712814218890625
-49.07,1712814218906250
-37.21,1712814218921875
-22.96,1712814218937500
-8.34,1712814218953125
5.11,1712814218968750
16.48,1712814218984375
25.42,1712814219000000
31.88,1712814219015625
35.9,1712814219031250
37.63,1712814219046875
37.4,1712814219062500
35.78,1712814219078125
33.54,1712814219093750
31.44,1712814219109375
30.03,1712814219125000
29.46,1712814219140625
29.62,1712814219156250
30.16,1712814219171875
30.75,1712814219187500
31.17,1712814219203125
31.3,1712814219218750
31.13,1712814219234375
30.69,1712814219250000
29.96,1712814219265625
28.78,1712814219281250
26.87,1712814219296875
23.77,1712814219312500
19.14,1712814219328125
12.86,1712814219343750
5.27,1712814219359375
-2.9,1712814219375000
-10.77,1712814219390625
-17.7,1712814219406250
-23.57,1712814219421875
-28.83,1712814219437500
-34.22,1712814219453125
-40.26,1712814219468750
-46.85,1712814219484375
-53.14,1712814219500000
-57.69,1712814219515625
-59.04,1712814219531250
-56.24,1712814219546875
-49.17,1712814219562500
-38.55,1712814219578125
-25.75,1712814219593750
-12.29,1712814219609375
0.49,1712814219625000
11.63,1712814219640625
20.61,1712814219656250
27.12,1712814219671875
31.07,1712814219687500
32.48,1712814219703125
31.61,1712814219718750
28.92,1712814219734375
25.12,1712814219750000
21.04,1712814219765625
17.47,1712814219781250
15.01,1712814219796875
13.91,1712814219812500
14.05,1712814219828125
15.09,1712814219843750
16.49,1712814219859375
17.71,1712814219875000
18.34,1712814219890625
18.07,1712814219906250
16.75,1712814219921875
14.3,1712814219937500
10.79,1712814219953125
6.41,1712814219968750
1.46,1712814219984375
-3.65,1712814220000000
-8.53,1712814220015625
-12.97,1712814220031250
-17.02,1712814220046875
-21.0,1712814220062500
-25.42,1712814220078125
-30.77,1712814220093750
-37.33,1712814220109375
-45.03,1712814220125000
-53.32,1712814220140625
-61.21,1712814220156250
-67.37,1712814220171875
-70.4,1712814220187500
-69.26,1712814220203125
-63.59,1712814220218750
-53.85,1712814220234375
-41.26,1712814220250000
-27.39,1712814220265625
-13.66,1712814220281250
-1.09,1712814220296875
9.86,1712814220312500
19.07,1712814220328125
26.56,1712814220343750
32.25,1712814220359375
36.01,1712814220375000
37.72,1712814220390625
37.55,1712814220406250
35.97,1712814220421875
33.72,1712814220437500
31.6,1712814220453125
30.18,1712814220468750
29.66,1712814220484375
29.78,1712814220500000
30.07,1712814220515625
30.03,1712814220531250
29.48,1712814220546875
28.54,1712814220562500
27.51,1712814220578125
26.68,1712814220593750
26.04,1712814220609375
25.2,1712814220625000
23.62,1712814220640625
20.84,1712814220656250
16.72,1712814220671875
11.59,1712814220687500
6.04,1712814220703125
0.7,1712814220718750
-3.99,1712814220734375
-8.01,1712814220750000
-11.66,1712814220765625
-15.48,1712814220781250
-20.04,1712814220796875
-25.8,1712814220812500
-32.93,1712814220828125
-41.22,1712814220843750
-50.05,1712814220859375
-58.38,1712814220875000
-64.93,1712814220890625
-68.45,1712814220906250
-68.02,1712814220921875
-63.32,1712814220937500
-54.72,1712814220953125
-43.19,1712814220968750
-30.0,1712814220984375
-16.44,1712814221000000
-3.52,1712814221015625
8.06,1712814221031250
17.91,1712814221046875
25.81,1712814221062500
31.62,1712814221078125
35.37,1712814221093750
37.24,1712814221109375
37.59,1712814221125000
36.92,1712814221140625
35.73,1712814221156250
34.44,1712814221171875
33.27,1712814221187500
32.28,1712814221203125
31.45,1712814221218750
30.73,1712814221234375
30.1,1712814221250000
29.53,1712814221265625
29.04,1712814221281250
28.61,1712814221296875
28.21,1712814221312500
27.74,1712814221328125
27.05,1712814221343750
25.89,1712814221359375
24.03,1712814221375000
21.36,1712814221390625
17.9,1712814221406250
13.8,1712814221421875
9.32,1712814221437500
4.6,1712814221453125
-0.27,1712814221468750
-5.27,1712814221484375
-10.34,1712814221500000
-15.38,1712814221515625
-20.24,1712814221531250
-24.79,1712814221546875
-29.1,1712814221562500
-33.39,1712814221578125
-38.06,1712814221593750
-43.52,1712814221609375
-50.06,1712814221625000
-57.69,1712814221640625
-66.0,1712814221656250
-74.07,1712814221671875
-80.59,1712814221687500
-84.04,1712814221703125
-83.19,1712814221718750
-77.46,1712814221734375
-67.15,1712814221750000
-53.44,1712814221765625
-38.04,1712814221781250
-22.72,1712814221796875
-8.81,1712814221812500
2.96,1712814221828125
12.46,1712814221843750
19.95,1712814221859375
25.73,1712814221875000
29.98,1712814221890625
32.72,1712814221906250
33.98,1712814221921875
33.89,1712814221937500
32.85,1712814221953125
31.37,1712814221968750
29.99,1712814221984375
29.08,1712814222000000
28.72,1712814222015625
28.78,1712814222031250
29.02,1712814222046875
29.2,1712814222062500
29.17,1712814222078125
28.85,1712814222093750
28.18,1712814222109375
27.09,1712814222125000
25.49,1712814222140625
23.37,1712814222156250
20.74,1712814222171875
17.68,1712814222187500
14.33,1712814222203125
10.76,1712814222218750
7.03,1712814222234375
3.15,1712814222250000
-0.88,1712814222265625
-5.03,1712814222281250
-9.28,1712814222296875
-13.52,1712814222312500
-17.72,1712814222328125
-21.85,1712814222343750
-25.98,1712814222359375
-30.3,1712814222375000
-35.13,1712814222390625
-40.79,1712814222406250
-47.45,1712814222421875
-54.92,1712814222437500
-62.49,1712814222453125
-68.98,1712814222468750
-72.9,1712814222484375
-72.9,1712814222500000
-68.24,1712814222515625
-59.07,1712814222531250
-46.38,1712814222546875
-31.71,1712814222562500
-16.68,1712814222578125
-2.55,1712814222593750
9.9,1712814222609375
20.38,1712814222625000
28.81,1712814222640625
35.17,1712814222656250
39.41,1712814222671875
41.56,1712814222687500
41.85,1712814222703125
40.75,1712814222718750
38.95,1712814222734375
37.12,1712814222750000
35.73,1712814222765625
34.88,1712814222781250
34.4,1712814222796875
33.94,1712814222812500
33.23,1712814222828125
32.2,1712814222843750
30.97,1712814222859375
29.73,1712814222875000
28.59,1712814222890625
27.4,1712814222906250
25.84,1712814222921875
23.53,1712814222937500
20.2,1712814222953125
15.87,1712814222968750
10.84,1712814222984375
5.57,1712814223000000
0.54,1712814223015625
-3.96,1712814223031250
-7.9,1712814223046875
-11.55,1712814223062500
-15.34,1712814223078125
-19.76,1712814223093750
-25.18,1712814223109375
-31.76,1712814223125000
-39.33,1712814223140625
-47.36,1712814223156250
-54.94,1712814223171875
-60.92,1712814223187500
-64.06,1712814223203125
-63.34,1712814223218750
-58.25,1712814223234375
-48.99,1712814223250000
-36.45,1712814223265625
-22.02,1712814223281250
-7.21,1712814223296875
6.68,1712814223312500
18.78,1712814223328125
28.66,1712814223343750
36.18,1712814223359375
41.31,1712814223375000
44.11,1712814223390625
44.75,1712814223406250
43.63,1712814223421875
41.39,1712814223437500
38.87,1712814223453125
36.84,1712814223468750
35.82,1712814223484375
35.84,1712814223500000
36.55,1712814223515625
37.36,1712814223531250
37.74,1712814223546875
37.42,1712814223562500
36.45,1712814223578125
35.1,1712814223593750
33.64,1712814223609375
32.13,1712814223625000
30.43,1712814223640625
28.19,1712814223656250
25.1,1712814223671875
21.0,1712814223687500
15.99,1712814223703125
10.4,1712814223718750
4.62,1712814223734375
-0.98,1712814223750000
-6.24,1712814223765625
-11.16,1712814223781250
-15.91,1712814223796875
-20.82,1712814223812500
-26.26,1712814223828125
-32.63,1712814223843750
-40.17,1712814223859375
-48.75,1712814223875000
-57.69,1712814223890625
-65.72,1712814223906250
-71.26,1712814223921875
-72.78,1712814223937500
-69.31,1712814223953125
-60.74,1712814223968750
-47.89,1712814223984375
-32.21,1712814224000000
-15.37,1712814224015625
1.07,1712814224031250
15.98,1712814224046875
28.61,1712814224062500
38.61,1712814224078125
45.82,1712814224093750
50.25,1712814224109375
52.11,1712814224125000
51.78,1712814224140625
49.92,1712814224156250
47.29,1712814224171875
44.68,1712814224187500
42.68,1712814224203125
41.5,1712814224218750
40.96,1712814224234375
40.63,1712814224250000
40.06,1712814224265625
39.03,1712814224281250
37.6,1712814224296875
36.01,1712814224312500
34.51,1712814224328125
33.12,1712814224343750
31.62,1712814224359375
29.58,1712814224375000
26.57,1712814224390625
22.39,1712814224406250
17.12,1712814224421875
11.16,1712814224437500
5.06,1712814224453125
-0.71,1712814224468750
-5.9,1712814224484375
-10.65,1712814224500000
-15.35,1712814224515625
-20.55,1712814224531250
-26.77,1712814224546875
-34.33,1712814224562500
-43.12,1712814224578125
-52.61,1712814224593750
-61.72,1712814224609375
-69.0,1712814224625000
-72.85,1712814224640625
-72.02,1712814224656250
-66.02,1712814224671875
-55.37,1712814224687500
-41.43,1712814224703125
-26.02,1712814224718750
-10.82,1712814224734375
3.04,1712814224750000
15.06,1712814224765625
25.16,1712814224781250
33.33,1712814224796875
39.44,1712814224812500
43.3,1712814224828125
44.79,1712814224843750
44.08,1712814224859375
41.73,1712814224875000
38.53,1712814224890625
35.29,1712814224906250
32.57,1712814224921875
30.57,1712814224937500
29.18,1712814224953125
28.05,1712814224968750
26.9,1712814224984375
25.6,1712814225000000
24.16,1712814225015625
22.68,1712814225031250
21.09,1712814225046875
19.06,1712814225062500
16.18,1712814225078125
12.12,1712814225093750
6.81,1712814225109375
0.57,1712814225125000
-6.06,1712814225140625
-12.53,1712814225156250
-18.55,1712814225171875
-24.2,1712814225187500
-29.9,1712814225203125
-36.28,1712814225218750
-43.95,1712814225234375
-53.13,1712814225250000
-63.39,1712814225265625
-73.51,1712814225281250
-81.66,1712814225296875
-85.83,1712814225312500
-84.5,1712814225328125
-77.12,1712814225343750
-64.33,1712814225359375
-47.8,1712814225375000
-29.72,1712814225390625
-12.43,1712814225406250
2.01,1712814225421875
12.04,1712814225437500
16.88,1712814225453125
16.74,1712814225468750
12.76,1712814225484375
6.81,1712814225500000
0.82,1712814225515625
-3.91,1712814225531250
-7.18,1712814225546875
-9.82,1712814225562500
-13.14,1712814225578125
-18.28,1712814225593750
-25.65,1712814225609375
-34.84,1712814225625000
-44.96,1712814225640625
-55.13,1712814225656250
-64.8,1712814225671875
-73.67,1712814225687500
-81.44,1712814225703125
-87.46,1712814225718750
-90.73,1712814225734375
-90.11,1712814225750000
-84.93,1712814225765625
-75.28,1712814225781250
-61.95,1712814225796875
-46.11,1712814225812500
-28.75,1712814225828125
-10.4,1712814225843750
8.79,1712814225859375
28.77,1712814225875000
49.22,1712814225890625
69.37,1712814225906250
88.06,1712814225921875
104.06,1712814225937500
116.45,1712814225953125
124.96,1712814225968750
130.12,1712814225984375
133.29,1712814226000000
136.23,1712814226015625
140.82,1712814226031250
148.51,1712814226046875
160.14,1712814226062500
175.97,1712814226078125
195.66,1712814226093750
218.14,1712814226109375
241.23,1712814226125000
261.32,1712814226140625
273.73,1712814226156250
273.8,1712814226171875
258.46,1712814226187500
227.38,1712814226203125
183.28,1712814226218750
131.03,1712814226234375
76.17,1712814226250000
23.54,1712814226265625
-23.34,1712814226281250
-62.25,1712814226296875
-92.12,1712814226312500
-112.87,1712814226328125
-125.27,1712814226343750
-130.8,1712814226359375
-131.29,1712814226375000
-128.16,1712814226390625
-122.1,1712814226406250
-113.16,1712814226421875
-101.18,1712814226437500
-86.44,1712814226453125
-69.99,1712814226468750
-53.33,1712814226484375
-38.03,1712814226500000
-25.27,1712814226515625
-15.67,1712814226531250
-9.61,1712814226546875
-7.7,1712814226562500
-10.76,1712814226578125
-19.51,1712814226593750
-33.76,1712814226609375
-51.95,1712814226625000
-71.44,1712814226640625
-89.61,1712814226656250
-104.93,1712814226671875
-117.25,1712814226687500
-127.22,1712814226703125
-134.89,1712814226718750
-138.76,1712814226734375
-135.8,1712814226750000
-122.96,1712814226765625
-99.0,1712814226781250
-65.68,1712814226796875
-27.41,1712814226812500
10.44,1712814226828125
43.71,1712814226843750
70.81,1712814226859375
92.6,1712814226875000
111.14,1712814226890625
128.25,1712814226906250
144.5,1712814226921875
159.25,1712814226937500
171.47,1712814226953125
180.59,1712814226968750
187.21,1712814226984375
193.09,1712814227000000
200.14,1712814227015625
209.35,1712814227031250
219.8,1712814227046875
228.74,1712814227062500
232.54,1712814227078125
228.37,1712814227093750
215.38,1712814227109375
194.88,1712814227125000
169.49,1712814227140625
141.88,1712814227156250
114.09,1712814227171875
87.47,1712814227187500
62.95,1712814227203125
40.89,1712814227218750
20.31,1712814227234375
-1.67,1712814227250000
-29.16,1712814227265625
-65.14,1712814227281250
-108.88,1712814227296875
-154.54,1712814227312500
-192.87,1712814227328125
-215.27,1712814227343750
-218.27,1712814227359375
-205.38,1712814227375000
-185.25,1712814227390625
-167.1,1712814227406250
-156.02,1712814227421875
-151.26,1712814227437500
-147.97,1712814227453125
-141.05,1712814227468750
-128.53,1712814227484375
-112.23,1712814227500000
-95.92,1712814227515625
-82.53,1712814227531250
-72.39,1712814227546875
-63.51,1712814227562500
-53.4,1712814227578125
-41.1,1712814227593750
-28.02,1712814227609375
-17.21,1712814227625000
-11.64,1712814227640625
-12.41,1712814227656250
-18.15,1712814227671875
-25.53,1712814227687500
-30.9,1712814227703125
-31.89,1712814227718750
-28.38,1712814227734375
-22.31,1712814227750000
-16.56,1712814227765625
-13.61,1712814227781250
-14.43,1712814227796875
-18.36,1712814227812500
-23.78,1712814227828125
-29.03,1712814227843750
-33.27,1712814227859375
-36.66,1712814227875000
-39.9,1712814227890625
-43.54,1712814227906250
-47.46,1712814227921875
-50.77,1712814227937500
-52.23,1712814227953125
-50.82,1712814227968750
-46.19,1712814227984375
-38.78,1712814228000000
-29.54,1712814228015625
-19.53,1712814228031250
-9.57,1712814228046875
-0.18,1712814228062500
8.32,1712814228078125
15.59,1712814228093750
21.12,1712814228109375
24.32,1712814228125000
24.76,1712814228140625
22.5,1712814228156250
18.13,1712814228171875
12.74,1712814228187500
7.51,1712814228203125
3.43,1712814228218750
0.98,1712814228234375
0.12,1712814228250000
0.46,1712814228265625
1.36,1712814228281250
2.18,1712814228296875
2.39,1712814228312500
1.57,1712814228328125
-0.55,1712814228343750
-4.02,1712814228359375
-8.64,1712814228375000
-14.03,1712814228390625
-19.72,1712814228406250
-25.37,1712814228421875
-30.88,1712814228437500
-36.39,1712814228453125
-42.14,1712814228468750
-48.44,1712814228484375
-55.48,1712814228500000
-63.34,1712814228515625
-71.88,1712814228531250
-80.68,1712814228546875
-88.94,1712814228562500
-95.5,1712814228578125
-99.11,1712814228593750
-98.76,1712814228609375
-94.06,1712814228625000
-85.41,1712814228640625
-73.83,1712814228656250
-60.64,1712814228671875
-47.02,1712814228687500
-33.81,1712814228703125
-21.52,1712814228718750
-10.5,1712814228734375
-1.06,1712814228750000
6.48,1712814228765625
11.83,1712814228781250
14.88,1712814228796875
15.77,1712814228812500
14.89,1712814228828125
12.81,1712814228843750
10.14,1712814228859375
7.39,1712814228875000
4.94,1712814228890625
2.88,1712814228906250
1.14,1712814228921875
-0.46,1712814228937500
-2.16,1712814228953125
-4.19,1712814228968750
-6.82,1712814228984375
-10.32,1712814229000000
-14.91,1712814229015625
-20.67,1712814229031250
-27.41,1712814229046875
-34.75,1712814229062500
-42.14,1712814229078125
-49.14,1712814229093750
-55.59,1712814229109375
-61.74,1712814229125000
-68.14,1712814229140625
-75.44,1712814229156250
-84.09,1712814229171875
-94.09,1712814229187500
-104.78,1712814229203125
-114.86,1712814229218750
-122.6,1712814229234375
-126.26,1712814229250000
-124.64,1712814229265625
-117.48,1712814229281250
-105.59,1712814229296875
-90.41,1712814229312500
-73.55,1712814229328125
-56.2,1712814229343750
-38.96,1712814229359375
-21.97,1712814229375000
-5.39,1712814229390625
10.35,1712814229406250
24.49,1712814229421875
36.15,1712814229437500
44.68,1712814229453125
49.84,1712814229468750
51.89,1712814229484375
51.47,1712814229500000
49.51,1712814229515625
47.07,1712814229531250
45.21,1712814229546875
44.84,1712814229562500
46.6,1712814229578125
50.69,1712814229593750
56.71,1712814229609375
63.84,1712814229625000
70.87,1712814229640625
76.58,1712814229656250
80.03,1712814229671875
80.83,1712814229687500
79.15,1712814229703125
75.49,1712814229718750
70.41,1712814229734375
64.23,1712814229750000
57.13,1712814229765625
49.43,1712814229781250
41.87,1712814229796875
35.75,1712814229812500
32.41,1712814229828125
32.63,1712814229843750
36.16,1712814229859375
41.67,1712814229875000
47.32,1712814229890625
51.55,1712814229906250
53.6,1712814229921875
53.65,1712814229937500
52.47,1712814229953125
50.93,1712814229968750
49.6,1712814229984375
48.64,1712814230000000
47.98,1712814230015625
47.35,1712814230031250
46.41,1712814230046875
44.66,1712814230062500
41.56,1712814230078125
36.68,1712814230093750
30.08,1712814230109375
22.64,1712814230125000
15.99,1712814230140625
12.02,1712814230156250
12.03,1712814230171875
16.15,1712814230187500
23.17,1712814230203125
31.08,1712814230218750
37.98,1712814230234375
42.86,1712814230250000
45.85,1712814230265625
47.78,1712814230281250
49.47,1712814230296875
51.18,1712814230312500
52.52,1712814230328125
52.78,1712814230343750
51.5,1712814230359375
48.66,1712814230375000
44.67,1712814230390625
40.02,1712814230406250
35.04,1712814230421875
29.86,1712814230437500
24.48,1712814230453125
18.91,1712814230468750
13.3,1712814230484375
7.8,1712814230500000
2.53,1712814230515625
-2.51,1712814230531250
-7.41,1712814230546875
-12.22,1712814230562500
-16.74,1712814230578125
-20.34,1712814230593750
-22.0,1712814230609375
-20.64,1712814230625000
-15.59,1712814230640625
-7.04,1712814230656250
3.94,1712814230671875
15.8,1712814230687500
27.19,1712814230703125
37.65,1712814230718750
47.46,1712814230734375
57.18,1712814230750000
66.73,1712814230765625
74.98,1712814230781250
79.98,1712814230796875
80.01,1712814230812500
74.73,1712814230828125
65.55,1712814230843750
55.27,1712814230859375
46.74,1712814230875000
41.65,1712814230890625
39.9,1712814230906250
40.0,1712814230921875
40.06,1712814230937500
38.81,1712814230953125
36.09,1712814230968750
32.58,1712814230984375
29.15,1712814231000000
26.2,1712814231015625
23.46,1712814231031250
20.12,1712814231046875
15.43,1712814231062500
9.09,1712814231078125
1.47,1712814231093750
-6.52,1712814231109375
-13.74,1712814231125000
-19.29,1712814231140625
-22.77,1712814231156250
-24.37,1712814231171875
-24.71,1712814231187500
-24.73,1712814231203125
-25.5,1712814231218750
-27.94,1712814231234375
-32.44,1712814231250000
-38.42,1712814231265625
-44.12,1712814231281250
-46.93,1712814231296875
-44.14,1712814231312500
-33.99,1712814231328125
-16.42,1712814231343750
6.78,1712814231359375
32.67,1712814231375000
58.03,1712814231390625
80.06,1712814231406250
96.64,1712814231421875
106.23,1712814231437500
107.74,1712814231453125
100.72,1712814231468750
85.78,1712814231484375
64.8,1712814231500000
40.71,1712814231515625
16.73,1712814231531250
-4.61,1712814231546875
-22.08,1712814231562500
-35.79,1712814231578125
-46.8,1712814231593750
-56.47,1712814231609375
-65.83,1712814231625000
-75.36,1712814231640625
-84.84,1712814231656250
-93.58,1712814231671875
-100.7,1712814231687500
-105.6,1712814231703125
-108.3,1712814231718750
-109.59,1712814231734375
-110.84,1712814231750000
-113.44,1712814231765625
-118.3,1712814231781250
-125.45,1712814231796875
-134.02,1712814231812500
-142.52,1712814231828125
-149.24,1712814231843750
-152.5,1712814231859375
-151.04,1712814231875000
-144.2,1712814231890625
-132.08,1712814231906250
-115.63,1712814231921875
-96.4,1712814231937500
-76.1,1712814231953125
-55.96,1712814231968750
-36.4,1712814231984375
-17.09,1712814232000000
2.63,1712814232015625
22.99,1712814232031250
43.36,1712814232046875
62.11,1712814232062500
77.22,1712814232078125
86.9,1712814232093750
90.27,1712814232109375
87.66,1712814232125000
80.4,1712814232140625
70.41,1712814232156250
59.55,1712814232171875
49.21,1712814232187500
40.12,1712814232203125
32.44,1712814232218750
26.07,1712814232234375
20.93,1712814232250000
17.19,1712814232265625
15.22,1712814232281250
15.3,1712814232296875
17.39,1712814232312500
20.89,1712814232328125
24.65,1712814232343750
27.47,1712814232359375
28.4,1712814232375000
27.1,1712814232390625
23.9,1712814232406250
19.54,1712814232421875
14.73,1712814232437500
9.92,1712814232453125
5.12,1712814232468750
0.12,1712814232484375
-5.3,1712814232500000
-11.21,1712814232515625
-17.5,1712814232531250
-24.07,1712814232546875
-30.91,1712814232562500
-38.13,1712814232578125
-45.74,1712814232593750
-53.47,1712814232609375
-60.49,1712814232625000
-65.58,1712814232640625
-67.44,1712814232656250
-65.15,1712814232671875
-58.53,1712814232687500
-48.17,1712814232703125
-35.27,1712814232718750
-21.22,1712814232734375
-7.21,1712814232750000
5.92,1712814232765625
17.68,1712814232781250
27.72,1712814232796875
35.76,1712814232812500
41.45,1712814232828125
44.61,1712814232843750
45.26,1712814232859375
43.76,1712814232875000
40.77,1712814232890625
37.0,1712814232906250
33.13,1712814232921875
29.61,1712814232937500
26.74,1712814232953125
24.63,1712814232968750
23.3,1712814232984375
22.65,1712814233000000
22.41,1712814233015625
22.18,1712814233031250
21.47,1712814233046875
19.9,1712814233062500
17.29,1712814233078125
13.74,1712814233093750
9.54,1712814233109375
4.99,1712814233125000
0.32,1712814233140625
-4.48,1712814233156250
-9.57,1712814233171875
-15.25,1712814233187500
-21.83,1712814233203125
-29.58,1712814233218750
-38.49,1712814233234375
-48.17,1712814233250000
-57.7,1712814233265625
-65.76,1712814233281250
-70.89,1712814233296875
-71.87,1712814233312500
-68.17,1712814233328125
-60.04,1712814233343750
-48.47,1712814233359375
-34.87,1712814233375000
-20.68,1712814233390625
-7.04,1712814233406250
5.29,1712814233421875
15.96,1712814233437500
24.86,1712814233453125
31.99,1712814233468750
37.39,1712814233484375
41.0,1712814233500000
42.74,1712814233515625
42.59,1712814233531250
40.64,1712814233546875
37.23,1712814233562500
32.91,1712814233578125
28.29,1712814233593750
23.9,1712814233609375
20.02,1712814233625000
16.64,1712814233640625
13.47,1712814233656250
10.16,1712814233671875
6.41,1712814233687500
2.11,1712814233703125
-2.61,1712814233718750
-7.55,1712814233734375
-12.43,1712814233750000
-17.1,1712814233765625
-21.57,1712814233781250
-25.99,1712814233796875
-30.61,1712814233812500
-35.68,1712814233828125
-41.43,1712814233843750
-48.02,1712814233859375
-55.55,1712814233875000
-63.86,1712814233890625
-72.38,1712814233906250
-80.14,1712814233921875
-85.67,1712814233937500
-87.47,1712814233953125
-84.39,1712814233968750
-76.04,1712814233984375
-62.91,1712814234000000
-46.23,1712814234015625
-27.63,1712814234031250
-8.63,1712814234046875
9.53,1712814234062500
26.04,1712814234078125
40.34,1712814234093750
52.12,1712814234109375
61.22,1712814234125000
67.73,1712814234140625
71.9,1712814234156250
74.16,1712814234171875
74.89,1712814234187500
74.34,1712814234203125
72.6,1712814234218750
69.65,1712814234234375
65.56,1712814234250000
60.56,1712814234265625
55.15,1712814234281250
49.86,1712814234296875
45.12,1712814234312500
41.14,1712814234328125
37.79,1712814234343750
34.68,1712814234359375
31.34,1712814234375000
27.35,1712814234390625
22.55,1712814234406250
17.04,1712814234421875
11.17,1712814234437500
5.4,1712814234453125
0.11,1712814234468750
-4.6,1712814234484375
-8.99,1712814234500000
-13.63,1712814234515625
-19.25,1712814234531250
-26.41,1712814234546875
-35.11,1712814234562500
-44.63,1712814234578125
-53.54,1712814234593750
-59.99,1712814234609375
-62.28,1712814234625000
-59.36,1712814234640625
-51.27,1712814234656250
-39.0,1712814234671875
-24.27,1712814234687500
-8.9,1712814234703125
5.62,1712814234718750
18.4,1712814234734375
29.14,1712814234750000
37.76,1712814234765625
44.29,1712814234781250
48.67,1712814234796875
50.87,1712814234812500
51.01,1712814234828125
49.51,1712814234843750
47.01,1712814234859375
44.19,1712814234875000
41.6,1712814234890625
39.49,1712814234906250
37.83,1712814234921875
36.45,1712814234937500
35.18,1712814234953125
33.94,1712814234968750
32.8,1712814234984375
31.87,1712814235000000
31.16,1712814235015625
30.54,1712814235031250
29.66,1712814235046875
28.11,1712814235062500
25.46,1712814235078125
21.56,1712814235093750
16.53,1712814235109375
10.86,1712814235125000
5.12,1712814235140625
-0.17,1712814235156250
-4.81,1712814235171875
-8.96,1712814235187500
-13.09,1712814235203125
-17.79,1712814235218750
-23.59,1712814235234375
-30.7,1712814235250000
-38.88,1712814235265625
-47.37,1712814235281250
-54.93,1712814235296875
-60.06,1712814235312500
-61.37,1712814235328125
-57.99,1712814235343750
-49.88,1712814235359375
-37.88,1712814235375000
-23.5,1712814235390625
-8.43,1712814235406250
5.89,1712814235421875
18.59,1712814235437500
29.32,1712814235453125
38.08,1712814235468750
44.86,1712814235484375
49.59,1712814235500000
52.11,1712814235515625
52.44,1712814235531250
50.93,1712814235546875
48.29,1712814235562500
45.4,1712814235578125
43.03,1712814235593750
41.56,1712814235609375
40.96,1712814235625000
40.84,1712814235640625
40.78,1712814235656250
40.45,1712814235671875
39.7,1712814235687500
38.54,1712814235703125
37.05,1712814235718750
35.2,1712814235734375
32.88,1712814235750000
29.92,1712814235765625
26.17,1712814235781250
21.63,1712814235796875
16.47,1712814235812500
11.05,1712814235828125
5.76,1712814235843750
0.88,1712814235859375
-3.51,1712814235875000
-7.68,1712814235890625
-12.04,1712814235906250
-17.14,1712814235921875
-23.4,1712814235937500
-30.97,1712814235953125
-39.65,1712814235968750
-48.8,1712814235984375
-57.25,1712814236000000
-63.61,1712814236015625
-66.45,1712814236031250
-64.78,1712814236046875
-58.38,1712814236062500
-47.92,1712814236078125
-34.77,1712814236093750
-20.64,1712814236109375
-7.07,1712814236125000
4.87,1712814236140625
14.68,1712814236156250
22.24,1712814236171875
27.62,1712814236187500
30.89,1712814236203125
32.13,1712814236218750
31.54,1712814236234375
29.52,1712814236250000
26.66,1712814236265625
23.64,1712814236281250
21.02,1712814236296875
19.06,1712814236312500
17.78,1712814236328125
16.95,1712814236343750
16.35,1712814236359375
15.78,1712814236375000
15.16,1712814236390625
14.43,1712814236406250
13.48,1712814236421875
12.12,1712814236437500
10.1,1712814236453125
7.22,1712814236468750
3.44,1712814236484375
-1.12,1712814236500000
-6.15,1712814236515625
-11.27,1712814236531250
-16.17,1712814236546875
-20.63,1712814236562500
-24.66,1712814236578125
-28.52,1712814236593750
-32.6,1712814236609375
-37.34,1712814236625000
-43.03,1712814236640625
-49.57,1712814236656250
-56.36,1712814236671875
-62.27,1712814236687500
-65.9,1712814236703125
-65.96,1712814236718750
-61.64,1712814236734375
-53.0,1712814236750000
-40.92,1712814236765625
-26.91,1712814236781250
-12.7,1712814236796875
0.23,1712814236812500
10.89,1712814236828125
18.87,1712814236843750
24.17,1712814236859375
27.03,1712814236875000
27.74,1712814236890625
26.72,1712814236906250
24.45,1712814236921875
21.52,1712814236937500
18.54,1712814236953125
15.99,1712814236968750
14.08,1712814236984375
12.77,1712814237000000
11.81,1712814237015625
11.01,1712814237031250
10.3,1712814237046875
9.72,1712814237062500
9.27,1712814237078125
8.84,1712814237093750
8.06,1712814237109375
6.51,1712814237125000
3.91,1712814237140625
0.25,1712814237156250
-4.16,1712814237171875
-8.84,1712814237187500
-13.34,1712814237203125
-17.45,1712814237218750
-21.31,1712814237234375
-25.31,1712814237250000
-29.92,1712814237265625
-35.59,1712814237281250
-42.39,1712814237296875
-49.93,1712814237312500
-57.26,1712814237328125
-63.01,1712814237343750
-65.74,1712814237359375
-64.37,1712814237375000
-58.57,1712814237390625
-48.9,1712814237406250
-36.62,1712814237421875
-23.3,1712814237437500
-10.38,1712814237453125
1.14,1712814237468750
10.78,1712814237484375
18.44,1712814237500000
24.13,1712814237515625
27.92,1712814237531250
29.85,1712814237546875
30.06,1712814237562500
28.87,1712814237578125
26.78,1712814237593750
24.42,1712814237609375
22.33,1712814237625000
20.85,1712814237640625
20.05,1712814237656250
19.76,1712814237671875
19.7,1712814237687500
19.55,1712814237703125
19.1,1712814237718750
18.16,1712814237734375
16.6,1712814237750000
14.33,1712814237765625
11.27,1712814237781250
7.46,1712814237796875
2.95,1712814237812500
-2.07,1712814237828125
-7.38,1712814237843750
-12.74,1712814237859375
-17.98,1712814237875000
-23.07,1712814237890625
-28.22,1712814237906250
-33.78,1712814237921875
-40.16,1712814237937500
-47.54,1712814237953125
-55.63,1712814237968750
-63.53,1712814237984375
-69.82,1712814238000000
-72.96,1712814238015625
-71.66,1712814238031250
-65.44,1712814238046875
-54.73,1712814238062500
-40.82,1712814238078125
-25.43,1712814238093750
-10.31,1712814238109375
3.16,1712814238125000
14.25,1712814238140625
22.7,1712814238156250
28.68,1712814238171875
32.53,1712814238187500
34.58,1712814238203125
35.16,1712814238218750
34.56,1712814238234375
33.11,1712814238250000
31.1,1712814238265625
28.83,1712814238281250
26.49,1712814238296875
24.24,1712814238312500
22.17,1712814238328125
20.43,1712814238343750
19.15,1712814238359375
18.38,1712814238375000
18.0,1712814238390625
17.63,1712814238406250
16.82,1712814238421875
15.08,1712814238437500
12.25,1712814238453125
8.42,1712814238468750
4.0,1712814238484375
-0.52,1712814238500000
-4.88,1712814238515625
-9.04,1712814238531250
-13.33,1712814238546875
-18.19,1712814238562500
-24.09,1712814238578125
-31.3,1712814238593750
-39.8,1712814238609375
-49.11,1712814238625000
-58.22,1712814238640625
-65.75,1712814238656250
-70.14,1712814238671875
-70.1,1712814238687500
-65.02,1712814238703125
-55.22,1712814238718750
-41.86,1712814238734375
-26.64,1712814238750000
-11.3,1712814238765625
2.87,1712814238781250
15.09,1712814238796875
25.14,1712814238812500
33.07,1712814238828125
39.0,1712814238843750
43.03,1712814238859375
45.27,1712814238875000
45.89,1712814238890625
45.2,1712814238906250
43.62,1712814238921875
41.59,1712814238937500
39.48,1712814238953125
37.56,1712814238968750
35.94,1712814238984375
34.66,1712814239000000
33.65,1712814239015625
32.83,1712814239031250
32.03,1712814239046875
31.05,1712814239062500
29.63,1712814239078125
27.51,1712814239093750
24.5,1712814239109375
20.55,1712814239125000
15.79,1712814239140625
10.49,1712814239156250
4.98,1712814239171875
-0.45,1712814239187500
-5.65,1712814239203125
-10.7,1712814239218750
-15.87,1712814239234375
-21.59,1712814239250000
-28.34,1712814239265625
-36.36,1712814239281250
-45.42,1712814239296875
-54.7,1712814239312500
-62.74,1712814239328125
-67.83,1712814239343750
-68.48,1712814239359375
-63.95,1712814239375000
-54.55,1712814239390625
-41.53,1712814239406250
-26.71,1712814239421875
-11.87,1712814239437500
1.73,1712814239453125
13.48,1712814239468750
23.25,1712814239484375
31.13,1712814239500000
37.16,1712814239515625
41.26,1712814239531250
43.37,1712814239546875
43.68,1712814239562500
42.64,1712814239578125
40.93,1712814239593750
39.23,1712814239609375
37.98,1712814239625000
37.2,1712814239640625
36.67,1712814239656250
36.04,1712814239671875
35.09,1712814239687500
33.84,1712814239703125
32.51,1712814239718750
31.31,1712814239734375
30.28,1712814239750000
29.16,1712814239765625
27.45,1712814239781250
24.62,1712814239796875
20.42,1712814239812500
15.0,1712814239828125
8.96,1712814239843750
3.06,1712814239859375
-2.14,1712814239875000
-6.43,1712814239890625
-10.12,1712814239906250
-13.84,1712814239921875
-18.27,1712814239937500
-23.93,1712814239953125
-30.97,1712814239968750
-39.14,1712814239984375
-47.79,1712814240000000
-55.84,1712814240015625
-61.94,1712814240031250
-64.69,1712814240046875
-62.99,1712814240062500
-56.49,1712814240078125
-45.73,1712814240093750
-32.1,1712814240109375
-17.3,1712814240125000
-2.9,1712814240140625
10.07,1712814240156250
21.19,1712814240171875
30.43,1712814240187500
37.83,1712814240203125
43.35,1712814240218750
46.85,1712814240234375
48.38,1712814240250000
48.24,1712814240265625
47.05,1712814240281250
45.52,1712814240296875
44.2,1712814240312500
43.32,1712814240328125
42.79,1712814240343750
42.35,1712814240359375
41.8,1712814240375000
41.09,1712814240390625
40.27,1712814240406250
39.42,1712814240421875
38.47,1712814240437500
37.26,1712814240453125
35.43,1712814240468750
32.64,1712814240484375
28.69,1712814240500000
23.6,1712814240515625
17.67,1712814240531250
11.4,1712814240546875
5.36,1712814240562500
0.03,1712814240578125
-4.41,1712814240593750
-8.09,1712814240609375
-11.41,1712814240625000
-14.94,1712814240640625
-19.23,1712814240656250
-24.64,1712814240671875
-31.3,1712814240687500
-38.97,1712814240703125
-47.04,1712814240718750
-54.45,1712814240734375
-59.86,1712814240750000
-61.91,1712814240765625
-59.62,1712814240781250
-52.73,1712814240796875
-41.86,1712814240812500
-28.37,1712814240828125
-13.91,1712814240843750
0.04,1712814240859375
12.51,1712814240875000
23.09,1712814240890625
31.65,1712814240906250
38.19,1712814240921875
42.6,1712814240937500
44.77,1712814240953125
44.81,1712814240968750
43.18,1712814240984375
40.61,1712814241000000
37.96,1712814241015625
35.83,1712814241031250
34.46,1712814241046875
33.69,1712814241062500
33.19,1712814241078125
32.6,1712814241093750
31.77,1712814241109375
30.72,1712814241125000
29.53,1712814241140625
28.3,1712814241156250
26.96,1712814241171875
25.3,1712814241187500
23.09,1712814241203125
20.09,1712814241218750
16.17,1712814241234375
11.45,1712814241250000
6.22,1712814241265625
0.95,1712814241281250
-3.92,1712814241296875
-8.12,1712814241312500
-11.71,1712814241328125
-15.1,1712814241343750
-18.84,1712814241359375
-23.5,1712814241375000
-29.41,1712814241390625
-36.55,1712814241406250
-44.54,1712814241421875
-52.56,1712814241437500
-59.54,1712814241453125
-64.21,1712814241468750
-65.5,1712814241484375
-62.63,1712814241500000
-55.62,1712814241515625
-45.18,1712814241531250
-32.59,1712814241546875
-19.41,1712814241562500
-6.98,1712814241578125
3.75,1712814241593750
12.39,1712814241609375
18.9,1712814241625000
23.46,1712814241640625
26.32,1712814241656250
27.74,1712814241671875
27.97,1712814241687500
27.34,1712814241703125
26.25,1712814241718750
25.12,1712814241734375
24.27,1712814241750000
23.8,1712814241765625
23.63,1712814241781250
23.51,1712814241796875
23.2,1712814241812500
22.6,1712814241828125
21.79,1712814241843750
20.94,1712814241859375
20.04,1712814241875000
18.89,1712814241890625
17.05,1712814241906250
14.14,1712814241921875
10.01,1712814241937500
4.93,1712814241953125
-0.47,1712814241968750
-5.56,1712814241984375
-9.89,1712814242000000
-13.47,1712814242015625
-16.75,1712814242031250
-20.46,1712814242046875
-25.26,1712814242062500
-31.58,1712814242078125
-39.33,1712814242093750
-47.84,1712814242109375
-55.93,1712814242125000
-62.1,1712814242140625
-64.9,1712814242156250
-63.28,1712814242171875
-56.96,1712814242187500
-46.49,1712814242203125
-33.14,1712814242218750
-18.6,1712814242234375
-4.47,1712814242250000
7.93,1712814242265625
17.79,1712814242281250
24.77,1712814242296875
28.87,1712814242312500
30.33,1712814242328125
29.59,1712814242343750
27.22,1712814242359375
24.0,1712814242375000
20.8,1712814242390625
18.41,1712814242406250
17.42,1712814242421875
17.97,1712814242437500
19.76,1712814242453125
22.15,1712814242468750
24.44,1712814242484375
26.15,1712814242500000
27.14,1712814242515625
27.61,1712814242531250
27.8,1712814242546875
27.77,1712814242562500
27.25,1712814242578125
25.69,1712814242593750
22.57,1712814242609375
17.66,1712814242625000
11.19,1712814242640625
3.78,1712814242656250
-3.77,1712814242671875
-10.75,1712814242687500
-16.75,1712814242703125
-21.71,1712814242718750
-25.81,1712814242734375
-29.44,1712814242750000
-33.0,1712814242765625
-36.89,1712814242781250
-41.39,1712814242796875
-46.43,1712814242812500
-51.55,1712814242828125
-55.82,1712814242843750
-58.01,1712814242859375
-56.98,1712814242875000
-52.18,1712814242890625
-43.81,1712814242906250
-32.87,1712814242921875
-20.81,1712814242937500
-9.04,1712814242953125
1.49,1712814242968750
10.33,1712814242984375
17.46,1712814243000000
22.97,1712814243015625
26.89,1712814243031250
29.17,1712814243046875
29.81,1712814243062500
29.04,1712814243078125
27.36,1712814243093750
25.46,1712814243109375
24.0,1712814243125000
23.39,1712814243140625
23.66,1712814243156250
24.5,1712814243171875
25.45,1712814243187500
26.06,1712814243203125
26.11,1712814243218750
25.68,1712814243234375
25.0,1712814243250000
24.31,1712814243265625
23.7,1712814243281250
22.97,1712814243296875
21.73,1712814243312500
19.54,1712814243328125
16.16,1712814243343750
11.66,1712814243359375
6.44,1712814243375000
1.08,1712814243390625
-3.9,1712814243406250
-8.2,1712814243421875
-11.87,1712814243437500
-15.22,1712814243453125
-18.77,1712814243468750
-23.03,1712814243484375
-28.28,1712814243500000
-34.55,1712814243515625
-41.43,1712814243531250
-48.08,1712814243546875
-53.36,1712814243562500
-56.01,1712814243578125
-55.02,1712814243593750
-49.97,1712814243609375
-41.28,1712814243625000
-30.18,1712814243640625
-18.41,1712814243656250
-7.72,1712814243671875
0.64,1712814243687500
6.12,1712814243703125
8.94,1712814243718750
9.76,1712814243734375
9.41,1712814243750000
8.62,1712814243765625
7.9,1712814243781250
7.64,1712814243796875
8.04,1712814243812500
9.17,1712814243828125
10.88,1712814243843750
12.75,1712814243859375
14.16,1712814243875000
14.5,1712814243890625
13.4,1712814243906250
10.87,1712814243921875
7.44,1712814243937500
3.87,1712814243953125
0.96,1712814243968750
-0.82,1712814243984375
-1.4,1712814244000000
-1.12,1712814244015625
-0.51,1712814244031250
-0.13,1712814244046875
-0.33,1712814244062500
-1.23,1712814244078125
-2.65,1712814244093750
-4.25,1712814244109375
-5.68,1712814244125000
-6.68,1712814244140625
-7.24,1712814244156250
-7.6,1712814244171875
-8.29,1712814244187500
-9.9,1712814244203125
-13.08,1712814244218750
-18.29,1712814244234375
-25.67,1712814244250000
-34.96,1712814244265625
-45.35,1712814244281250
-55.53,1712814244296875
-63.85,1712814244312500
-68.7,1712814244328125
-68.9,1712814244343750
-64.09,1712814244359375
-54.87,1712814244375000
-42.57,1712814244390625
-28.89,1712814244406250
-15.34,1712814244421875
-2.95,1712814244437500
7.79,1712814244453125
16.76,1712814244468750
23.96,1712814244484375
29.3,1712814244500000
32.69,1712814244515625
34.14,1712814244531250
33.9,1712814244546875
32.55,1712814244562500
30.77,1712814244578125
29.15,1712814244593750
28.0,1712814244609375
27.31,1712814244625000
26.86,1712814244640625
26.41,1712814244656250
25.85,1712814244671875
25.19,1712814244687500
24.55,1712814244703125
23.97,1712814244718750
23.45,1712814244734375
22.77,1712814244750000
21.73,1712814244765625
20.08,1712814244781250
17.69,1712814244796875
14.6,1712814244812500
10.97,1712814244828125
7.06,1712814244843750
3.15,1712814244859375
-0.56,1712814244875000
-4.02,1712814244890625
-7.33,1712814244906250
-10.73,1712814244921875
-14.51,1712814244937500
-18.97,1712814244953125
-24.39,1712814244968750
-30.87,1712814244984375
-38.31,1712814245000000
-46.15,1712814245015625
-53.46,1712814245031250
-58.91,1712814245046875
-61.13,1712814245062500
-59.1,1712814245078125
-52.47,1712814245093750
-41.82,1712814245109375
-28.48,1712814245125000
-14.2,1712814245140625
-0.6,1712814245156250
11.16,1712814245171875
20.61,1712814245187500
27.77,1712814245203125
32.92,1712814245218750
36.33,1712814245234375
38.15,1712814245250000
38.46,1712814245265625
37.49,1712814245281250
35.67,1712814245296875
33.55,1712814245312500
31.71,1712814245328125
30.49,1712814245343750
29.92,1712814245359375
29.75,1712814245375000
29.7,1712814245390625
29.51,1712814245406250
29.13,1712814245421875
28.59,1712814245437500
27.95,1712814245453125
27.18,1712814245468750
26.15,1712814245484375
24.66,1712814245500000
22.53,1712814245515625
19.65,1712814245531250
16.03,1712814245546875
11.78,1712814245562500
7.13,1712814245578125
2.34,1712814245593750
-2.39,1712814245609375
-6.93,1712814245625000
-11.3,1712814245640625
-15.63,1712814245656250
-20.17,1712814245671875
-25.21,1712814245687500
-31.08,1712814245703125
-38.07,1712814245718750
-46.23,1712814245734375
-55.17,1712814245750000
-64.0,1712814245765625
-71.32,1712814245781250
-75.64,1712814245796875
-75.75,1712814245812500
-71.17,1712814245828125
-62.31,1712814245843750
-50.33,1712814245859375
-36.74,1712814245875000
-22.95,1712814245890625
-9.98,1712814245906250
1.57,1712814245921875
11.4,1712814245937500
19.32,1712814245953125
25.13,1712814245968750
28.71,1712814245984375
30.1,1712814246000000
29.69,1712814246015625
28.11,1712814246031250
26.14,1712814246046875
24.48,1712814246062500
23.51,1712814246078125
23.29,1712814246093750
23.6,1712814246109375
24.13,1712814246125000
24.67,1712814246140625
25.06,1712814246156250
25.25,1712814246171875
25.09,1712814246187500
24.39,1712814246203125
22.85,1712814246218750
20.28,1712814246234375
16.65,1712814246250000
12.13,1712814246265625
7.04,1712814246281250
1.67,1712814246296875
-3.71,1712814246312500
-9.03,1712814246328125
-14.32,1712814246343750
-19.73,1712814246359375
-25.42,1712814246375000
-31.64,1712814246390625
-38.56,1712814246406250
-46.2,1712814246421875
-54.16,1712814246437500
-61.58,1712814246453125
-67.16,1712814246468750
-69.44,1712814246484375
-67.34,1712814246500000
-60.52,1712814246515625
-49.59,1712814246531250
-35.93,1712814246546875
-21.31,1712814246562500
-7.28,1712814246578125
5.12,1712814246593750
15.41,1712814246609375
23.51,1712814246625000
29.49,1712814246640625
33.39,1712814246656250
35.28,1712814246671875
35.34,1712814246687500
33.96,1712814246703125
31.69,1712814246718750
29.15,1712814246734375
26.75,1712814246750000
24.73,1712814246765625
23.12,1712814246781250
21.87,1712814246796875
20.95,1712814246812500
20.3,1712814246828125
19.86,1712814246843750
19.37,1712814246859375
18.44,1712814246875000
16.65,1712814246890625
13.72,1712814246906250
9.62,1712814246921875
4.61,1712814246937500
-0.84,1712814246953125
-6.28,1712814246968750
-11.42,1712814246984375
-16.16,1712814247000000
-20.66,1712814247015625
-25.32,1712814247031250
-30.64,1712814247046875
-37.12,1712814247062500
-45.03,1712814247078125
-54.16,1712814247093750
-63.68,1712814247109375
-72.14,1712814247125000
-77.8,1712814247140625
-79.07,1712814247156250
-75.05,1712814247171875
-65.8,1712814247187500
-52.31,1712814247203125
-36.2,1712814247218750
-19.21,1712814247234375
-2.83,1712814247250000
11.93,1712814247265625
24.49,1712814247281250
34.58,1712814247296875
42.13,1712814247312500
47.13,1712814247328125
49.79,1712814247343750
50.49,1712814247359375
49.79,1712814247375000
48.34,1712814247390625
46.69,1712814247406250
45.19,1712814247421875
43.92,1712814247437500
42.81,1712814247453125
41.71,1712814247468750
40.51,1712814247484375
39.18,1712814247500000
37.73,1712814247515625
36.09,1712814247531250
34.06,1712814247546875
31.36,1712814247562500
27.68,1712814247578125
22.94,1712814247593750
17.25,1712814247609375
10.96,1712814247625000
4.53,1712814247640625
-1.71,1712814247656250
-7.64,1712814247671875
-13.45,1712814247687500
-19.53,1712814247703125
-26.4,1712814247718750
-34.47,1712814247734375
-43.9,1712814247750000
-54.43,1712814247765625
-65.17,1712814247781250
-74.69,1712814247796875
-81.17,1712814247812500
-82.88,1712814247828125
-78.77,1712814247843750
-68.9,1712814247859375
-54.42,1712814247875000
-37.29,1712814247890625
-19.6,1712814247906250
-3.0,1712814247921875
11.59,1712814247937500
23.84,1712814247953125
33.77,1712814247968750
41.42,1712814247984375
46.81,1712814248000000
50.02,1712814248015625
51.37,1712814248031250
51.4,1712814248046875
50.8,1712814248062500
50.09,1712814248078125
49.53,1712814248093750
49.07,1712814248109375
48.5,1712814248125000
47.69,1712814248140625
46.61,1712814248156250
45.41,1712814248171875
44.29,1712814248187500
43.37,1712814248203125
42.57,1712814248218750
41.61,1712814248234375
40.04,1712814248250000
37.41,1712814248265625
33.43,1712814248281250
28.11,1712814248296875
21.81,1712814248312500
15.06,1712814248328125
8.43,1712814248343750
2.2,1712814248359375
-3.64,1712814248375000
-9.46,1712814248390625
-15.78,1712814248406250
-23.09,1712814248421875
-31.65,1712814248437500
-41.31,1712814248453125
-51.42,1712814248468750
-60.83,1712814248484375
-68.03,1712814248500000
-71.42,1712814248515625
-69.78,1712814248531250
-62.63,1712814248546875
-50.46,1712814248562500
-34.7,1712814248578125
-17.32,1712814248593750
-0.32,1712814248609375
14.8,1712814248625000
27.23,1712814248640625
36.84,1712814248656250
43.88,1712814248671875
48.68,1712814248687500
51.48,1712814248703125
52.41,1712814248718750
51.63,1712814248734375
49.53,1712814248750000
46.72,1712814248765625
43.94,1712814248781250
41.79,1712814248796875
40.52,1712814248812500
39.96,1712814248828125
39.65,1712814248843750
39.14,1712814248859375
38.21,1712814248875000
36.98,1712814248890625
35.78,1712814248906250
34.84,1712814248921875
34.1,1712814248937500
33.12,1712814248953125
31.26,1712814248968750
28.08,1712814248984375
23.49,1712814249000000
17.93,1712814249015625
12.11,1712814249031250
6.7,1712814249046875
2.0,1712814249062500
-2.15,1712814249078125
-6.2,1712814249093750
-10.75,1712814249109375
-16.24,1712814249125000
-22.89,1712814249140625
-30.71,1712814249156250
-39.51,1712814249171875
-48.85,1712814249187500
-57.88,1712814249203125
-65.32,1712814249218750
-69.64,1712814249234375
-69.45,1712814249250000
-64.05,1712814249265625
-53.75,1712814249281250
-39.85,1712814249296875
-24.19,1712814249312500
-8.63,1712814249328125
5.48,1712814249343750
17.43,1712814249359375
27.06,1712814249375000
34.43,1712814249390625
39.64,1712814249406250
42.76,1712814249421875
43.97,1712814249437500
43.67,1712814249453125
42.43,1712814249468750
40.93,1712814249484375
39.69,1712814249500000
38.98,1712814249515625
38.82,1712814249531250
39.03,1712814249546875
39.32,1712814249562500
39.47,1712814249578125
39.34,1712814249593750
38.88,1712814249609375
38.09,1712814249625000
37.0,1712814249640625
35.56,1712814249656250
33.72,1712814249671875
31.33,1712814249687500
28.27,1712814249703125
24.46,1712814249718750
19.93,1712814249734375
14.8,1712814249750000
9.33,1712814249765625
3.74,1712814249781250
-1.77,1712814249796875
-7.06,1712814249812500
-12.1,1712814249828125
-16.96,1712814249843750
-21.85,1712814249859375
-27.1,1712814249875000
-33.07,1712814249890625
-40.09,1712814249906250
-48.15,1712814249921875
-56.71,1712814249937500
-64.69,1712814249953125
-70.6,1712814249968750
-72.89,1712814249984375
-70.44,1712814250000000
-62.92,1712814250015625
-51.0,1712814250031250
-36.07,1712814250046875
-19.92,1712814250062500
-4.22,1712814250078125
9.86,1712814250093750
21.66,1712814250109375
31.01,1712814250125000
37.98,1712814250140625
42.65,1712814250156250
45.16,1712814250171875
45.69,1712814250187500
44.55,1712814250203125
42.22,1712814250218750
39.35,1712814250234375
36.61,1712814250250000
34.53,1712814250265625
33.37,1712814250281250
33.05,1712814250296875
33.21,1712814250312500
33.34,1712814250328125
32.98,1712814250343750
31.87,1712814250359375
30.02,1712814250375000
27.66,1712814250390625
25.11,1712814250406250
22.55,1712814250421875
19.99,1712814250437500
17.26,1712814250453125
14.12,1712814250468750
10.38,1712814250484375
5.99,1712814250500000
1.1,1712814250515625
-4.07,1712814250531250
-9.18,1712814250546875
-13.95,1712814250562500
-18.2,1712814250578125
-21.91,1712814250593750
-25.3,1712814250609375
-28.72,1712814250625000
-32.65,1712814250640625
-37.45,1712814250656250
-43.31,1712814250671875
-50.05,1712814250687500
-57.1,1712814250703125
-63.44,1712814250718750
-67.81,1712814250734375
-68.93,1712814250750000
-65.89,1712814250765625
-58.45,1712814250781250
-47.17,1712814250796875
-33.37,1712814250812500
-18.66,1712814250828125
-4.62,1712814250843750
7.64,1712814250859375
17.57,1712814250875000
25.09,1712814250890625
30.36,1712814250906250
33.55,1712814250921875
34.88,1712814250937500
34.61,1712814250953125
33.14,1712814250968750
31.02,1712814250984375
28.89,1712814251000000
27.3,1712814251015625
26.56,1712814251031250
26.69,1712814251046875
27.39,1712814251062500
28.24,1712814251078125
28.79,1712814251093750
28.75,1712814251109375
28.02,1712814251125000
26.75,1712814251140625
25.13,1712814251156250
23.38,1712814251171875
21.6,1712814251187500
19.68,1712814251203125
17.46,1712814251218750
14.75,1712814251234375
11.43,1712814251250000
7.54,1712814251265625
3.23,1712814251281250
-1.29,1712814251296875
-5.82,1712814251312500
-10.24,1712814251328125
-14.48,1712814251343750
-18.53,1712814251359375
-22.38,1712814251375000
-26.05,1712814251390625
-29.65,1712814251406250
-33.38,1712814251421875
-37.54,1712814251437500
-42.38,1712814251453125
-47.93,1712814251468750
-53.86,1712814251484375
-59.34,1712814251500000
-63.2,1712814251515625
-64.19,1712814251531250
-61.37,1712814251546875
-54.45,1712814251562500
-43.9,1712814251578125
-30.89,1712814251593750
-16.95,1712814251609375
-3.6,1712814251625000
8.06,1712814251640625
