value,timestamp
-0.0,1710826284000000
-0.0,1710826284015625
-0.0,1710826284031250
-0.0,1710826284046875
-0.0,1710826284062500
-0.0,1710826284078125
-0.0,1710826284093750
-0.0,1710826284109375
-0.0,1710826284125000
-0.0,1710826284140625
0.0,1710826284156250
0.01,1710826284171875
0.01,1710826284187500
-0.0,1710826284203125
-0.03,1710826284218750
-0.05,1710826284234375
-0.05,1710826284250000
0.0,1710826284265625
0.13,1710826284281250
0.36,1710826284296875
0.66,1710826284312500
1.01,1710826284328125
1.37,1710826284343750
1.72,1710826284359375
2.06,1710826284375000
2.4,1710826284390625
2.79,1710826284406250
3.24,1710826284421875
3.8,1710826284437500
4.42,1710826284453125
5.06,1710826284468750
5.66,1710826284484375
6.2,1710826284500000
6.68,1710826284515625
7.15,1710826284531250
7.68,1710826284546875
8.31,1710826284562500
9.14,1710826284578125
10.09,1710826284593750
11.04,1710826284609375
11.88,1710826284625000
12.56,1710826284640625
13.14,1710826284656250
13.76,1710826284671875
14.65,1710826284687500
15.96,1710826284703125
17.91,1710826284718750
20.32,1710826284734375
22.9,1710826284750000
25.38,1710826284765625
27.58,1710826284781250
29.57,1710826284796875
31.68,1710826284812500
34.32,1710826284828125
37.81,1710826284843750
42.54,1710826284859375
48.15,1710826284875000
54.1,1710826284890625
59.83,1710826284906250
64.97,1710826284921875
69.58,1710826284937500
74.14,1710826284953125
79.34,1710826284968750
85.71,1710826284984375
93.76,1710826285000000
103.0,1710826285015625
112.62,1710826285031250
121.73,1710826285046875
129.77,1710826285062500
136.75,1710826285078125
143.3,1710826285093750
150.75,1710826285109375
157.77,1710826285125000
166.64,1710826285140625
177.95,1710826285156250
191.79,1710826285171875
206.97,1710826285187500
220.57,1710826285203125
228.25,1710826285218750
225.36,1710826285234375
208.53,1710826285250000
176.87,1710826285265625
132.76,1710826285281250
80.05,1710826285296875
23.07,1710826285312500
-34.94,1710826285328125
-92.44,1710826285343750
-149.16,1710826285359375
-205.23,1710826285375000
-260.37,1710826285390625
-313.74,1710826285406250
-363.87,1710826285421875
-409.83,1710826285437500
-450.91,1710826285453125
-486.5,1710826285468750
-515.74,1710826285484375
-537.23,1710826285500000
-549.22,1710826285515625
-549.96,1710826285531250
-538.37,1710826285546875
-514.2,1710826285562500
-478.67,1710826285578125
-433.88,1710826285593750
-382.45,1710826285609375
-327.03,1710826285625000
-269.85,1710826285640625
-212.63,1710826285656250
-156.64,1710826285671875
-102.92,1710826285687500
-52.34,1710826285703125
-5.89,1710826285718750
35.54,1710826285734375
71.3,1710826285750000
101.12,1710826285765625
125.18,1710826285781250
144.0,1710826285796875
158.29,1710826285812500
168.75,1710826285828125
175.97,1710826285843750
180.32,1710826285859375
182.07,1710826285875000
181.46,1710826285890625
178.77,1710826285906250
174.4,1710826285921875
168.77,1710826285937500
162.3,1710826285953125
155.31,1710826285968750
148.0,1710826285984375
140.47,1710826286000000
132.73,1710826286015625
124.85,1710826286031250
116.91,1710826286046875
109.06,1710826286062500
101.43,1710826286078125
94.1,1710826286093750
87.08,1710826286109375
80.27,1710826286125000
73.55,1710826286140625
66.88,1710826286156250
60.28,1710826286171875
53.9,1710826286187500
47.94,1710826286203125
42.57,1710826286218750
37.8,1710826286234375
33.51,1710826286250000
29.42,1710826286265625
25.27,1710826286281250
20.9,1710826286296875
16.37,1710826286312500
11.95,1710826286328125
8.01,1710826286343750
4.87,1710826286359375
2.57,1710826286375000
0.89,1710826286390625
-0.64,1710826286406250
-2.53,1710826286421875
-5.04,1710826286437500
-8.09,1710826286453125
-11.26,1710826286468750
-13.97,1710826286484375
-15.8,1710826286500000
-16.64,1710826286515625
-16.81,1710826286531250
-16.84,1710826286546875
-17.27,1710826286562500
-18.45,1710826286578125
-20.57,1710826286593750
-23.65,1710826286609375
-27.48,1710826286625000
-31.37,1710826286640625
-34.07,1710826286656250
-33.9,1710826286671875
-29.35,1710826286687500
-19.94,1710826286703125
-6.67,1710826286718750
8.09,1710826286734375
21.6,1710826286750000
31.77,1710826286765625
37.97,1710826286781250
41.0,1710826286796875
42.39,1710826286812500
43.52,1710826286828125
45.04,1710826286843750
46.83,1710826286859375
48.31,1710826286875000
48.93,1710826286890625
48.3,1710826286906250
46.27,1710826286921875
42.82,1710826286937500
38.11,1710826286953125
32.46,1710826286968750
26.36,1710826286984375
20.36,1710826287000000
14.89,1710826287015625
10.26,1710826287031250
6.64,1710826287046875
4.23,1710826287062500
3.03,1710826287078125
2.65,1710826287093750
2.05,1710826287109375
-0.1,1710826287125000
-4.77,1710826287140625
-11.82,1710826287156250
-19.6,1710826287171875
-25.53,1710826287187500
-27.26,1710826287203125
-23.97,1710826287218750
-16.86,1710826287234375
-8.61,1710826287250000
-1.99,1710826287265625
1.4,1710826287281250
1.75,1710826287296875
0.58,1710826287312500
-0.43,1710826287328125
-0.3,1710826287343750
0.86,1710826287359375
2.31,1710826287375000
3.39,1710826287390625
3.98,1710826287406250
4.49,1710826287421875
5.41,1710826287437500
7.02,1710826287453125
9.06,1710826287468750
11.03,1710826287484375
12.39,1710826287500000
12.89,1710826287515625
12.66,1710826287531250
12.09,1710826287546875
11.73,1710826287562500
12.0,1710826287578125
13.02,1710826287593750
14.55,1710826287609375
16.12,1710826287625000
17.18,1710826287640625
17.36,1710826287656250
16.54,1710826287671875
14.95,1710826287687500
12.93,1710826287703125
10.8,1710826287718750
8.82,1710826287734375
6.86,1710826287750000
4.74,1710826287765625
2.26,1710826287781250
-0.67,1710826287796875
-4.02,1710826287812500
-7.58,1710826287828125
-11.05,1710826287843750
-14.12,1710826287859375
-16.47,1710826287875000
-17.98,1710826287890625
-18.55,1710826287906250
-18.28,1710826287921875
-17.31,1710826287937500
-15.84,1710826287953125
-14.07,1710826287968750
-12.23,1710826287984375
-10.55,1710826288000000
-9.22,1710826288015625
-8.38,1710826288031250
-8.02,1710826288046875
-8.01,1710826288062500
-8.12,1710826288078125
-8.16,1710826288093750
-8.01,1710826288109375
-7.69,1710826288125000
-7.31,1710826288140625
-7.04,1710826288156250
-6.93,1710826288171875
-6.94,1710826288187500
-6.86,1710826288203125
-6.49,1710826288218750
-5.72,1710826288234375
-4.63,1710826288250000
-3.46,1710826288265625
-2.53,1710826288281250
-2.09,1710826288296875
-2.17,1710826288312500
-2.63,1710826288328125
-3.19,1710826288343750
-3.61,1710826288359375
-3.74,1710826288375000
-3.65,1710826288390625
-3.44,1710826288406250
-3.23,1710826288421875
-3.11,1710826288437500
-3.04,1710826288453125
-2.96,1710826288468750
-2.85,1710826288484375
-2.66,1710826288500000
-2.41,1710826288515625
-2.15,1710826288531250
-1.91,1710826288546875
-1.78,1710826288562500
-1.81,1710826288578125
-2.07,1710826288593750
-2.58,1710826288609375
-3.27,1710826288625000
-3.99,1710826288640625
-4.54,1710826288656250
-4.72,1710826288671875
-4.35,1710826288687500
-3.33,1710826288703125
-1.63,1710826288718750
0.64,1710826288734375
3.14,1710826288750000
5.47,1710826288765625
7.24,1710826288781250
8.2,1710826288796875
8.35,1710826288812500
7.91,1710826288828125
7.17,1710826288843750
6.38,1710826288859375
5.63,1710826288875000
4.87,1710826288890625
4.02,1710826288906250
3.09,1710826288921875
2.2,1710826288937500
1.58,1710826288953125
1.41,1710826288968750
1.67,1710826288984375
2.18,1710826289000000
2.63,1710826289015625
2.78,1710826289031250
2.55,1710826289046875
2.1,1710826289062500
1.65,1710826289078125
1.4,1710826289093750
1.35,1710826289109375
1.35,1710826289125000
1.18,1710826289140625
0.7,1710826289156250
-0.07,1710826289171875
-0.99,1710826289187500
-1.85,1710826289203125
-2.57,1710826289218750
-3.12,1710826289234375
-3.57,1710826289250000
-4.01,1710826289265625
-4.46,1710826289281250
-4.95,1710826289296875
-5.54,1710826289312500
-6.32,1710826289328125
-7.36,1710826289343750
-8.65,1710826289359375
-9.99,1710826289375000
-10.98,1710826289390625
-11.2,1710826289406250
-10.36,1710826289421875
-8.44,1710826289437500
-5.74,1710826289453125
-2.75,1710826289468750
-0.0,1710826289484375
2.16,1710826289500000
3.6,1710826289515625
4.43,1710826289531250
4.83,1710826289546875
4.98,1710826289562500
4.98,1710826289578125
4.81,1710826289593750
4.45,1710826289609375
3.92,1710826289625000
3.33,1710826289640625
2.86,1710826289656250
2.65,1710826289671875
2.75,1710826289687500
3.06,1710826289703125
3.41,1710826289718750
3.62,1710826289734375
3.62,1710826289750000
3.44,1710826289765625
3.19,1710826289781250
2.92,1710826289796875
2.63,1710826289812500
2.22,1710826289828125
1.59,1710826289843750
0.72,1710826289859375
-0.34,1710826289875000
-1.43,1710826289890625
-2.4,1710826289906250
-3.19,1710826289921875
-3.8,1710826289937500
-4.31,1710826289953125
-4.83,1710826289968750
-5.49,1710826289984375
-6.33,1710826290000000
-7.34,1710826290015625
-8.42,1710826290031250
-9.36,1710826290046875
-9.92,1710826290062500
-9.84,1710826290078125
-8.93,1710826290093750
-7.18,1710826290109375
-4.73,1710826290125000
-1.93,1710826290140625
0.82,1710826290156250
3.19,1710826290171875
5.02,1710826290187500
6.33,1710826290203125
7.28,1710826290218750
7.99,1710826290234375
8.51,1710826290250000
8.71,1710826290265625
8.46,1710826290281250
7.68,1710826290296875
6.5,1710826290312500
5.22,1710826290328125
4.17,1710826290343750
3.61,1710826290359375
3.55,1710826290375000
3.82,1710826290390625
4.17,1710826290406250
4.39,1710826290421875
4.44,1710826290437500
4.37,1710826290453125
4.29,1710826290468750
4.19,1710826290484375
4.01,1710826290500000
3.64,1710826290515625
2.98,1710826290531250
2.05,1710826290546875
0.97,1710826290562500
-0.07,1710826290578125
-0.96,1710826290593750
-1.62,1710826290609375
-2.13,1710826290625000
-2.58,1710826290640625
-3.1,1710826290656250
-3.8,1710826290671875
-4.73,1710826290687500
-5.88,1710826290703125
-7.14,1710826290718750
-8.35,1710826290734375
-9.31,1710826290750000
-9.88,1710826290765625
-9.93,1710826290781250
-9.47,1710826290796875
-8.54,1710826290812500
-7.23,1710826290828125
-5.67,1710826290843750
-4.01,1710826290859375
-2.47,1710826290875000
-1.25,1710826290890625
-0.44,1710826290906250
-0.0,1710826290921875
0.33,1710826290937500
0.87,1710826290953125
1.92,1710826290968750
3.52,1710826290984375
5.51,1710826291000000
7.57,1710826291015625
9.38,1710826291031250
10.74,1710826291046875
11.65,1710826291062500
12.2,1710826291078125
12.51,1710826291093750
12.71,1710826291109375
12.81,1710826291125000
12.76,1710826291140625
12.47,1710826291156250
11.84,1710826291171875
10.79,1710826291187500
9.35,1710826291203125
7.6,1710826291218750
5.69,1710826291234375
3.77,1710826291250000
1.96,1710826291265625
0.35,1710826291281250
-1.0,1710826291296875
-2.06,1710826291312500
-2.78,1710826291328125
-3.22,1710826291343750
-3.47,1710826291359375
-3.74,1710826291375000
-4.22,1710826291390625
-5.09,1710826291406250
-6.34,1710826291421875
-7.8,1710826291437500
-9.12,1710826291453125
-9.83,1710826291468750
-9.54,1710826291484375
-8.05,1710826291500000
-5.49,1710826291515625
-2.31,1710826291531250
0.86,1710826291546875
3.44,1710826291562500
5.08,1710826291578125
5.76,1710826291593750
5.71,1710826291609375
5.26,1710826291625000
4.71,1710826291640625
4.2,1710826291656250
3.77,1710826291671875
3.4,1710826291687500
3.1,1710826291703125
2.9,1710826291718750
2.84,1710826291734375
2.94,1710826291750000
3.14,1710826291765625
3.34,1710826291781250
3.41,1710826291796875
3.27,1710826291812500
2.88,1710826291828125
2.27,1710826291843750
1.58,1710826291859375
0.96,1710826291875000
0.54,1710826291890625
0.35,1710826291906250
0.29,1710826291921875
0.18,1710826291937500
-0.14,1710826291953125
-0.74,1710826291968750
-1.57,1710826291984375
-2.49,1710826292000000
-3.41,1710826292015625
-4.31,1710826292031250
-5.23,1710826292046875
-6.18,1710826292062500
-7.11,1710826292078125
-7.88,1710826292093750
-8.41,1710826292109375
-8.73,1710826292125000
-9.05,1710826292140625
-9.65,1710826292156250
-10.73,1710826292171875
-12.19,1710826292187500
-13.69,1710826292203125
-14.69,1710826292218750
-14.73,1710826292234375
-13.56,1710826292250000
-11.26,1710826292265625
-8.21,1710826292281250
-4.93,1710826292296875
-1.9,1710826292312500
0.52,1710826292328125
2.14,1710826292343750
2.92,1710826292359375
2.96,1710826292375000
2.43,1710826292390625
1.57,1710826292406250
0.62,1710826292421875
-0.2,1710826292437500
-0.75,1710826292453125
-1.06,1710826292468750
-1.21,1710826292484375
-1.36,1710826292500000
-1.64,1710826292515625
-2.07,1710826292531250
-2.63,1710826292546875
-3.26,1710826292562500
-3.9,1710826292578125
-4.53,1710826292593750
-5.18,1710826292609375
-5.88,1710826292625000
-6.7,1710826292640625
-7.68,1710826292656250
-8.9,1710826292671875
-10.4,1710826292687500
-12.18,1710826292703125
-14.16,1710826292718750
-16.16,1710826292734375
-18.03,1710826292750000
-19.62,1710826292765625
-20.92,1710826292781250
-22.02,1710826292796875
-23.07,1710826292812500
-24.21,1710826292828125
-25.5,1710826292843750
-26.93,1710826292859375
-28.45,1710826292875000
-30.04,1710826292890625
-31.73,1710826292906250
-33.6,1710826292921875
-35.76,1710826292937500
-38.23,1710826292953125
-40.87,1710826292968750
-43.38,1710826292984375
-45.27,1710826293000000
-46.06,1710826293015625
-45.37,1710826293031250
-43.01,1710826293046875
-39.1,1710826293062500
-33.96,1710826293078125
-28.01,1710826293093750
-21.65,1710826293109375
-15.11,1710826293125000
-8.42,1710826293140625
-1.42,1710826293156250
6.14,1710826293171875
14.52,1710826293187500
23.91,1710826293203125
34.32,1710826293218750
45.55,1710826293234375
57.09,1710826293250000
68.15,1710826293265625
77.72,1710826293281250
84.74,1710826293296875
88.37,1710826293312500
88.11,1710826293328125
83.97,1710826293343750
76.47,1710826293359375
66.52,1710826293375000
55.3,1710826293390625
44.02,1710826293406250
33.81,1710826293421875
25.59,1710826293437500
20.05,1710826293453125
17.6,1710826293468750
18.29,1710826293484375
21.78,1710826293500000
27.39,1710826293515625
34.19,1710826293531250
41.24,1710826293546875
47.83,1710826293562500
53.56,1710826293578125
58.41,1710826293593750
62.51,1710826293609375
66.06,1710826293625000
69.07,1710826293640625
71.46,1710826293656250
73.08,1710826293671875
73.88,1710826293687500
74.05,1710826293703125
74.02,1710826293718750
74.37,1710826293734375
75.65,1710826293750000
78.27,1710826293765625
82.25,1710826293781250
87.3,1710826293796875
92.86,1710826293812500
98.26,1710826293828125
102.89,1710826293843750
106.35,1710826293859375
108.44,1710826293875000
109.15,1710826293890625
108.64,1710826293906250
107.13,1710826293921875
104.84,1710826293937500
101.89,1710826293953125
98.33,1710826293968750
94.04,1710826293984375
88.85,1710826294000000
82.63,1710826294015625
75.34,1710826294031250
67.09,1710826294046875
58.09,1710826294062500
48.55,1710826294078125
38.71,1710826294093750
28.74,1710826294109375
18.79,1710826294125000
8.92,1710826294140625
-0.85,1710826294156250
-10.62,1710826294171875
-20.5,1710826294187500
-30.59,1710826294203125
-40.84,1710826294218750
-51.06,1710826294234375
-60.92,1710826294250000
-69.97,1710826294265625
-77.68,1710826294281250
-83.59,1710826294296875
-87.38,1710826294312500
-88.98,1710826294328125
-88.71,1710826294343750
-87.23,1710826294359375
-85.36,1710826294375000
-83.82,1710826294390625
-82.98,1710826294406250
-82.72,1710826294421875
-82.55,1710826294437500
-81.84,1710826294453125
-80.11,1710826294468750
-77.16,1710826294484375
-73.12,1710826294500000
-68.39,1710826294515625
-63.47,1710826294531250
-58.91,1710826294546875
-55.1,1710826294562500
-52.23,1710826294578125
-50.21,1710826294593750
-48.77,1710826294609375
-47.58,1710826294625000
-46.52,1710826294640625
-45.66,1710826294656250
-45.22,1710826294671875
-45.36,1710826294687500
-45.95,1710826294703125
-46.53,1710826294718750
-46.44,1710826294734375
-45.06,1710826294750000
-42.14,1710826294765625
-37.89,1710826294781250
-32.96,1710826294796875
-28.13,1710826294812500
-24.08,1710826294828125
-21.07,1710826294843750
-18.95,1710826294859375
-17.28,1710826294875000
-15.61,1710826294890625
-13.74,1710826294906250
-11.84,1710826294921875
-10.33,1710826294937500
-9.66,1710826294953125
-10.04,1710826294968750
-11.34,1710826294984375
-13.13,1710826295000000
-14.85,1710826295015625
-15.99,1710826295031250
-16.28,1710826295046875
-15.7,1710826295062500
-14.47,1710826295078125
-12.97,1710826295093750
-11.67,1710826295109375
-11.02,1710826295125000
-11.41,1710826295140625
-13.11,1710826295156250
-16.18,1710826295171875
-20.44,1710826295187500
-25.4,1710826295203125
-30.35,1710826295218750
-34.47,1710826295234375
-37.03,1710826295250000
-37.7,1710826295265625
-36.62,1710826295281250
-34.35,1710826295296875
-31.66,1710826295312500
-29.22,1710826295328125
-27.39,1710826295343750
-26.17,1710826295359375
-25.34,1710826295375000
-24.67,1710826295390625
-24.04,1710826295406250
-23.41,1710826295421875
-22.76,1710826295437500
-21.95,1710826295453125
-20.76,1710826295468750
-19.0,1710826295484375
-16.6,1710826295500000
-13.73,1710826295515625
-10.68,1710826295531250
-7.81,1710826295546875
-5.32,1710826295562500
-3.28,1710826295578125
-1.54,1710826295593750
0.09,1710826295609375
1.75,1710826295625000
3.47,1710826295640625
5.14,1710826295656250
6.59,1710826295671875
7.68,1710826295687500
8.37,1710826295703125
8.72,1710826295718750
8.84,1710826295734375
8.82,1710826295750000
8.64,1710826295765625
8.2,1710826295781250
7.34,1710826295796875
5.94,1710826295812500
3.97,1710826295828125
1.52,1710826295843750
-1.26,1710826295859375
-4.16,1710826295875000
-6.94,1710826295890625
-9.33,1710826295906250
-11.06,1710826295921875
-11.91,1710826295937500
-11.79,1710826295953125
-10.75,1710826295968750
-8.97,1710826295984375
-6.73,1710826296000000
-4.29,1710826296015625
-1.88,1710826296031250
0.31,1710826296046875
2.2,1710826296062500
3.73,1710826296078125
5.03,1710826296093750
6.26,1710826296109375
7.65,1710826296125000
9.37,1710826296140625
11.42,1710826296156250
13.7,1710826296171875
16.01,1710826296187500
18.17,1710826296203125
20.01,1710826296218750
21.42,1710826296234375
22.29,1710826296250000
22.54,1710826296265625
22.11,1710826296281250
21.05,1710826296296875
19.48,1710826296312500
17.57,1710826296328125
15.51,1710826296343750
13.4,1710826296359375
11.33,1710826296375000
9.42,1710826296390625
7.8,1710826296406250
6.62,1710826296421875
6.01,1710826296437500
5.97,1710826296453125
6.39,1710826296468750
7.06,1710826296484375
7.74,1710826296500000
8.2,1710826296515625
8.29,1710826296531250
7.94,1710826296546875
7.26,1710826296562500
6.43,1710826296578125
5.68,1710826296593750
5.08,1710826296609375
4.55,1710826296625000
3.81,1710826296640625
2.58,1710826296656250
0.67,1710826296671875
-1.87,1710826296687500
-4.89,1710826296703125
-8.13,1710826296718750
-11.42,1710826296734375
-14.66,1710826296750000
-17.81,1710826296765625
-20.83,1710826296781250
-23.66,1710826296796875
-26.23,1710826296812500
-28.46,1710826296828125
-30.35,1710826296843750
-31.89,1710826296859375
-33.04,1710826296875000
-33.74,1710826296890625
-33.87,1710826296906250
-33.37,1710826296921875
-32.28,1710826296937500
-30.79,1710826296953125
-29.2,1710826296968750
-27.87,1710826296984375
-27.07,1710826297000000
-26.92,1710826297015625
-27.38,1710826297031250
-28.27,1710826297046875
-29.34,1710826297062500
-30.33,1710826297078125
-31.07,1710826297093750
-31.49,1710826297109375
-31.67,1710826297125000
-31.76,1710826297140625
-31.94,1710826297156250
-32.28,1710826297171875
-32.62,1710826297187500
-32.63,1710826297203125
-31.8,1710826297218750
-29.69,1710826297234375
-26.14,1710826297250000
-21.35,1710826297265625
-15.79,1710826297281250
-10.12,1710826297296875
-4.87,1710826297312500
-0.37,1710826297328125
3.25,1710826297343750
6.05,1710826297359375
8.13,1710826297375000
9.56,1710826297390625
10.39,1710826297406250
10.64,1710826297421875
10.42,1710826297437500
9.89,1710826297453125
9.27,1710826297468750
8.77,1710826297484375
8.52,1710826297500000
8.54,1710826297515625
8.75,1710826297531250
9.05,1710826297546875
9.3,1710826297562500
9.4,1710826297578125
9.29,1710826297593750
8.89,1710826297609375
8.17,1710826297625000
7.09,1710826297640625
5.69,1710826297656250
4.11,1710826297671875
2.52,1710826297687500
1.1,1710826297703125
-0.1,1710826297718750
-1.17,1710826297734375
-2.28,1710826297750000
-3.62,1710826297765625
-5.32,1710826297781250
-7.37,1710826297796875
-9.7,1710826297812500
-12.16,1710826297828125
-14.55,1710826297843750
-16.59,1710826297859375
-17.87,1710826297875000
-17.96,1710826297890625
-16.5,1710826297906250
-13.37,1710826297921875
-8.76,1710826297937500
-3.17,1710826297953125
2.74,1710826297968750
8.39,1710826297984375
13.3,1710826298000000
17.19,1710826298015625
19.94,1710826298031250
21.52,1710826298046875
21.99,1710826298062500
21.58,1710826298078125
20.65,1710826298093750
19.58,1710826298109375
18.69,1710826298125000
18.13,1710826298140625
17.87,1710826298156250
17.72,1710826298171875
17.53,1710826298187500
17.21,1710826298203125
16.81,1710826298218750
16.44,1710826298234375
16.2,1710826298250000
16.12,1710826298265625
16.1,1710826298281250
15.93,1710826298296875
15.33,1710826298312500
14.09,1710826298328125
12.13,1710826298343750
9.54,1710826298359375
6.6,1710826298375000
3.62,1710826298390625
0.88,1710826298406250
-1.54,1710826298421875
-3.67,1710826298437500
-5.73,1710826298453125
-7.91,1710826298468750
-10.4,1710826298484375
-13.21,1710826298500000
-16.18,1710826298515625
-18.96,1710826298531250
-21.02,1710826298546875
-21.79,1710826298562500
-20.79,1710826298578125
-17.85,1710826298593750
-13.19,1710826298609375
-7.46,1710826298625000
-1.49,1710826298640625
3.9,1710826298656250
8.14,1710826298671875
10.96,1710826298687500
12.38,1710826298703125
12.6,1710826298718750
11.93,1710826298734375
10.66,1710826298750000
9.08,1710826298765625
7.43,1710826298781250
5.91,1710826298796875
4.65,1710826298812500
3.7,1710826298828125
3.04,1710826298843750
2.63,1710826298859375
2.45,1710826298875000
2.53,1710826298890625
2.95,1710826298906250
3.76,1710826298921875
4.96,1710826298937500
6.49,1710826298953125
8.16,1710826298968750
9.72,1710826298984375
10.91,1710826299000000
11.53,1710826299015625
11.51,1710826299031250
10.95,1710826299046875
10.02,1710826299062500
8.9,1710826299078125
7.7,1710826299093750
6.4,1710826299109375
4.87,1710826299125000
2.97,1710826299140625
0.6,1710826299156250
-2.19,1710826299171875
-5.13,1710826299187500
-7.79,1710826299203125
-9.6,1710826299218750
-10.01,1710826299234375
-8.66,1710826299250000
-5.47,1710826299265625
-0.71,1710826299281250
5.04,1710826299296875
11.08,1710826299312500
16.71,1710826299328125
21.38,1710826299343750
24.75,1710826299359375
26.66,1710826299375000
27.02,1710826299390625
25.78,1710826299406250
22.93,1710826299421875
18.54,1710826299437500
12.86,1710826299453125
6.31,1710826299468750
-0.56,1710826299484375
-7.24,1710826299500000
-13.38,1710826299515625
-18.83,1710826299531250
-23.52,1710826299546875
-27.38,1710826299562500
-30.22,1710826299578125
-31.76,1710826299593750
-31.78,1710826299609375
-30.32,1710826299625000
-27.7,1710826299640625
-24.49,1710826299656250
-21.34,1710826299671875
-18.73,1710826299687500
-16.87,1710826299703125
-15.71,1710826299718750
-15.0,1710826299734375
-14.56,1710826299750000
-14.3,1710826299765625
-14.3,1710826299781250
-14.72,1710826299796875
-15.73,1710826299812500
-17.4,1710826299828125
-19.7,1710826299843750
-22.43,1710826299859375
-25.2,1710826299875000
-27.48,1710826299890625
-28.67,1710826299906250
-28.21,1710826299921875
-25.86,1710826299937500
-21.8,1710826299953125
-16.62,1710826299968750
-11.17,1710826299984375
-6.22,1710826300000000
-2.25,1710826300015625
0.65,1710826300031250
2.65,1710826300046875
3.99,1710826300062500
4.91,1710826300078125
5.54,1710826300093750
6.07,1710826300109375
6.7,1710826300125000
7.63,1710826300140625
8.91,1710826300156250
10.38,1710826300171875
11.7,1710826300187500
12.51,1710826300203125
12.63,1710826300218750
12.12,1710826300234375
11.2,1710826300250000
10.16,1710826300265625
9.25,1710826300281250
8.55,1710826300296875
8.11,1710826300312500
7.89,1710826300328125
7.81,1710826300343750
7.73,1710826300359375
7.43,1710826300375000
6.67,1710826300390625
5.31,1710826300406250
3.31,1710826300421875
0.81,1710826300437500
-1.99,1710826300453125
-4.89,1710826300468750
-7.77,1710826300484375
-10.56,1710826300500000
-13.18,1710826300515625
-15.46,1710826300531250
-17.15,1710826300546875
-17.87,1710826300562500
-17.27,1710826300578125
-15.07,1710826300593750
-11.27,1710826300609375
-6.15,1710826300625000
-0.29,1710826300640625
5.57,1710826300656250
10.67,1710826300671875
14.47,1710826300687500
16.76,1710826300703125
17.66,1710826300718750
17.48,1710826300734375
16.66,1710826300750000
15.59,1710826300765625
14.57,1710826300781250
13.82,1710826300796875
13.48,1710826300812500
13.63,1710826300828125
14.23,1710826300843750
15.11,1710826300859375
16.0,1710826300875000
16.6,1710826300890625
16.67,1710826300906250
16.13,1710826300921875
15.07,1710826300937500
13.64,1710826300953125
12.03,1710826300968750
10.36,1710826300984375
8.66,1710826301000000
6.92,1710826301015625
5.16,1710826301031250
3.43,1710826301046875
1.86,1710826301062500
0.55,1710826301078125
-0.41,1710826301093750
-1.0,1710826301109375
-1.31,1710826301125000
-1.48,1710826301140625
-1.74,1710826301156250
-2.3,1710826301171875
-3.3,1710826301187500
-4.75,1710826301203125
-6.43,1710826301218750
-7.89,1710826301234375
-8.52,1710826301250000
-7.77,1710826301265625
-5.27,1710826301281250
-0.98,1710826301296875
4.88,1710826301312500
11.85,1710826301328125
19.45,1710826301343750
27.18,1710826301359375
34.66,1710826301375000
41.65,1710826301390625
48.03,1710826301406250
53.9,1710826301421875
59.77,1710826301437500
66.54,1710826301453125
75.29,1710826301468750
86.83,1710826301484375
101.29,1710826301500000
117.96,1710826301515625
135.27,1710826301531250
151.0,1710826301546875
162.82,1710826301562500
168.98,1710826301578125
168.86,1710826301593750
162.98,1710826301609375
152.69,1710826301625000
139.47,1710826301640625
124.64,1710826301656250
108.76,1710826301671875
91.32,1710826301687500
70.96,1710826301703125
46.41,1710826301718750
17.39,1710826301734375
-14.93,1710826301750000
-48.08,1710826301765625
-78.93,1710826301781250
-104.02,1710826301796875
-120.91,1710826301812500
-129.01,1710826301828125
-129.9,1710826301843750
-126.33,1710826301859375
-120.94,1710826301875000
-115.35,1710826301890625
-109.97,1710826301906250
-104.24,1710826301921875
-96.49,1710826301937500
-84.95,1710826301953125
-68.56,1710826301968750
-47.58,1710826301984375
-23.19,1710826302000000
2.97,1710826302015625
28.96,1710826302031250
52.78,1710826302046875
68.92,1710826302062500
72.89,1710826302078125
64.84,1710826302093750
50.16,1710826302109375
34.95,1710826302125000
22.1,1710826302140625
11.33,1710826302156250
1.21,1710826302171875
-8.88,1710826302187500
-18.17,1710826302203125
-24.43,1710826302218750
-26.06,1710826302234375
-22.65,1710826302250000
-15.47,1710826302265625
-6.74,1710826302281250
1.52,1710826302296875
8.02,1710826302312500
12.31,1710826302328125
14.36,1710826302343750
14.77,1710826302359375
13.87,1710826302375000
11.6,1710826302390625
7.23,1710826302406250
-0.04,1710826302421875
-10.24,1710826302437500
-22.25,1710826302453125
-34.17,1710826302468750
-43.94,1710826302484375
-49.96,1710826302500000
-51.78,1710826302515625
-50.35,1710826302531250
-47.55,1710826302546875
-45.11,1710826302562500
-43.58,1710826302578125
-42.16,1710826302593750
-39.34,1710826302609375
-33.72,1710826302625000
-24.69,1710826302640625
-12.7,1710826302656250
0.91,1710826302671875
14.29,1710826302687500
25.85,1710826302703125
34.73,1710826302718750
40.97,1710826302734375
45.09,1710826302750000
47.76,1710826302765625
49.45,1710826302781250
50.38,1710826302796875
50.53,1710826302812500
49.75,1710826302828125
47.95,1710826302843750
45.23,1710826302859375
41.81,1710826302875000
38.07,1710826302890625
34.46,1710826302906250
31.45,1710826302921875
29.44,1710826302937500
28.64,1710826302953125
28.86,1710826302968750
29.45,1710826302984375
29.43,1710826303000000
27.72,1710826303015625
23.46,1710826303031250
16.27,1710826303046875
6.28,1710826303062500
-5.91,1710826303078125
-19.33,1710826303093750
-32.82,1710826303109375
-45.13,1710826303125000
-55.03,1710826303140625
-61.57,1710826303156250
-64.35,1710826303171875
-63.56,1710826303187500
-60.07,1710826303203125
-55.14,1710826303218750
-49.98,1710826303234375
-45.44,1710826303250000
-41.76,1710826303265625
-38.67,1710826303281250
-35.62,1710826303296875
-32.11,1710826303312500
-27.83,1710826303328125
-22.74,1710826303343750
-16.85,1710826303359375
-10.21,1710826303375000
-2.81,1710826303390625
5.3,1710826303406250
13.88,1710826303421875
22.4,1710826303437500
30.06,1710826303453125
36.04,1710826303468750
39.68,1710826303484375
40.77,1710826303500000
39.62,1710826303515625
36.99,1710826303531250
33.91,1710826303546875
31.36,1710826303562500
30.05,1710826303578125
30.22,1710826303593750
31.59,1710826303609375
33.41,1710826303625000
34.7,1710826303640625
34.53,1710826303656250
32.37,1710826303671875
28.3,1710826303687500
22.95,1710826303703125
17.28,1710826303718750
12.17,1710826303734375
8.09,1710826303750000
5.03,1710826303765625
2.64,1710826303781250
0.48,1710826303796875
-1.66,1710826303812500
-3.78,1710826303828125
-5.77,1710826303843750
-7.62,1710826303859375
-9.49,1710826303875000
-11.69,1710826303890625
-14.45,1710826303906250
-17.71,1710826303921875
-21.21,1710826303937500
-24.55,1710826303953125
-27.51,1710826303968750
-30.07,1710826303984375
-32.38,1710826304000000
-34.56,1710826304015625
-36.5,1710826304031250
-37.96,1710826304046875
-38.66,1710826304062500
-38.54,1710826304078125
-37.8,1710826304093750
-36.8,1710826304109375
-35.87,1710826304125000
-35.12,1710826304140625
-34.49,1710826304156250
-33.85,1710826304171875
-33.21,1710826304187500
-32.79,1710826304203125
-32.92,1710826304218750
-33.84,1710826304234375
-35.53,1710826304250000
-37.71,1710826304265625
-39.84,1710826304281250
-41.39,1710826304296875
-41.95,1710826304312500
-41.29,1710826304328125
-39.42,1710826304343750
-36.5,1710826304359375
-32.8,1710826304375000
-28.6,1710826304390625
-24.31,1710826304406250
-20.32,1710826304421875
-17.09,1710826304437500
-15.01,1710826304453125
-14.27,1710826304468750
-14.76,1710826304484375
-16.09,1710826304500000
-17.73,1710826304515625
-19.17,1710826304531250
-20.16,1710826304546875
-20.71,1710826304562500
-21.0,1710826304578125
-21.25,1710826304593750
-21.6,1710826304609375
-22.15,1710826304625000
-22.91,1710826304640625
-23.9,1710826304656250
-25.01,1710826304671875
-26.01,1710826304687500
-26.5,1710826304703125
-26.03,1710826304718750
-24.33,1710826304734375
-21.34,1710826304750000
-17.33,1710826304765625
-12.76,1710826304781250
-8.07,1710826304796875
-3.63,1710826304812500
0.33,1710826304828125
3.66,1710826304843750
6.24,1710826304859375
8.01,1710826304875000
9.01,1710826304890625
9.44,1710826304906250
9.63,1710826304921875
9.94,1710826304937500
10.63,1710826304953125
11.84,1710826304968750
13.53,1710826304984375
15.44,1710826305000000
17.22,1710826305015625
18.52,1710826305031250
19.09,1710826305046875
18.9,1710826305062500
18.15,1710826305078125
17.27,1710826305093750
16.73,1710826305109375
16.89,1710826305125000
17.88,1710826305140625
19.52,1710826305156250
21.44,1710826305171875
23.13,1710826305187500
24.22,1710826305203125
24.53,1710826305218750
24.07,1710826305234375
23.02,1710826305250000
21.58,1710826305265625
19.92,1710826305281250
18.08,1710826305296875
16.06,1710826305312500
13.82,1710826305328125
11.37,1710826305343750
8.78,1710826305359375
6.21,1710826305375000
3.86,1710826305390625
1.94,1710826305406250
0.68,1710826305421875
0.33,1710826305437500
1.04,1710826305453125
2.86,1710826305468750
5.6,1710826305484375
8.89,1710826305500000
12.19,1710826305515625
14.97,1710826305531250
16.83,1710826305546875
17.59,1710826305562500
17.29,1710826305578125
16.14,1710826305593750
14.39,1710826305609375
12.26,1710826305625000
9.88,1710826305640625
7.29,1710826305656250
4.43,1710826305671875
1.23,1710826305687500
-2.41,1710826305703125
-6.53,1710826305718750
-11.07,1710826305734375
-15.86,1710826305750000
-20.58,1710826305765625
-24.83,1710826305781250
-28.24,1710826305796875
-30.53,1710826305812500
-31.59,1710826305828125
-31.54,1710826305843750
-30.64,1710826305859375
-29.28,1710826305875000
-27.77,1710826305890625
-26.3,1710826305906250
-24.9,1710826305921875
-23.42,1710826305937500
-21.7,1710826305953125
-19.61,1710826305968750
-17.17,1710826305984375
-14.53,1710826306000000
-11.95,1710826306015625
-9.62,1710826306031250
-7.63,1710826306046875
-5.88,1710826306062500
-4.07,1710826306078125
-1.77,1710826306093750
1.48,1710826306109375
5.97,1710826306125000
11.74,1710826306140625
18.5,1710826306156250
25.71,1710826306171875
32.72,1710826306187500
38.93,1710826306203125
43.97,1710826306218750
47.63,1710826306234375
49.82,1710826306250000
50.48,1710826306265625
49.53,1710826306281250
46.92,1710826306296875
42.77,1710826306312500
37.44,1710826306328125
31.55,1710826306343750
25.87,1710826306359375
21.0,1710826306375000
17.29,1710826306390625
14.69,1710826306406250
12.9,1710826306421875
11.56,1710826306437500
10.36,1710826306453125
9.13,1710826306468750
7.73,1710826306484375
5.93,1710826306500000
3.46,1710826306515625
0.14,1710826306531250
-3.94,1710826306546875
-8.33,1710826306562500
-12.3,1710826306578125
-15.22,1710826306593750
-16.77,1710826306609375
-17.15,1710826306625000
-16.93,1710826306640625
-16.76,1710826306656250
-17.04,1710826306671875
-17.84,1710826306687500
-18.89,1710826306703125
-19.76,1710826306718750
-20.05,1710826306734375
-19.51,1710826306750000
-18.01,1710826306765625
-15.55,1710826306781250
-12.14,1710826306796875
-7.76,1710826306812500
-2.39,1710826306828125
4.0,1710826306843750
11.26,1710826306859375
18.97,1710826306875000
26.5,1710826306890625
33.13,1710826306906250
38.31,1710826306921875
41.81,1710826306937500
43.82,1710826306953125
44.71,1710826306968750
44.87,1710826306984375
44.45,1710826307000000
43.39,1710826307015625
41.51,1710826307031250
38.75,1710826307046875
35.15,1710826307062500
30.81,1710826307078125
25.69,1710826307093750
19.35,1710826307109375
10.96,1710826307125000
-0.48,1710826307140625
-15.65,1710826307156250
-34.41,1710826307171875
-55.57,1710826307187500
-77.02,1710826307203125
-96.29,1710826307218750
-111.36,1710826307234375
-121.26,1710826307250000
-126.11,1710826307265625
-126.83,1710826307281250
-124.47,1710826307296875
-119.71,1710826307312500
-112.81,1710826307328125
-103.87,1710826307343750
-93.22,1710826307359375
-81.57,1710826307375000
-69.76,1710826307390625
-58.27,1710826307406250
-46.85,1710826307421875
-34.57,1710826307437500
-20.2,1710826307453125
-2.81,1710826307468750
17.78,1710826307484375
40.97,1710826307500000
65.71,1710826307515625
90.92,1710826307531250
115.84,1710826307546875
139.92,1710826307562500
162.72,1710826307578125
183.68,1710826307593750
202.1,1710826307609375
217.36,1710826307625000
229.32,1710826307640625
238.47,1710826307656250
245.87,1710826307671875
252.98,1710826307687500
261.14,1710826307703125
271.25,1710826307718750
283.49,1710826307734375
297.29,1710826307750000
311.35,1710826307765625
323.86,1710826307781250
332.79,1710826307796875
336.22,1710826307812500
332.68,1710826307828125
321.43,1710826307843750
302.63,1710826307859375
277.39,1710826307875000
247.57,1710826307890625
215.59,1710826307906250
183.95,1710826307921875
154.76,1710826307937500
129.33,1710826307953125
107.96,1710826307968750
90.09,1710826307984375
74.63,1710826308000000
60.42,1710826308015625
46.46,1710826308031250
31.92,1710826308046875
15.98,1710826308062500
-2.18,1710826308078125
-23.21,1710826308093750
-47.19,1710826308109375
-73.25,1710826308125000
-99.63,1710826308140625
-124.1,1710826308156250
-144.76,1710826308171875
-160.74,1710826308187500
-172.4,1710826308203125
-181.11,1710826308218750
-188.48,1710826308234375
-195.6,1710826308250000
-202.59,1710826308265625
-208.77,1710826308281250
-213.24,1710826308296875
-215.5,1710826308312500
-215.87,1710826308328125
-215.2,1710826308343750
-214.38,1710826308359375
-213.78,1710826308375000
-213.08,1710826308390625
-211.67,1710826308406250
-209.22,1710826308421875
-206.15,1710826308437500
-203.43,1710826308453125
-202.02,1710826308468750
-202.15,1710826308484375
-203.06,1710826308500000
-203.26,1710826308515625
-201.29,1710826308531250
-196.41,1710826308546875
-188.89,1710826308562500
-179.68,1710826308578125
-169.73,1710826308593750
-159.62,1710826308609375
-149.44,1710826308625000
-139.02,1710826308640625
-128.29,1710826308656250
-117.54,1710826308671875
-107.33,1710826308687500
-98.18,1710826308703125
-90.35,1710826308718750
-83.74,1710826308734375
-78.04,1710826308750000
-72.93,1710826308765625
-68.21,1710826308781250
-63.83,1710826308796875
-59.73,1710826308812500
-55.89,1710826308828125
-52.3,1710826308843750
-49.12,1710826308859375
-46.72,1710826308875000
-45.46,1710826308890625
-45.5,1710826308906250
-46.58,1710826308921875
-48.23,1710826308937500
-49.99,1710826308953125
-51.72,1710826308968750
-53.54,1710826308984375
-55.72,1710826309000000
-58.14,1710826309015625
-60.31,1710826309031250
-61.43,1710826309046875
-60.93,1710826309062500
-58.72,1710826309078125
-55.25,1710826309093750
-51.21,1710826309109375
-47.07,1710826309125000
-42.88,1710826309140625
-38.33,1710826309156250
-33.05,1710826309171875
-26.97,1710826309187500
-20.28,1710826309203125
-13.37,1710826309218750
-6.51,1710826309234375
0.18,1710826309250000
6.8,1710826309265625
13.43,1710826309281250
20.06,1710826309296875
26.57,1710826309312500
32.76,1710826309328125
38.53,1710826309343750
43.93,1710826309359375
49.0,1710826309375000
53.73,1710826309390625
57.87,1710826309406250
60.99,1710826309421875
62.7,1710826309437500
62.78,1710826309453125
61.4,1710826309468750
59.0,1710826309484375
56.12,1710826309500000
53.17,1710826309515625
50.3,1710826309531250
47.45,1710826309546875
44.48,1710826309562500
41.3,1710826309578125
37.91,1710826309593750
34.34,1710826309609375
30.73,1710826309625000
27.31,1710826309640625
24.49,1710826309656250
22.83,1710826309671875
22.9,1710826309687500
25.03,1710826309703125
29.15,1710826309718750
34.78,1710826309734375
41.19,1710826309750000
47.6,1710826309765625
53.31,1710826309781250
57.83,1710826309796875
60.7,1710826309812500
61.62,1710826309828125
60.49,1710826309843750
57.49,1710826309859375
53.15,1710826309875000
48.18,1710826309890625
43.23,1710826309906250
38.75,1710826309921875
34.95,1710826309937500
31.96,1710826309953125
29.92,1710826309968750
29.0,1710826309984375
29.25,1710826310000000
30.44,1710826310015625
31.97,1710826310031250
33.09,1710826310046875
33.12,1710826310062500
31.83,1710826310078125
29.45,1710826310093750
26.5,1710826310109375
23.54,1710826310125000
20.93,1710826310140625
18.84,1710826310156250
17.37,1710826310171875
16.72,1710826310187500
17.1,1710826310203125
18.54,1710826310218750
20.66,1710826310234375
22.64,1710826310250000
23.57,1710826310265625
22.83,1710826310281250
20.6,1710826310296875
17.76,1710826310312500
15.47,1710826310328125
14.47,1710826310343750
14.44,1710826310359375
14.04,1710826310375000
11.36,1710826310390625
4.72,1710826310406250
-6.75,1710826310421875
-22.94,1710826310437500
-43.05,1710826310453125
-66.11,1710826310468750
-91.34,1710826310484375
-118.22,1710826310500000
-146.35,1710826310515625
-175.19,1710826310531250
-203.92,1710826310546875
-231.44,1710826310562500
-256.36,1710826310578125
-277.1,1710826310593750
-291.95,1710826310609375
-299.23,1710826310625000
-297.5,1710826310640625
-285.78,1710826310656250
-263.83,1710826310671875
-232.26,1710826310687500
-192.64,1710826310703125
-147.53,1710826310718750
-100.32,1710826310734375
-54.95,1710826310750000
-15.21,1710826310765625
15.94,1710826310781250
37.08,1710826310796875
48.51,1710826310812500
52.0,1710826310828125
50.17,1710826310843750
45.73,1710826310859375
40.93,1710826310875000
37.34,1710826310890625
35.8,1710826310906250
36.59,1710826310921875
39.52,1710826310937500
44.04,1710826310953125
49.39,1710826310968750
54.76,1710826310984375
59.45,1710826311000000
63.01,1710826311015625
65.32,1710826311031250
66.53,1710826311046875
66.89,1710826311062500
66.61,1710826311078125
65.72,1710826311093750
64.0,1710826311109375
61.21,1710826311125000
57.3,1710826311140625
52.65,1710826311156250
48.14,1710826311171875
44.87,1710826311187500
43.8,1710826311203125
45.35,1710826311218750
49.2,1710826311234375
54.44,1710826311250000
59.92,1710826311265625
64.67,1710826311281250
68.19,1710826311296875
70.56,1710826311312500
72.24,1710826311328125
73.9,1710826311343750
76.08,1710826311359375
78.95,1710826311375000
82.14,1710826311390625
84.84,1710826311406250
85.98,1710826311421875
84.66,1710826311437500
80.42,1710826311453125
73.48,1710826311468750
64.58,1710826311484375
54.87,1710826311500000
45.64,1710826311515625
38.15,1710826311531250
33.54,1710826311546875
32.61,1710826311562500
35.62,1710826311578125
42.03,1710826311593750
50.42,1710826311609375
58.77,1710826311625000
64.9,1710826311640625
67.06,1710826311656250
64.3,1710826311671875
56.57,1710826311687500
44.44,1710826311703125
28.71,1710826311718750
10.04,1710826311734375
-11.18,1710826311750000
-34.61,1710826311765625
-59.76,1710826311781250
-85.73,1710826311796875
-111.23,1710826311812500
-134.85,1710826311828125
-155.53,1710826311843750
-172.84,1710826311859375
-186.95,1710826311875000
-198.35,1710826311890625
-207.24,1710826311906250
-213.24,1710826311921875
-215.33,1710826311937500
-212.23,1710826311953125
-203.02,1710826311968750
-187.44,1710826311984375
-166.09,1710826312000000
-140.08,1710826312015625
-110.77,1710826312031250
-79.49,1710826312046875
-47.51,1710826312062500
-16.1,1710826312078125
13.5,1710826312093750
40.07,1710826312109375
62.63,1710826312125000
80.55,1710826312140625
93.67,1710826312156250
102.31,1710826312171875
107.18,1710826312187500
109.35,1710826312203125
109.98,1710826312218750
110.13,1710826312234375
110.52,1710826312250000
111.42,1710826312265625
112.66,1710826312281250
113.95,1710826312296875
114.94,1710826312312500
115.46,1710826312328125
115.46,1710826312343750
114.86,1710826312359375
113.54,1710826312375000
111.36,1710826312390625
108.33,1710826312406250
104.57,1710826312421875
100.07,1710826312437500
94.36,1710826312453125
86.4,1710826312468750
74.9,1710826312484375
58.95,1710826312500000
38.74,1710826312515625
15.77,1710826312531250
-7.61,1710826312546875
-29.05,1710826312562500
-47.06,1710826312578125
-61.39,1710826312593750
-72.72,1710826312609375
-81.84,1710826312625000
-89.07,1710826312640625
-93.92,1710826312656250
-95.51,1710826312671875
-93.07,1710826312687500
-86.52,1710826312703125
-76.51,1710826312718750
-64.14,1710826312734375
-50.55,1710826312750000
-36.54,1710826312765625
-22.52,1710826312781250
-8.71,1710826312796875
4.59,1710826312812500
16.84,1710826312828125
27.33,1710826312843750
35.37,1710826312859375
40.66,1710826312875000
43.5,1710826312890625
44.77,1710826312906250
45.6,1710826312921875
46.99,1710826312937500
49.42,1710826312953125
52.81,1710826312968750
56.64,1710826312984375
60.27,1710826313000000
63.27,1710826313015625
65.52,1710826313031250
67.21,1710826313046875
68.66,1710826313062500
70.13,1710826313078125
71.66,1710826313093750
73.1,1710826313109375
74.08,1710826313125000
74.18,1710826313140625
73.01,1710826313156250
70.4,1710826313171875
66.39,1710826313187500
61.23,1710826313203125
55.19,1710826313218750
48.43,1710826313234375
40.87,1710826313250000
32.28,1710826313265625
22.48,1710826313281250
11.49,1710826313296875
-0.37,1710826313312500
-12.5,1710826313328125
-24.17,1710826313343750
-34.59,1710826313359375
-42.93,1710826313375000
-48.29,1710826313390625
-49.78,1710826313406250
-46.64,1710826313421875
-38.53,1710826313437500
-25.82,1710826313453125
-9.69,1710826313468750
8.04,1710826313484375
25.23,1710826313500000
39.93,1710826313515625
50.76,1710826313531250
57.0,1710826313546875
58.6,1710826313562500
56.01,1710826313578125
50.01,1710826313593750
41.59,1710826313609375
31.96,1710826313625000
22.35,1710826313640625
13.87,1710826313656250
7.31,1710826313671875
3.02,1710826313687500
0.9,1710826313703125
0.51,1710826313718750
1.28,1710826313734375
2.63,1710826313750000
4.03,1710826313765625
5.0,1710826313781250
5.06,1710826313796875
3.78,1710826313812500
0.86,1710826313828125
-3.84,1710826313843750
-10.17,1710826313859375
-17.8,1710826313875000
-26.17,1710826313890625
-34.63,1710826313906250
-42.55,1710826313921875
-49.41,1710826313937500
-54.92,1710826313953125
-59.09,1710826313968750
-62.19,1710826313984375
-64.65,1710826314000000
-66.91,1710826314015625
-69.27,1710826314031250
-71.72,1710826314046875
-73.91,1710826314062500
-75.08,1710826314078125
-74.27,1710826314093750
-70.56,1710826314109375
-63.38,1710826314125000
-52.71,1710826314140625
-39.19,1710826314156250
-23.94,1710826314171875
-8.22,1710826314187500
6.88,1710826314203125
20.58,1710826314218750
32.52,1710826314234375
42.54,1710826314250000
50.62,1710826314265625
56.78,1710826314281250
61.14,1710826314296875
63.95,1710826314312500
65.67,1710826314328125
66.84,1710826314343750
67.92,1710826314359375
69.13,1710826314375000
70.3,1710826314390625
71.06,1710826314406250
70.93,1710826314421875
69.57,1710826314437500
66.96,1710826314453125
63.31,1710826314468750
58.9,1710826314484375
53.9,1710826314500000
48.27,1710826314515625
41.81,1710826314531250
34.28,1710826314546875
25.61,1710826314562500
16.09,1710826314578125
6.24,1710826314593750
-3.29,1710826314609375
-11.95,1710826314625000
-19.43,1710826314640625
-25.73,1710826314656250
-31.11,1710826314671875
-36.0,1710826314687500
-40.86,1710826314703125
-45.99,1710826314718750
-51.4,1710826314734375
-56.68,1710826314750000
-60.94,1710826314765625
-63.03,1710826314781250
-61.82,1710826314796875
-56.66,1710826314812500
-47.76,1710826314828125
-36.26,1710826314843750
-23.86,1710826314859375
-12.31,1710826314875000
-2.72,1710826314890625
4.67,1710826314906250
10.49,1710826314921875
15.64,1710826314937500
20.81,1710826314953125
26.12,1710826314968750
31.15,1710826314984375
35.28,1710826315000000
38.17,1710826315015625
40.03,1710826315031250
41.59,1710826315046875
43.73,1710826315062500
47.02,1710826315078125
51.38,1710826315093750
56.09,1710826315109375
60.03,1710826315125000
62.22,1710826315140625
62.13,1710826315156250
59.91,1710826315171875
56.16,1710826315187500
51.65,1710826315203125
46.96,1710826315218750
42.32,1710826315234375
37.72,1710826315250000
33.1,1710826315265625
28.53,1710826315281250
24.22,1710826315296875
20.43,1710826315312500
17.24,1710826315328125
14.51,1710826315343750
12.07,1710826315359375
9.87,1710826315375000
8.15,1710826315390625
7.24,1710826315406250
7.3,1710826315421875
7.93,1710826315437500
8.34,1710826315453125
7.62,1710826315468750
5.46,1710826315484375
2.38,1710826315500000
-0.31,1710826315515625
-1.18,1710826315531250
0.51,1710826315546875
4.5,1710826315562500
9.53,1710826315578125
14.15,1710826315593750
17.33,1710826315609375
18.91,1710826315625000
19.41,1710826315640625
19.58,1710826315656250
19.82,1710826315671875
20.03,1710826315687500
19.84,1710826315703125
18.96,1710826315718750
17.51,1710826315734375
16.06,1710826315750000
15.35,1710826315765625
15.92,1710826315781250
17.89,1710826315796875
20.84,1710826315812500
24.04,1710826315828125
26.75,1710826315843750
28.36,1710826315859375
28.59,1710826315875000
27.37,1710826315890625
24.82,1710826315906250
21.12,1710826315921875
16.54,1710826315937500
11.4,1710826315953125
6.11,1710826315968750
1.15,1710826315984375
-3.03,1710826316000000
-6.06,1710826316015625
-7.7,1710826316031250
-7.89,1710826316046875
-6.76,1710826316062500
-4.69,1710826316078125
-2.24,1710826316093750
-0.15,1710826316109375
0.87,1710826316125000
0.33,1710826316140625
-1.98,1710826316156250
-5.87,1710826316171875
-10.85,1710826316187500
-16.21,1710826316203125
-21.18,1710826316218750
-24.98,1710826316234375
-26.94,1710826316250000
-26.51,1710826316265625
-23.48,1710826316281250
-17.96,1710826316296875
-10.44,1710826316312500
-1.69,1710826316328125
7.42,1710826316343750
16.11,1710826316359375
23.74,1710826316375000
29.94,1710826316390625
34.61,1710826316406250
37.89,1710826316421875
40.08,1710826316437500
41.65,1710826316453125
43.01,1710826316468750
44.52,1710826316484375
46.38,1710826316500000
48.68,1710826316515625
51.44,1710826316531250
54.67,1710826316546875
58.45,1710826316562500
62.98,1710826316578125
68.57,1710826316593750
75.43,1710826316609375
83.52,1710826316625000
92.26,1710826316640625
100.54,1710826316656250
106.87,1710826316671875
109.77,1710826316687500
108.1,1710826316703125
101.33,1710826316718750
89.54,1710826316734375
73.33,1710826316750000
53.63,1710826316765625
31.55,1710826316781250
8.32,1710826316796875
-14.81,1710826316812500
-36.68,1710826316828125
-56.37,1710826316843750
-73.23,1710826316859375
-86.82,1710826316875000
-96.88,1710826316890625
-103.21,1710826316906250
-105.87,1710826316921875
-105.29,1710826316937500
-102.27,1710826316953125
-97.9,1710826316968750
-93.08,1710826316984375
-88.25,1710826317000000
-83.28,1710826317015625
-77.64,1710826317031250
-70.87,1710826317046875
-62.95,1710826317062500
-54.41,1710826317078125
-46.06,1710826317093750
-38.62,1710826317109375
-32.34,1710826317125000
-26.9,1710826317140625
-21.68,1710826317156250
-16.08,1710826317171875
-9.84,1710826317187500
-3.13,1710826317203125
3.61,1710826317218750
9.88,1710826317234375
15.45,1710826317250000
20.34,1710826317265625
24.93,1710826317281250
29.7,1710826317296875
35.1,1710826317312500
41.29,1710826317328125
48.09,1710826317343750
54.88,1710826317359375
60.81,1710826317375000
65.04,1710826317390625
66.99,1710826317406250
66.53,1710826317421875
64.01,1710826317437500
60.13,1710826317453125
55.78,1710826317468750
51.85,1710826317484375
49.1,1710826317500000
47.96,1710826317515625
48.3,1710826317531250
49.3,1710826317546875
49.47,1710826317562500
46.94,1710826317578125
40.08,1710826317593750
28.12,1710826317609375
11.48,1710826317625000
-8.35,1710826317640625
-29.35,1710826317656250
-49.76,1710826317671875
-68.46,1710826317687500
-84.99,1710826317703125
-99.02,1710826317718750
-109.95,1710826317734375
-116.73,1710826317750000
-118.3,1710826317765625
-114.23,1710826317781250
-105.24,1710826317796875
-93.16,1710826317812500
-80.34,1710826317828125
-68.77,1710826317843750
-59.47,1710826317859375
-52.33,1710826317875000
-46.61,1710826317890625
-41.53,1710826317906250
-36.84,1710826317921875
-32.81,1710826317937500
-30.0,1710826317953125
-28.7,1710826317968750
-28.71,1710826317984375
-29.33,1710826318000000
-29.68,1710826318015625
-29.11,1710826318031250
-27.47,1710826318046875
-25.15,1710826318062500
-22.8,1710826318078125
-21.04,1710826318093750
-20.19,1710826318109375
-20.16,1710826318125000
-20.66,1710826318140625
-21.37,1710826318156250
-22.11,1710826318171875
-22.89,1710826318187500
-23.78,1710826318203125
-24.83,1710826318218750
-26.01,1710826318234375
-27.27,1710826318250000
-28.58,1710826318265625
-29.96,1710826318281250
-31.42,1710826318296875
-32.9,1710826318312500
-34.22,1710826318328125
-35.16,1710826318343750
-35.54,1710826318359375
-35.35,1710826318375000
-34.74,1710826318390625
-34.03,1710826318406250
-33.53,1710826318421875
-33.46,1710826318437500
-33.87,1710826318453125
-34.61,1710826318468750
-35.38,1710826318484375
-35.75,1710826318500000
-35.29,1710826318515625
-33.6,1710826318531250
-30.44,1710826318546875
-25.86,1710826318562500
-20.19,1710826318578125
-14.09,1710826318593750
-8.31,1710826318609375
-3.55,1710826318625000
-0.17,1710826318640625
1.84,1710826318656250
2.78,1710826318671875
3.06,1710826318687500
3.01,1710826318703125
2.75,1710826318718750
2.29,1710826318734375
1.67,1710826318750000
1.06,1710826318765625
0.76,1710826318781250
1.0,1710826318796875
1.86,1710826318812500
3.12,1710826318828125
4.41,1710826318843750
5.32,1710826318859375
5.61,1710826318875000
5.21,1710826318890625
4.27,1710826318906250
3.03,1710826318921875
1.74,1710826318937500
0.59,1710826318953125
-0.36,1710826318968750
-1.13,1710826318984375
-1.82,1710826319000000
-2.6,1710826319015625
-3.58,1710826319031250
-4.82,1710826319046875
-6.23,1710826319062500
-7.64,1710826319078125
-8.86,1710826319093750
-9.75,1710826319109375
-10.26,1710826319125000
-10.44,1710826319140625
-10.36,1710826319156250
-10.14,1710826319171875
-9.92,1710826319187500
-9.89,1710826319203125
-10.23,1710826319218750
-11.02,1710826319234375
-12.1,1710826319250000
-13.03,1710826319265625
-13.13,1710826319281250
-11.74,1710826319296875
-8.48,1710826319312500
-3.4,1710826319328125
2.92,1710826319343750
9.58,1710826319359375
15.69,1710826319375000
20.57,1710826319390625
24.01,1710826319406250
26.12,1710826319421875
27.23,1710826319437500
27.66,1710826319453125
27.64,1710826319468750
27.27,1710826319484375
26.6,1710826319500000
25.76,1710826319515625
24.92,1710826319531250
24.29,1710826319546875
24.03,1710826319562500
24.11,1710826319578125
24.39,1710826319593750
24.67,1710826319609375
24.81,1710826319625000
24.77,1710826319640625
24.62,1710826319656250
24.4,1710826319671875
24.05,1710826319687500
23.39,1710826319703125
22.22,1710826319718750
20.37,1710826319734375
17.82,1710826319750000
14.69,1710826319765625
11.19,1710826319781250
7.48,1710826319796875
3.66,1710826319812500
-0.26,1710826319828125
-4.29,1710826319843750
-8.33,1710826319859375
-12.15,1710826319875000
-15.46,1710826319890625
-18.0,1710826319906250
-19.71,1710826319921875
-20.76,1710826319937500
-21.56,1710826319953125
-22.55,1710826319968750
-24.11,1710826319984375
-26.36,1710826320000000
-29.18,1710826320015625
-32.26,1710826320031250
-35.14,1710826320046875
-37.31,1710826320062500
-38.19,1710826320078125
-37.33,1710826320093750
-34.49,1710826320109375
-29.83,1710826320125000
-23.87,1710826320140625
-17.4,1710826320156250
-11.23,1710826320171875
-5.9,1710826320187500
-1.65,1710826320203125
1.6,1710826320218750
4.06,1710826320234375
5.93,1710826320250000
7.28,1710826320265625
8.11,1710826320281250
8.45,1710826320296875
8.36,1710826320312500
8.06,1710826320328125
7.81,1710826320343750
7.87,1710826320359375
8.36,1710826320375000
9.29,1710826320390625
10.47,1710826320406250
11.68,1710826320421875
12.68,1710826320437500
13.33,1710826320453125
13.63,1710826320468750
13.62,1710826320484375
13.37,1710826320500000
12.84,1710826320515625
11.97,1710826320531250
10.65,1710826320546875
8.89,1710826320562500
6.77,1710826320578125
4.47,1710826320593750
2.17,1710826320609375
-0.02,1710826320625000
-2.04,1710826320640625
-3.91,1710826320656250
-5.62,1710826320671875
-7.19,1710826320687500
-8.64,1710826320703125
-10.01,1710826320718750
-11.39,1710826320734375
-12.92,1710826320750000
-14.71,1710826320765625
-16.87,1710826320781250
-19.43,1710826320796875
-22.32,1710826320812500
-25.39,1710826320828125
-28.4,1710826320843750
-31.07,1710826320859375
-33.07,1710826320875000
-34.06,1710826320890625
-33.75,1710826320906250
-32.05,1710826320921875
-29.04,1710826320937500
-25.08,1710826320953125
-20.65,1710826320968750
-16.28,1710826320984375
-12.42,1710826321000000
-9.3,1710826321015625
-6.99,1710826321031250
-5.47,1710826321046875
-4.67,1710826321062500
-4.53,1710826321078125
-5.01,1710826321093750
-6.0,1710826321109375
-7.36,1710826321125000
-8.88,1710826321140625
-10.33,1710826321156250
-11.52,1710826321171875
-12.31,1710826321187500
-12.63,1710826321203125
-12.43,1710826321218750
-11.73,1710826321234375
-10.57,1710826321250000
-8.98,1710826321265625
-6.93,1710826321281250
-4.37,1710826321296875
-1.23,1710826321312500
2.48,1710826321328125
6.66,1710826321343750
11.1,1710826321359375
15.54,1710826321375000
19.81,1710826321390625
23.83,1710826321406250
27.53,1710826321421875
30.8,1710826321437500
33.37,1710826321453125
34.88,1710826321468750
35.04,1710826321484375
33.81,1710826321500000
31.41,1710826321515625
28.34,1710826321531250
25.08,1710826321546875
21.99,1710826321562500
19.12,1710826321578125
16.32,1710826321593750
13.3,1710826321609375
9.83,1710826321625000
5.81,1710826321640625
1.34,1710826321656250
-3.26,1710826321671875
-7.49,1710826321687500
-10.71,1710826321703125
-12.29,1710826321718750
-11.84,1710826321734375
-9.34,1710826321750000
-5.19,1710826321765625
-0.08,1710826321781250
5.15,1710826321796875
9.83,1710826321812500
13.48,1710826321828125
15.91,1710826321843750
17.15,1710826321859375
17.37,1710826321875000
16.86,1710826321890625
15.91,1710826321906250
14.79,1710826321921875
13.72,1710826321937500
12.83,1710826321953125
12.15,1710826321968750
11.69,1710826321984375
11.43,1710826322000000
11.38,1710826322015625
11.54,1710826322031250
11.85,1710826322046875
12.27,1710826322062500
12.65,1710826322078125
12.87,1710826322093750
12.82,1710826322109375
12.42,1710826322125000
11.7,1710826322140625
10.71,1710826322156250
9.53,1710826322171875
8.24,1710826322187500
6.9,1710826322203125
5.53,1710826322218750
4.14,1710826322234375
2.7,1710826322250000
1.19,1710826322265625
-0.46,1710826322281250
-2.27,1710826322296875
-4.22,1710826322312500
-6.2,1710826322328125
-8.08,1710826322343750
-9.77,1710826322359375
-11.35,1710826322375000
-13.04,1710826322390625
-15.14,1710826322406250
-17.82,1710826322421875
-21.02,1710826322437500
-24.32,1710826322453125
-27.11,1710826322468750
-28.71,1710826322484375
-28.65,1710826322500000
-26.72,1710826322515625
-23.08,1710826322531250
-18.2,1710826322546875
-12.76,1710826322562500
-7.48,1710826322578125
-2.99,1710826322593750
0.35,1710826322609375
2.47,1710826322625000
3.51,1710826322640625
3.71,1710826322656250
3.26,1710826322671875
2.23,1710826322687500
0.68,1710826322703125
-1.31,1710826322718750
-3.48,1710826322734375
-5.54,1710826322750000
-7.22,1710826322765625
-8.4,1710826322781250
-9.2,1710826322796875
-9.81,1710826322812500
-10.45,1710826322828125
-11.2,1710826322843750
-12.01,1710826322859375
-12.72,1710826322875000
-13.13,1710826322890625
-13.08,1710826322906250
-12.45,1710826322921875
-11.21,1710826322937500
-9.41,1710826322953125
-7.15,1710826322968750
-4.58,1710826322984375
-1.81,1710826323000000
1.13,1710826323015625
4.23,1710826323031250
7.48,1710826323046875
10.79,1710826323062500
13.91,1710826323078125
16.53,1710826323093750
18.31,1710826323109375
19.02,1710826323125000
18.56,1710826323140625
16.92,1710826323156250
14.21,1710826323171875
10.67,1710826323187500
6.7,1710826323203125
2.9,1710826323218750
0.02,1710826323234375
-1.29,1710826323250000
-0.65,1710826323265625
1.9,1710826323281250
5.87,1710826323296875
10.46,1710826323312500
14.86,1710826323328125
18.43,1710826323343750
20.86,1710826323359375
22.15,1710826323375000
22.51,1710826323390625
22.2,1710826323406250
21.46,1710826323421875
20.42,1710826323437500
19.16,1710826323453125
17.74,1710826323468750
16.28,1710826323484375
14.93,1710826323500000
13.88,1710826323515625
13.25,1710826323531250
13.05,1710826323546875
13.19,1710826323562500
13.48,1710826323578125
13.72,1710826323593750
13.76,1710826323609375
13.55,1710826323625000
13.1,1710826323640625
12.45,1710826323656250
11.61,1710826323671875
10.55,1710826323687500
9.25,1710826323703125
7.71,1710826323718750
5.97,1710826323734375
4.12,1710826323750000
2.25,1710826323765625
0.45,1710826323781250
-1.25,1710826323796875
-2.84,1710826323812500
-4.36,1710826323828125
-5.88,1710826323843750
-7.48,1710826323859375
-9.27,1710826323875000
-11.36,1710826323890625
-13.82,1710826323906250
-16.58,1710826323921875
-19.41,1710826323937500
-21.86,1710826323953125
-23.41,1710826323968750
-23.58,1710826323984375
-22.06,1710826324000000
-18.87,1710826324015625
-14.25,1710826324031250
-8.73,1710826324046875
-2.99,1710826324062500
2.3,1710826324078125
6.54,1710826324093750
9.35,1710826324109375
10.67,1710826324125000
10.71,1710826324140625
9.9,1710826324156250
8.71,1710826324171875
7.55,1710826324187500
6.64,1710826324203125
6.08,1710826324218750
5.86,1710826324234375
5.94,1710826324250000
6.27,1710826324265625
6.81,1710826324281250
7.49,1710826324296875
8.2,1710826324312500
8.84,1710826324328125
9.3,1710826324343750
9.51,1710826324359375
9.42,1710826324375000
9.07,1710826324390625
8.47,1710826324406250
7.68,1710826324421875
6.73,1710826324437500
5.62,1710826324453125
4.34,1710826324468750
2.86,1710826324484375
1.23,1710826324500000
-0.52,1710826324515625
-2.26,1710826324531250
-3.89,1710826324546875
-5.34,1710826324562500
-6.6,1710826324578125
-7.76,1710826324593750
-8.92,1710826324609375
-10.23,1710826324625000
-11.81,1710826324640625
-13.71,1710826324656250
-15.89,1710826324671875
-18.2,1710826324687500
-20.33,1710826324703125
-21.86,1710826324718750
-22.32,1710826324734375
-21.32,1710826324750000
-18.68,1710826324765625
-14.55,1710826324781250
-9.36,1710826324796875
-3.73,1710826324812500
1.72,1710826324828125
6.49,1710826324843750
10.23,1710826324859375
12.82,1710826324875000
14.25,1710826324890625
14.63,1710826324906250
14.11,1710826324921875
12.97,1710826324937500
11.57,1710826324953125
10.29,1710826324968750
9.44,1710826324984375
9.18,1710826325000000
9.47,1710826325015625
10.09,1710826325031250
10.79,1710826325046875
11.3,1710826325062500
11.49,1710826325078125
11.34,1710826325093750
10.91,1710826325109375
10.3,1710826325125000
9.6,1710826325140625
8.82,1710826325156250
7.95,1710826325171875
6.95,1710826325187500
5.77,1710826325203125
4.37,1710826325218750
2.76,1710826325234375
0.98,1710826325250000
-0.92,1710826325265625
-2.87,1710826325281250
-4.83,1710826325296875
-6.78,1710826325312500
-8.74,1710826325328125
-10.71,1710826325343750
-12.72,1710826325359375
-14.76,1710826325375000
-16.91,1710826325390625
-19.26,1710826325406250
-21.89,1710826325421875
-24.77,1710826325437500
-27.71,1710826325453125
-30.28,1710826325468750
-31.99,1710826325484375
-32.37,1710826325500000
-31.19,1710826325515625
-28.49,1710826325531250
-24.69,1710826325546875
-20.36,1710826325562500
-16.11,1710826325578125
-12.44,1710826325593750
-9.71,1710826325609375
-8.08,1710826325625000
-7.58,1710826325640625
-8.13,1710826325656250
-9.51,1710826325671875
-11.33,1710826325687500
-13.06,1710826325703125
-14.14,1710826325718750
-14.08,1710826325734375
-12.6,1710826325750000
-9.68,1710826325765625
-5.54,1710826325781250
-0.51,1710826325796875
5.0,1710826325812500
10.66,1710826325828125
16.22,1710826325843750
21.5,1710826325859375
26.32,1710826325875000
30.55,1710826325890625
34.01,1710826325906250
36.55,1710826325921875
38.02,1710826325937500
38.31,1710826325953125
37.4,1710826325968750
35.39,1710826325984375
32.47,1710826326000000
29.0,1710826326015625
25.36,1710826326031250
21.9,1710826326046875
18.83,1710826326062500
16.22,1710826326078125
13.98,1710826326093750
11.89,1710826326109375
9.75,1710826326125000
7.4,1710826326140625
4.73,1710826326156250
1.73,1710826326171875
-1.53,1710826326187500
-4.86,1710826326203125
-7.96,1710826326218750
-10.44,1710826326234375
-11.88,1710826326250000
-11.88,1710826326265625
-10.28,1710826326281250
-7.15,1710826326296875
-2.91,1710826326312500
1.81,1710826326328125
6.32,1710826326343750
10.03,1710826326359375
12.58,1710826326375000
13.93,1710826326390625
14.23,1710826326406250
13.81,1710826326421875
12.97,1710826326437500
11.99,1710826326453125
11.12,1710826326468750
10.5,1710826326484375
10.22,1710826326500000
10.3,1710826326515625
10.66,1710826326531250
11.2,1710826326546875
11.79,1710826326562500
12.34,1710826326578125
12.8,1710826326593750
13.14,1710826326609375
13.34,1710826326625000
13.45,1710826326640625
13.49,1710826326656250
13.44,1710826326671875
13.23,1710826326687500
12.71,1710826326703125
11.77,1710826326718750
10.35,1710826326734375
8.58,1710826326750000
6.69,1710826326765625
4.99,1710826326781250
3.7,1710826326796875
2.88,1710826326812500
2.42,1710826326828125
2.08,1710826326843750
1.66,1710826326859375
1.04,1710826326875000
0.23,1710826326890625
-0.71,1710826326906250
-1.68,1710826326921875
-2.65,1710826326937500
-3.51,1710826326953125
-4.1,1710826326968750
-4.17,1710826326984375
-3.44,1710826327000000
-1.72,1710826327015625
0.97,1710826327031250
4.39,1710826327046875
8.1,1710826327062500
11.63,1710826327078125
14.6,1710826327093750
16.83,1710826327109375
18.3,1710826327125000
19.08,1710826327140625
19.23,1710826327156250
18.81,1710826327171875
17.86,1710826327187500
16.51,1710826327203125
14.89,1710826327218750
13.15,1710826327234375
11.38,1710826327250000
9.57,1710826327265625
7.65,1710826327281250
5.55,1710826327296875
3.29,1710826327312500
0.94,1710826327328125
-1.39,1710826327343750
-3.61,1710826327359375
-5.71,1710826327375000
-7.7,1710826327390625
-9.61,1710826327406250
-11.48,1710826327421875
-13.36,1710826327437500
-15.33,1710826327453125
-17.54,1710826327468750
-20.04,1710826327484375
-22.81,1710826327500000
-25.7,1710826327515625
-28.42,1710826327531250
-30.71,1710826327546875
-32.43,1710826327562500
-33.61,1710826327578125
-34.49,1710826327593750
-35.39,1710826327609375
-36.59,1710826327625000
-38.21,1710826327640625
-40.16,1710826327656250
-42.09,1710826327671875
-43.54,1710826327687500
-43.96,1710826327703125
-42.92,1710826327718750
-40.21,1710826327734375
-35.92,1710826327750000
-30.41,1710826327765625
-24.24,1710826327781250
-18.05,1710826327796875
-12.42,1710826327812500
-7.75,1710826327828125
-4.18,1710826327843750
-1.67,1710826327859375
0.0,1710826327875000
1.1,1710826327890625
1.84,1710826327906250
2.39,1710826327921875
2.83,1710826327937500
3.26,1710826327953125
3.8,1710826327968750
4.73,1710826327984375
6.41,1710826328000000
9.25,1710826328015625
13.5,1710826328031250
19.07,1710826328046875
25.42,1710826328062500
31.65,1710826328078125
36.67,1710826328093750
39.51,1710826328109375
39.6,1710826328125000
36.88,1710826328140625
31.79,1710826328156250
25.18,1710826328171875
18.05,1710826328187500
11.34,1710826328203125
5.71,1710826328218750
1.4,1710826328234375
-1.81,1710826328250000
-4.44,1710826328265625
-7.11,1710826328281250
-10.34,1710826328296875
-14.38,1710826328312500
-19.26,1710826328328125
-24.85,1710826328343750
-30.94,1710826328359375
-37.22,1710826328375000
-43.22,1710826328390625
-48.3,1710826328406250
-51.83,1710826328421875
-53.31,1710826328437500
-52.63,1710826328453125
-50.0,1710826328468750
-45.99,1710826328484375
-41.35,1710826328500000
-36.76,1710826328515625
-32.68,1710826328531250
-29.19,1710826328546875
-26.13,1710826328562500
-23.07,1710826328578125
-19.45,1710826328593750
-14.58,1710826328609375
-7.98,1710826328625000
0.52,1710826328640625
10.52,1710826328656250
21.24,1710826328671875
31.68,1710826328687500
40.92,1710826328703125
48.32,1710826328718750
53.62,1710826328734375
57.15,1710826328750000
59.38,1710826328765625
60.66,1710826328781250
61.04,1710826328796875
60.43,1710826328812500
58.75,1710826328828125
56.02,1710826328843750
52.39,1710826328859375
48.05,1710826328875000
43.94,1710826328890625
40.8,1710826328906250
38.78,1710826328921875
37.37,1710826328937500
35.83,1710826328953125
33.68,1710826328968750
30.86,1710826328984375
27.56,1710826329000000
24.06,1710826329015625
21.9,1710826329031250
22.05,1710826329046875
24.31,1710826329062500
27.3,1710826329078125
29.55,1710826329093750
30.55,1710826329109375
30.84,1710826329125000
31.45,1710826329140625
33.26,1710826329156250
38.78,1710826329171875
49.23,1710826329187500
63.65,1710826329203125
79.12,1710826329218750
92.57,1710826329234375
102.39,1710826329250000
108.76,1710826329265625
112.84,1710826329281250
116.14,1710826329296875
122.91,1710826329312500
136.5,1710826329328125
157.73,1710826329343750
184.5,1710826329359375
213.3,1710826329375000
240.88,1710826329390625
264.76,1710826329406250
283.27,1710826329421875
277.66,1710826329437500
238.11,1710826329453125
169.2,1710826329468750
88.71,1710826329484375
14.95,1710826329500000
-43.29,1710826329515625
-86.51,1710826329531250
-119.14,1710826329546875
-145.11,1710826329562500
-166.04,1710826329578125
-178.87,1710826329593750
-181.76,1710826329609375
-175.22,1710826329625000
-162.68,1710826329640625
-148.74,1710826329656250
-136.93,1710826329671875
-128.89,1710826329687500
-124.9,1710826329703125
-124.59,1710826329718750
-125.5,1710826329734375
-124.67,1710826329750000
-121.19,1710826329765625
-115.97,1710826329781250
-110.38,1710826329796875
-105.23,1710826329812500
-100.52,1710826329828125
-95.98,1710826329843750
-91.3,1710826329859375
-85.21,1710826329875000
-76.99,1710826329890625
-67.04,1710826329906250
-56.78,1710826329921875
-47.76,1710826329937500
-41.23,1710826329953125
-37.37,1710826329968750
-35.4,1710826329984375
-33.51,1710826330000000
-29.88,1710826330015625
-23.54,1710826330031250
-14.86,1710826330046875
-5.04,1710826330062500
4.39,1710826330078125
11.45,1710826330093750
15.14,1710826330109375
15.77,1710826330125000
15.64,1710826330140625
16.23,1710826330156250
18.13,1710826330171875
20.86,1710826330187500
23.56,1710826330203125
25.21,1710826330218750
23.63,1710826330234375
17.52,1710826330250000
7.29,1710826330265625
-3.6,1710826330281250
-13.27,1710826330296875
-21.02,1710826330312500
-27.36,1710826330328125
-33.04,1710826330343750
-39.02,1710826330359375
-48.05,1710826330375000
-62.22,1710826330390625
-81.7,1710826330406250
-102.94,1710826330421875
-124.12,1710826330437500
-144.17,1710826330453125
-162.49,1710826330468750
-177.77,1710826330484375
-177.05,1710826330500000
-153.15,1710826330515625
-109.06,1710826330531250
-68.25,1710826330546875
-37.39,1710826330562500
-17.57,1710826330578125
-4.35,1710826330593750
3.98,1710826330609375
9.12,1710826330625000
12.61,1710826330640625
13.78,1710826330656250
11.96,1710826330671875
7.55,1710826330687500
4.04,1710826330703125
2.7,1710826330718750
3.57,1710826330734375
5.74,1710826330750000
8.67,1710826330765625
11.9,1710826330781250
13.6,1710826330796875
12.38,1710826330812500
8.19,1710826330828125
3.85,1710826330843750
0.71,1710826330859375
-0.75,1710826330875000
-0.89,1710826330890625
-0.02,1710826330906250
1.38,1710826330921875
1.79,1710826330937500
-0.03,1710826330953125
-4.26,1710826330968750
-9.0,1710826330984375
-12.93,1710826331000000
-15.12,1710826331015625
-15.21,1710826331031250
-13.07,1710826331046875
-8.95,1710826331062500
-3.84,1710826331078125
1.33,1710826331093750
6.27,1710826331109375
11.72,1710826331125000
18.2,1710826331140625
25.98,1710826331156250
35.13,1710826331171875
45.78,1710826331187500
58.08,1710826331203125
71.93,1710826331218750
86.94,1710826331234375
102.39,1710826331250000
117.33,1710826331265625
130.43,1710826331281250
140.38,1710826331296875
146.35,1710826331312500
148.2,1710826331328125
146.38,1710826331343750
141.66,1710826331359375
134.86,1710826331375000
126.68,1710826331390625
117.72,1710826331406250
108.46,1710826331421875
99.33,1710826331437500
90.59,1710826331453125
82.27,1710826331468750
74.12,1710826331484375
65.61,1710826331500000
56.11,1710826331515625
45.07,1710826331531250
32.24,1710826331546875
17.81,1710826331562500
2.47,1710826331578125
-12.6,1710826331593750
-25.98,1710826331609375
-36.28,1710826331625000
-42.65,1710826331640625
-45.07,1710826331656250
-44.44,1710826331671875
-42.4,1710826331687500
-40.8,1710826331703125
-41.05,1710826331718750
-43.71,1710826331734375
-48.37,1710826331750000
-53.94,1710826331765625
-59.19,1710826331781250
-63.24,1710826331796875
-65.8,1710826331812500
-67.06,1710826331828125
-67.42,1710826331843750
-67.18,1710826331859375
-66.48,1710826331875000
-65.37,1710826331890625
-63.96,1710826331906250
-62.46,1710826331921875
-61.17,1710826331937500
-60.29,1710826331953125
-59.75,1710826331968750
-59.21,1710826331984375
-58.18,1710826332000000
-56.19,1710826332015625
-53.0,1710826332031250
-48.68,1710826332046875
-43.5,1710826332062500
-37.9,1710826332078125
-32.24,1710826332093750
-26.82,1710826332109375
-21.79,1710826332125000
-17.25,1710826332140625
-13.25,1710826332156250
-9.86,1710826332171875
-7.18,1710826332187500
-5.27,1710826332203125
-4.16,1710826332218750
-3.7,1710826332234375
-3.64,1710826332250000
-3.66,1710826332265625
-3.51,1710826332281250
-3.06,1710826332296875
-2.35,1710826332312500
-1.52,1710826332328125
-0.7,1710826332343750
0.03,1710826332359375
0.68,1710826332375000
1.32,1710826332390625
1.99,1710826332406250
2.68,1710826332421875
3.29,1710826332437500
3.69,1710826332453125
3.77,1710826332468750
3.49,1710826332484375
2.9,1710826332500000
2.15,1710826332515625
1.43,1710826332531250
0.93,1710826332546875
0.68,1710826332562500
0.64,1710826332578125
0.62,1710826332593750
0.47,1710826332609375
0.05,1710826332625000
-0.65,1710826332640625
-1.54,1710826332656250
-2.55,1710826332671875
-3.56,1710826332687500
-4.53,1710826332703125
-5.44,1710826332718750
-6.33,1710826332734375
-7.24,1710826332750000
-8.22,1710826332765625
-9.24,1710826332781250
-10.16,1710826332796875
-10.71,1710826332812500
-10.6,1710826332828125
-9.6,1710826332843750
-7.68,1710826332859375
-5.03,1710826332875000
-2.0,1710826332890625
1.02,1710826332906250
3.74,1710826332921875
6.0,1710826332937500
7.77,1710826332953125
9.11,1710826332968750
10.05,1710826332984375
10.57,1710826333000000
10.68,1710826333015625
10.41,1710826333031250
9.87,1710826333046875
9.25,1710826333062500
8.74,1710826333078125
8.47,1710826333093750
8.46,1710826333109375
8.65,1710826333125000
8.98,1710826333140625
9.4,1710826333156250
9.88,1710826333171875
10.32,1710826333187500
10.54,1710826333203125
10.29,1710826333218750
9.37,1710826333234375
7.79,1710826333250000
5.77,1710826333265625
3.73,1710826333281250
2.05,1710826333296875
0.99,1710826333312500
0.55,1710826333328125
0.54,1710826333343750
0.66,1710826333359375
0.68,1710826333375000
0.39,1710826333390625
-0.3,1710826333406250
-1.4,1710826333421875
-2.79,1710826333437500
-4.29,1710826333453125
-5.62,1710826333468750
-6.58,1710826333484375
-7.11,1710826333500000
-7.38,1710826333515625
-7.65,1710826333531250
-8.21,1710826333546875
-9.15,1710826333562500
-10.34,1710826333578125
-11.44,1710826333593750
-11.99,1710826333609375
-11.58,1710826333625000
-9.97,1710826333640625
-7.23,1710826333656250
-3.69,1710826333671875
0.07,1710826333687500
3.47,1710826333703125
6.08,1710826333718750
7.79,1710826333734375
8.73,1710826333750000
9.17,1710826333765625
9.34,1710826333781250
9.3,1710826333796875
9.01,1710826333812500
8.43,1710826333828125
7.63,1710826333843750
6.81,1710826333859375
6.22,1710826333875000
6.04,1710826333890625
6.27,1710826333906250
6.75,1710826333921875
7.25,1710826333937500
7.58,1710826333953125
7.61,1710826333968750
7.32,1710826333984375
6.73,1710826334000000
5.88,1710826334015625
4.84,1710826334031250
3.68,1710826334046875
2.47,1710826334062500
1.29,1710826334078125
0.15,1710826334093750
-0.95,1710826334109375
-2.09,1710826334125000
-3.37,1710826334140625
-4.9,1710826334156250
-6.72,1710826334171875
-8.8,1710826334187500
-11.08,1710826334203125
-13.44,1710826334218750
-15.79,1710826334234375
-18.09,1710826334250000
-20.33,1710826334265625
-22.51,1710826334281250
-24.63,1710826334296875
-26.72,1710826334312500
-28.84,1710826334328125
-31.06,1710826334343750
-33.44,1710826334359375
-35.88,1710826334375000
-38.11,1710826334390625
-39.75,1710826334406250
-40.46,1710826334421875
-40.01,1710826334437500
-38.45,1710826334453125
-36.04,1710826334468750
-33.12,1710826334484375
-29.95,1710826334500000
-26.69,1710826334515625
-23.33,1710826334531250
-19.84,1710826334546875
-16.2,1710826334562500
-12.43,1710826334578125
-8.52,1710826334593750
-4.53,1710826334609375
-0.51,1710826334625000
3.47,1710826334640625
7.35,1710826334656250
11.13,1710826334671875
14.87,1710826334687500
18.73,1710826334703125
22.92,1710826334718750
27.57,1710826334734375
32.65,1710826334750000
37.84,1710826334765625
42.69,1710826334781250
46.75,1710826334796875
49.74,1710826334812500
51.45,1710826334828125
52.04,1710826334843750
51.9,1710826334859375
51.58,1710826334875000
51.43,1710826334890625
51.53,1710826334906250
51.66,1710826334921875
51.56,1710826334937500
50.92,1710826334953125
49.34,1710826334968750
46.69,1710826334984375
43.2,1710826335000000
39.27,1710826335015625
35.19,1710826335031250
30.91,1710826335046875
26.2,1710826335062500
20.88,1710826335078125
14.81,1710826335093750
7.61,1710826335109375
-0.77,1710826335125000
-9.91,1710826335140625
-18.98,1710826335156250
-27.22,1710826335171875
-34.2,1710826335187500
-39.71,1710826335203125
-43.65,1710826335218750
-46.11,1710826335234375
-47.89,1710826335250000
-49.57,1710826335265625
-51.21,1710826335281250
-52.31,1710826335296875
-52.22,1710826335312500
-50.68,1710826335328125
-47.68,1710826335343750
-43.37,1710826335359375
-34.34,1710826335375000
-19.74,1710826335390625
-1.93,1710826335406250
14.68,1710826335421875
26.77,1710826335437500
33.58,1710826335453125
36.24,1710826335468750
36.15,1710826335484375
35.25,1710826335500000
34.6,1710826335515625
33.79,1710826335531250
31.97,1710826335546875
28.42,1710826335562500
22.85,1710826335578125
16.14,1710826335593750
9.0,1710826335609375
2.23,1710826335625000
-3.31,1710826335640625
-7.06,1710826335656250
-9.32,1710826335671875
-10.5,1710826335687500
-10.77,1710826335703125
-9.92,1710826335718750
-7.64,1710826335734375
-3.92,1710826335750000
1.07,1710826335765625
7.06,1710826335781250
13.61,1710826335796875
19.97,1710826335812500
25.54,1710826335828125
29.99,1710826335843750
33.21,1710826335859375
35.19,1710826335875000
35.85,1710826335890625
35.31,1710826335906250
33.9,1710826335921875
32.03,1710826335937500
29.91,1710826335953125
27.66,1710826335968750
25.41,1710826335984375
23.38,1710826336000000
21.78,1710826336015625
20.78,1710826336031250
20.47,1710826336046875
20.86,1710826336062500
21.79,1710826336078125
22.92,1710826336093750
23.9,1710826336109375
24.39,1710826336125000
24.07,1710826336140625
22.68,1710826336156250
20.02,1710826336171875
16.14,1710826336187500
11.35,1710826336203125
6.26,1710826336218750
1.52,1710826336234375
-2.39,1710826336250000
-5.33,1710826336265625
-7.44,1710826336281250
-9.01,1710826336296875
-10.21,1710826336312500
-10.97,1710826336328125
-11.07,1710826336343750
-10.28,1710826336359375
-8.55,1710826336375000
-6.2,1710826336390625
-3.76,1710826336406250
-1.82,1710826336421875
-0.75,1710826336437500
-0.54,1710826336453125
-0.82,1710826336468750
-1.03,1710826336484375
-0.63,1710826336500000
0.66,1710826336515625
2.82,1710826336531250
5.46,1710826336546875
7.98,1710826336562500
9.74,1710826336578125
10.14,1710826336593750
8.85,1710826336609375
5.95,1710826336625000
1.93,1710826336640625
-2.37,1710826336656250
-6.07,1710826336671875
-8.52,1710826336687500
-9.61,1710826336703125
-9.72,1710826336718750
-9.56,1710826336734375
-9.79,1710826336750000
-10.81,1710826336765625
-12.67,1710826336781250
-15.17,1710826336796875
-18.07,1710826336812500
-21.33,1710826336828125
-25.08,1710826336843750
-29.53,1710826336859375
-34.81,1710826336875000
-40.81,1710826336890625
-47.13,1710826336906250
-53.17,1710826336921875
-58.28,1710826336937500
-61.93,1710826336953125
-63.81,1710826336968750
-63.81,1710826336984375
-62.03,1710826337000000
-58.64,1710826337015625
-53.86,1710826337031250
-47.99,1710826337046875
-41.45,1710826337062500
-34.76,1710826337078125
-28.47,1710826337093750
-23.04,1710826337109375
-18.73,1710826337125000
-15.55,1710826337140625
-13.39,1710826337156250
-12.03,1710826337171875
-11.26,1710826337187500
-10.91,1710826337203125
-10.84,1710826337218750
-11.03,1710826337234375
-11.51,1710826337250000
-12.36,1710826337265625
-13.67,1710826337281250
-15.43,1710826337296875
-17.47,1710826337312500
-19.46,1710826337328125
-20.87,1710826337343750
-21.22,1710826337359375
-20.17,1710826337375000
-17.69,1710826337390625
-14.07,1710826337406250
-9.83,1710826337421875
-5.6,1710826337437500
-1.87,1710826337453125
1.08,1710826337468750
3.21,1710826337484375
4.63,1710826337500000
5.46,1710826337515625
5.75,1710826337531250
5.46,1710826337546875
4.58,1710826337562500
3.26,1710826337578125
1.79,1710826337593750
0.6,1710826337609375
0.0,1710826337625000
0.08,1710826337640625
0.67,1710826337656250
1.45,1710826337671875
2.15,1710826337687500
2.65,1710826337703125
3.05,1710826337718750
3.52,1710826337734375
4.15,1710826337750000
4.87,1710826337765625
5.42,1710826337781250
5.49,1710826337796875
4.91,1710826337812500
3.66,1710826337828125
1.99,1710826337843750
0.2,1710826337859375
-1.41,1710826337875000
-2.75,1710826337890625
-3.9,1710826337906250
-5.12,1710826337921875
-6.69,1710826337937500
-8.82,1710826337953125
-11.57,1710826337968750
-14.75,1710826337984375
-17.92,1710826338000000
-20.49,1710826338015625
-21.78,1710826338031250
-21.27,1710826338046875
-18.74,1710826338062500
-14.35,1710826338078125
-8.66,1710826338093750
-2.46,1710826338109375
3.54,1710826338125000
8.78,1710826338140625
13.02,1710826338156250
16.23,1710826338171875
18.48,1710826338187500
19.87,1710826338203125
20.45,1710826338218750
20.33,1710826338234375
19.64,1710826338250000
18.61,1710826338265625
17.47,1710826338281250
16.46,1710826338296875
15.76,1710826338312500
15.46,1710826338328125
15.54,1710826338343750
15.86,1710826338359375
16.23,1710826338375000
16.5,1710826338390625
16.6,1710826338406250
16.57,1710826338421875
16.55,1710826338437500
16.59,1710826338453125
16.58,1710826338468750
16.27,1710826338484375
15.32,1710826338500000
13.46,1710826338515625
10.64,1710826338531250
7.01,1710826338546875
2.87,1710826338562500
-1.44,1710826338578125
-5.6,1710826338593750
-9.42,1710826338609375
-12.81,1710826338625000
-15.81,1710826338640625
-18.61,1710826338656250
-21.49,1710826338671875
-24.65,1710826338687500
-28.07,1710826338703125
-31.3,1710826338718750
-33.6,1710826338734375
-34.15,1710826338750000
-32.31,1710826338765625
-27.93,1710826338781250
-21.39,1710826338796875
-13.42,1710826338812500
-4.93,1710826338828125
3.24,1710826338843750
10.42,1710826338859375
16.24,1710826338875000
20.54,1710826338890625
23.41,1710826338906250
25.04,1710826338921875
25.71,1710826338937500
25.66,1710826338953125
25.11,1710826338968750
24.21,1710826338984375
23.17,1710826339000000
22.24,1710826339015625
21.69,1710826339031250
21.77,1710826339046875
22.53,1710826339062500
23.86,1710826339078125
25.45,1710826339093750
26.91,1710826339109375
27.9,1710826339125000
28.2,1710826339140625
27.78,1710826339156250
26.76,1710826339171875
25.39,1710826339187500
23.88,1710826339203125
22.39,1710826339218750
20.85,1710826339234375
19.06,1710826339250000
16.76,1710826339265625
13.75,1710826339281250
10.01,1710826339296875
5.74,1710826339312500
1.23,1710826339328125
-3.14,1710826339343750
-7.1,1710826339359375
-10.51,1710826339375000
-13.44,1710826339390625
-16.1,1710826339406250
-18.79,1710826339421875
-21.77,1710826339437500
-25.09,1710826339453125
-28.43,1710826339468750
-31.13,1710826339484375
-32.3,1710826339500000
-31.13,1710826339515625
-27.18,1710826339531250
-20.62,1710826339546875
-12.24,1710826339562500
-3.23,1710826339578125
5.19,1710826339593750
12.07,1710826339609375
17.01,1710826339625000
20.12,1710826339640625
21.87,1710826339656250
22.81,1710826339671875
23.32,1710826339687500
23.52,1710826339703125
23.38,1710826339718750
22.8,1710826339734375
21.84,1710826339750000
20.72,1710826339765625
19.81,1710826339781250
19.41,1710826339796875
19.64,1710826339812500
20.36,1710826339828125
21.26,1710826339843750
21.98,1710826339859375
22.21,1710826339875000
21.84,1710826339890625
20.84,1710826339906250
19.25,1710826339921875
17.08,1710826339937500
14.38,1710826339953125
11.26,1710826339968750
7.94,1710826339984375
4.76,1710826340000000
2.03,1710826340015625
-0.06,1710826340031250
-1.52,1710826340046875
-2.57,1710826340062500
-3.54,1710826340078125
-4.67,1710826340093750
-6.06,1710826340109375
-7.64,1710826340125000
-9.26,1710826340140625
-10.8,1710826340156250
-12.22,1710826340171875
-13.62,1710826340187500
-15.2,1710826340203125
-17.15,1710826340218750
-19.57,1710826340234375
-22.36,1710826340250000
-25.13,1710826340265625
-27.24,1710826340281250
-27.93,1710826340296875
-26.5,1710826340312500
-22.68,1710826340328125
-16.69,1710826340343750
-9.22,1710826340359375
-1.24,1710826340375000
6.36,1710826340390625
13.05,1710826340406250
18.73,1710826340421875
23.67,1710826340437500
28.25,1710826340453125
32.75,1710826340468750
37.27,1710826340484375
41.68,1710826340500000
45.72,1710826340515625
49.03,1710826340531250
51.18,1710826340546875
51.72,1710826340562500
50.29,1710826340578125
46.84,1710826340593750
41.77,1710826340609375
36.02,1710826340625000
30.8,1710826340640625
27.26,1710826340656250
26.08,1710826340671875
27.19,1710826340687500
29.85,1710826340703125
32.94,1710826340718750
35.4,1710826340734375
36.53,1710826340750000
36.1,1710826340765625
34.24,1710826340781250
31.24,1710826340796875
27.45,1710826340812500
23.23,1710826340828125
18.99,1710826340843750
15.1,1710826340859375
11.78,1710826340875000
8.98,1710826340890625
6.34,1710826340906250
3.3,1710826340921875
-0.53,1710826340937500
-5.19,1710826340953125
-10.23,1710826340968750
-14.96,1710826340984375
-18.71,1710826341000000
-21.12,1710826341015625
-22.21,1710826341031250
-22.22,1710826341046875
-21.42,1710826341062500
-19.92,1710826341078125
-17.82,1710826341093750
-15.21,1710826341109375
-12.38,1710826341125000
-9.83,1710826341140625
-8.05,1710826341156250
-7.41,1710826341171875
-7.96,1710826341187500
-9.48,1710826341203125
-11.59,1710826341218750
-14.04,1710826341234375
-16.71,1710826341250000
-19.68,1710826341265625
-23.0,1710826341281250
-26.61,1710826341296875
-30.18,1710826341312500
-33.25,1710826341328125
-35.35,1710826341343750
-36.18,1710826341359375
-35.75,1710826341375000
-34.37,1710826341390625
-32.48,1710826341406250
-30.48,1710826341421875
-28.64,1710826341437500
-27.0,1710826341453125
-25.5,1710826341468750
-24.02,1710826341484375
-22.51,1710826341500000
-21.07,1710826341515625
-19.91,1710826341531250
-19.25,1710826341546875
-19.27,1710826341562500
-19.97,1710826341578125
-21.2,1710826341593750
-22.7,1710826341609375
-24.16,1710826341625000
-25.38,1710826341640625
-26.25,1710826341656250
-26.81,1710826341671875
-27.17,1710826341687500
-27.51,1710826341703125
-27.95,1710826341718750
-28.48,1710826341734375
-28.91,1710826341750000
-28.9,1710826341765625
-27.93,1710826341781250
-25.54,1710826341796875
-21.42,1710826341812500
-15.54,1710826341828125
-8.21,1710826341843750
0.04,1710826341859375
8.61,1710826341875000
16.95,1710826341890625
24.65,1710826341906250
31.46,1710826341921875
37.18,1710826341937500
41.66,1710826341953125
44.76,1710826341968750
46.45,1710826341984375
46.84,1710826342000000
46.17,1710826342015625
44.75,1710826342031250
42.83,1710826342046875
40.55,1710826342062500
37.9,1710826342078125
34.86,1710826342093750
31.45,1710826342109375
27.81,1710826342125000
24.13,1710826342140625
20.66,1710826342156250
17.53,1710826342171875
14.72,1710826342187500
12.01,1710826342203125
8.94,1710826342218750
4.94,1710826342234375
-0.54,1710826342250000
-7.82,1710826342265625
-16.89,1710826342281250
-27.32,1710826342296875
-38.45,1710826342312500
-49.51,1710826342328125
-59.84,1710826342343750
-68.94,1710826342359375
-76.57,1710826342375000
-82.72,1710826342390625
-87.68,1710826342406250
-91.98,1710826342421875
-96.34,1710826342437500
-101.4,1710826342453125
-107.49,1710826342468750
-114.46,1710826342484375
-121.59,1710826342500000
-127.79,1710826342515625
-131.79,1710826342531250
-132.5,1710826342546875
-129.22,1710826342562500
-121.81,1710826342578125
-110.79,1710826342593750
-97.2,1710826342609375
-82.41,1710826342625000
-67.74,1710826342640625
-54.18,1710826342656250
-42.22,1710826342671875
-31.93,1710826342687500
-23.09,1710826342703125
-15.44,1710826342718750
-8.72,1710826342734375
-2.63,1710826342750000
3.18,1710826342765625
9.09,1710826342781250
15.44,1710826342796875
22.33,1710826342812500
29.68,1710826342828125
37.35,1710826342843750
45.33,1710826342859375
53.85,1710826342875000
63.33,1710826342890625
74.0,1710826342906250
85.73,1710826342921875
97.93,1710826342937500
109.77,1710826342953125
120.63,1710826342968750
130.35,1710826342984375
139.3,1710826343000000
147.99,1710826343015625
156.7,1710826343031250
165.21,1710826343046875
172.9,1710826343062500
179.02,1710826343078125
183.11,1710826343093750
185.27,1710826343109375
185.84,1710826343125000
185.04,1710826343140625
182.61,1710826343156250
177.87,1710826343171875
170.2,1710826343187500
159.35,1710826343203125
145.82,1710826343218750
130.63,1710826343234375
115.03,1710826343250000
100.01,1710826343265625
86.06,1710826343281250
73.05,1710826343296875
60.56,1710826343312500
48.14,1710826343328125
35.24,1710826343343750
21.12,1710826343359375
5.04,1710826343375000
-13.23,1710826343390625
-32.8,1710826343406250
-51.35,1710826343421875
-65.79,1710826343437500
-72.7,1710826343453125
-69.63,1710826343468750
-56.5,1710826343484375
-36.13,1710826343500000
-13.52,1710826343515625
5.92,1710826343531250
18.36,1710826343546875
22.61,1710826343562500
19.35,1710826343578125
11.14,1710826343593750
1.03,1710826343609375
-9.15,1710826343625000
-19.75,1710826343640625
-32.74,1710826343656250
-50.18,1710826343671875
-72.81,1710826343687500
-99.69,1710826343703125
-129.68,1710826343718750
-160.42,1710826343734375
-188.49,1710826343750000
-210.5,1710826343765625
-224.06,1710826343781250
-228.17,1710826343796875
-223.43,1710826343812500
-212.14,1710826343828125
-198.15,1710826343843750
-187.43,1710826343859375
-183.79,1710826343875000
-186.66,1710826343890625
-191.64,1710826343906250
-192.99,1710826343921875
-186.11,1710826343937500
-169.24,1710826343953125
-143.94,1710826343968750
-104.47,1710826343984375
-54.1,1710826344000000
-2.69,1710826344015625
40.64,1710826344031250
73.38,1710826344046875
98.25,1710826344062500
118.32,1710826344078125
134.19,1710826344093750
144.58,1710826344109375
148.32,1710826344125000
145.52,1710826344140625
138.13,1710826344156250
130.44,1710826344171875
126.56,1710826344187500
128.12,1710826344203125
134.03,1710826344218750
141.84,1710826344234375
149.54,1710826344250000
156.55,1710826344265625
162.61,1710826344281250
167.43,1710826344296875
172.08,1710826344312500
177.32,1710826344328125
182.72,1710826344343750
187.18,1710826344359375
189.88,1710826344375000
190.75,1710826344390625
190.15,1710826344406250
187.27,1710826344421875
180.79,1710826344437500
169.59,1710826344453125
152.62,1710826344468750
129.22,1710826344484375
99.74,1710826344500000
65.91,1710826344515625
30.86,1710826344531250
-1.77,1710826344546875
-29.28,1710826344562500
-50.28,1710826344578125
-64.68,1710826344593750
-73.89,1710826344609375
-80.17,1710826344625000
-85.73,1710826344640625
-91.85,1710826344656250
-98.57,1710826344671875
-105.11,1710826344687500
-110.61,1710826344703125
-114.53,1710826344718750
-116.58,1710826344734375
-116.79,1710826344750000
-115.38,1710826344765625
-112.53,1710826344781250
-108.43,1710826344796875
-103.35,1710826344812500
-97.72,1710826344828125
-92.02,1710826344843750
-86.71,1710826344859375
-81.97,1710826344875000
-77.79,1710826344890625
-73.96,1710826344906250
-70.34,1710826344921875
-66.88,1710826344937500
-63.77,1710826344953125
-61.29,1710826344968750
-59.73,1710826344984375
-59.28,1710826345000000
-59.92,1710826345015625
-61.37,1710826345031250
-63.19,1710826345046875
-64.84,1710826345062500
-65.81,1710826345078125
-65.75,1710826345093750
-64.64,1710826345109375
-62.73,1710826345125000
-60.44,1710826345140625
-58.15,1710826345156250
-55.97,1710826345171875
-53.67,1710826345187500
-50.71,1710826345203125
-46.48,1710826345218750
-40.49,1710826345234375
-32.72,1710826345250000
-23.61,1710826345265625
-14.06,1710826345281250
-5.13,1710826345296875
2.11,1710826345312500
6.94,1710826345328125
9.09,1710826345343750
8.79,1710826345359375
6.65,1710826345375000
3.44,1710826345390625
-0.07,1710826345406250
-3.34,1710826345421875
-6.08,1710826345437500
-8.28,1710826345453125
-10.08,1710826345468750
-11.79,1710826345484375
-13.69,1710826345500000
-15.97,1710826345515625
-18.64,1710826345531250
-21.53,1710826345546875
-24.27,1710826345562500
-26.45,1710826345578125
-27.75,1710826345593750
-28.06,1710826345609375
-27.51,1710826345625000
-26.47,1710826345640625
-25.35,1710826345656250
-24.47,1710826345671875
-23.98,1710826345687500
-23.85,1710826345703125
-23.86,1710826345718750
-23.79,1710826345734375
-23.48,1710826345750000
-22.93,1710826345765625
-22.32,1710826345781250
-22.01,1710826345796875
-22.37,1710826345812500
-23.58,1710826345828125
-25.49,1710826345843750
-27.53,1710826345859375
-28.86,1710826345875000
-28.62,1710826345890625
-26.24,1710826345906250
-21.65,1710826345921875
-15.28,1710826345937500
-7.89,1710826345953125
-0.34,1710826345968750
6.7,1710826345984375
12.79,1710826346000000
17.72,1710826346015625
21.49,1710826346031250
24.15,1710826346046875
25.77,1710826346062500
26.38,1710826346078125
26.06,1710826346093750
24.9,1710826346109375
23.17,1710826346125000
21.17,1710826346140625
19.25,1710826346156250
17.7,1710826346171875
16.65,1710826346187500
16.12,1710826346203125
15.98,1710826346218750
16.09,1710826346234375
16.27,1710826346250000
16.34,1710826346265625
16.12,1710826346281250
15.45,1710826346296875
14.27,1710826346312500
12.65,1710826346328125
10.72,1710826346343750
8.66,1710826346359375
6.59,1710826346375000
4.58,1710826346390625
2.62,1710826346406250
0.65,1710826346421875
-1.45,1710826346437500
-3.86,1710826346453125
-6.75,1710826346468750
-10.16,1710826346484375
-13.88,1710826346500000
-17.35,1710826346515625
-19.83,1710826346531250
-20.54,1710826346546875
-18.98,1710826346562500
-15.09,1710826346578125
-9.29,1710826346593750
-2.36,1710826346609375
4.81,1710826346625000
11.39,1710826346640625
16.83,1710826346656250
20.87,1710826346671875
23.56,1710826346687500
25.09,1710826346703125
25.78,1710826346718750
25.89,1710826346734375
25.59,1710826346750000
24.97,1710826346765625
24.07,1710826346781250
22.91,1710826346796875
21.59,1710826346812500
20.26,1710826346828125
19.08,1710826346843750
18.15,1710826346859375
17.44,1710826346875000
16.88,1710826346890625
16.34,1710826346906250
15.74,1710826346921875
15.05,1710826346937500
14.29,1710826346953125
13.47,1710826346968750
12.48,1710826346984375
11.18,1710826347000000
9.39,1710826347015625
7.07,1710826347031250
4.33,1710826347046875
1.42,1710826347062500
-1.41,1710826347078125
-4.07,1710826347093750
-6.7,1710826347109375
-9.62,1710826347125000
-13.05,1710826347140625
-16.88,1710826347156250
-20.54,1710826347171875
-23.08,1710826347187500
-23.51,1710826347203125
-21.18,1710826347218750
-16.07,1710826347234375
-8.82,1710826347250000
-0.47,1710826347265625
7.92,1710826347281250
15.54,1710826347296875
21.95,1710826347312500
27.03,1710826347328125
30.81,1710826347343750
33.35,1710826347359375
34.74,1710826347375000
35.11,1710826347390625
34.67,1710826347406250
33.65,1710826347421875
32.28,1710826347437500
30.71,1710826347453125
29.01,1710826347468750
27.23,1710826347484375
25.46,1710826347500000
23.84,1710826347515625
22.46,1710826347531250
21.37,1710826347546875
20.46,1710826347562500
19.55,1710826347578125
18.39,1710826347593750
16.82,1710826347609375
14.8,1710826347625000
12.42,1710826347640625
9.8,1710826347656250
7.01,1710826347671875
4.08,1710826347687500
1.02,1710826347703125
-2.15,1710826347718750
-5.36,1710826347734375
-8.58,1710826347750000
-11.86,1710826347765625
-15.4,1710826347781250
-19.35,1710826347796875
-23.67,1710826347812500
-27.93,1710826347828125
-31.37,1710826347843750
-33.1,1710826347859375
-32.49,1710826347875000
-29.47,1710826347890625
-24.41,1710826347906250
-18.16,1710826347921875
-11.52,1710826347937500
-5.18,1710826347953125
0.47,1710826347968750
5.26,1710826347984375
9.05,1710826348000000
11.74,1710826348015625
13.25,1710826348031250
13.63,1710826348046875
13.07,1710826348062500
11.93,1710826348078125
10.59,1710826348093750
9.37,1710826348109375
8.44,1710826348125000
7.8,1710826348140625
7.34,1710826348156250
6.96,1710826348171875
6.65,1710826348187500
6.49,1710826348203125
6.62,1710826348218750
7.14,1710826348234375
8.02,1710826348250000
9.07,1710826348265625
10.1,1710826348281250
10.91,1710826348296875
11.42,1710826348312500
11.66,1710826348328125
11.67,1710826348343750
11.49,1710826348359375
11.15,1710826348375000
10.65,1710826348390625
10.01,1710826348406250
9.26,1710826348421875
8.39,1710826348437500
7.38,1710826348453125
6.21,1710826348468750
4.94,1710826348484375
3.76,1710826348500000
3.03,1710826348515625
3.22,1710826348531250
4.81,1710826348546875
8.1,1710826348562500
13.09,1710826348578125
19.52,1710826348593750
26.87,1710826348609375
34.51,1710826348625000
41.77,1710826348640625
47.95,1710826348656250
52.31,1710826348671875
54.16,1710826348687500
52.96,1710826348703125
48.61,1710826348718750
41.59,1710826348734375
32.93,1710826348750000
24.0,1710826348765625
16.06,1710826348781250
9.91,1710826348796875
5.81,1710826348812500
3.55,1710826348828125
2.78,1710826348843750
3.16,1710826348859375
4.44,1710826348875000
6.36,1710826348890625
8.45,1710826348906250
10.16,1710826348921875
11.02,1710826348937500
10.84,1710826348953125
9.93,1710826348968750
8.89,1710826348984375
8.3,1710826349000000
8.29,1710826349015625
8.38,1710826349031250
7.61,1710826349046875
4.84,1710826349062500
-0.68,1710826349078125
-9.08,1710826349093750
-19.82,1710826349109375
-32.0,1710826349125000
-44.57,1710826349140625
-56.68,1710826349156250
-67.69,1710826349171875
-77.11,1710826349187500
-84.57,1710826349203125
-89.82,1710826349218750
-92.92,1710826349234375
-94.26,1710826349250000
-94.47,1710826349265625
-94.14,1710826349281250
-93.57,1710826349296875
-92.69,1710826349312500
-91.33,1710826349328125
-89.55,1710826349343750
-87.9,1710826349359375
-87.29,1710826349375000
-88.59,1710826349390625
-92.06,1710826349406250
-97.07,1710826349421875
-102.21,1710826349437500
-105.73,1710826349453125
-106.14,1710826349468750
-102.62,1710826349484375
-95.13,1710826349500000
-84.19,1710826349515625
-70.7,1710826349531250
-55.73,1710826349546875
-40.37,1710826349562500
-25.7,1710826349578125
-12.57,1710826349593750
-1.53,1710826349609375
7.39,1710826349625000
14.61,1710826349640625
20.87,1710826349656250
27.01,1710826349671875
33.57,1710826349687500
40.5,1710826349703125
47.12,1710826349718750
52.15,1710826349734375
54.12,1710826349750000
51.9,1710826349765625
45.23,1710826349781250
34.94,1710826349796875
22.94,1710826349812500
11.73,1710826349828125
3.73,1710826349843750
0.69,1710826349859375
3.24,1710826349875000
10.87,1710826349890625
22.32,1710826349906250
35.99,1710826349921875
50.46,1710826349937500
64.69,1710826349953125
78.17,1710826349968750
90.76,1710826349984375
102.59,1710826350000000
113.86,1710826350015625
124.75,1710826350031250
135.21,1710826350046875
145.02,1710826350062500
153.69,1710826350078125
160.61,1710826350093750
165.22,1710826350109375
167.19,1710826350125000
166.56,1710826350140625
163.72,1710826350156250
159.28,1710826350171875
153.81,1710826350187500
147.76,1710826350203125
141.45,1710826350218750
135.21,1710826350234375
129.38,1710826350250000
124.18,1710826350265625
119.59,1710826350281250
115.11,1710826350296875
109.87,1710826350312500
102.9,1710826350328125
93.52,1710826350343750
81.55,1710826350359375
67.24,1710826350375000
50.89,1710826350390625
32.65,1710826350406250
12.52,1710826350421875
-9.28,1710826350437500
-31.83,1710826350453125
-53.38,1710826350468750
-71.61,1710826350484375
-84.3,1710826350500000
-90.05,1710826350515625
-88.67,1710826350531250
-81.12,1710826350546875
-69.09,1710826350562500
-54.6,1710826350578125
-39.62,1710826350593750
-25.97,1710826350609375
-15.17,1710826350625000
-8.27,1710826350640625
-5.56,1710826350656250
-6.36,1710826350671875
-9.08,1710826350687500
-11.54,1710826350703125
-11.59,1710826350718750
-7.88,1710826350734375
-0.43,1710826350750000
9.12,1710826350765625
17.89,1710826350781250
22.58,1710826350796875
20.56,1710826350812500
10.96,1710826350828125
-4.85,1710826350843750
-23.58,1710826350859375
-40.85,1710826350875000
-52.61,1710826350890625
-56.25,1710826350906250
-51.35,1710826350921875
-39.64,1710826350937500
-24.27,1710826350953125
-8.87,1710826350968750
3.47,1710826350984375
10.74,1710826351000000
12.08,1710826351015625
7.47,1710826351031250
-2.82,1710826351046875
-18.4,1710826351062500
-38.73,1710826351078125
-62.85,1710826351093750
-89.12,1710826351109375
-115.37,1710826351125000
-139.38,1710826351140625
-159.47,1710826351156250
-174.77,1710826351171875
-185.2,1710826351187500
-191.09,1710826351203125
-192.92,1710826351218750
-191.26,1710826351234375
-186.81,1710826351250000
-180.58,1710826351265625
-173.63,1710826351281250
-166.74,1710826351296875
-159.96,1710826351312500
-152.6,1710826351328125
-143.48,1710826351343750
-131.42,1710826351359375
-115.72,1710826351375000
-96.21,1710826351390625
-73.23,1710826351406250
-47.35,1710826351421875
-19.32,1710826351437500
10.02,1710826351453125
39.75,1710826351468750
69.0,1710826351484375
96.91,1710826351500000
122.66,1710826351515625
145.2,1710826351531250
163.14,1710826351546875
174.99,1710826351562500
179.67,1710826351578125
177.16,1710826351593750
168.78,1710826351609375
156.75,1710826351625000
143.36,1710826351640625
130.08,1710826351656250
117.2,1710826351671875
104.09,1710826351687500
89.98,1710826351703125
74.6,1710826351718750
58.49,1710826351734375
42.87,1710826351750000
29.23,1710826351765625
19.12,1710826351781250
13.92,1710826351796875
14.8,1710826351812500
22.34,1710826351828125
36.05,1710826351843750
53.87,1710826351859375
72.33,1710826351875000
87.28,1710826351890625
95.37,1710826351906250
95.42,1710826351921875
89.01,1710826351937500
79.84,1710826351953125
72.01,1710826351968750
68.16,1710826351984375
68.33,1710826352000000
70.3,1710826352015625
71.07,1710826352031250
68.66,1710826352046875
63.04,1710826352062500
55.82,1710826352078125
49.02,1710826352093750
43.78,1710826352109375
39.63,1710826352125000
34.82,1710826352140625
27.26,1710826352156250
15.46,1710826352171875
-1.02,1710826352187500
-21.46,1710826352203125
-43.97,1710826352218750
-65.76,1710826352234375
-83.58,1710826352250000
-94.71,1710826352265625
-98.04,1710826352281250
-94.67,1710826352296875
-87.51,1710826352312500
-80.0,1710826352328125
-74.38,1710826352343750
-70.84,1710826352359375
-67.67,1710826352375000
-62.64,1710826352390625
-54.41,1710826352406250
-43.32,1710826352421875
-31.03,1710826352437500
-19.32,1710826352453125
-9.08,1710826352468750
-0.1,1710826352484375
8.33,1710826352500000
16.44,1710826352515625
23.45,1710826352531250
27.99,1710826352546875
28.94,1710826352562500
26.4,1710826352578125
21.75,1710826352593750
17.18,1710826352609375
14.66,1710826352625000
15.08,1710826352640625
17.85,1710826352656250
21.37,1710826352671875
23.89,1710826352687500
24.2,1710826352703125
22.07,1710826352718750
18.08,1710826352734375
13.2,1710826352750000
8.28,1710826352765625
3.68,1710826352781250
-0.8,1710826352796875
-5.87,1710826352812500
-12.39,1710826352828125
-21.07,1710826352843750
-32.26,1710826352859375
-45.78,1710826352875000
-60.96,1710826352890625
-76.86,1710826352906250
-92.44,1710826352921875
-106.81,1710826352937500
-119.44,1710826352953125
-130.16,1710826352968750
-139.2,1710826352984375
-146.84,1710826353000000
-153.16,1710826353015625
-157.68,1710826353031250
-159.37,1710826353046875
-156.89,1710826353062500
-149.08,1710826353078125
-135.63,1710826353093750
-117.36,1710826353109375
-96.15,1710826353125000
-74.41,1710826353140625
-54.4,1710826353156250
-37.61,1710826353171875
-24.57,1710826353187500
-15.03,1710826353203125
-8.32,1710826353218750
-3.72,1710826353234375
-0.63,1710826353250000
1.4,1710826353265625
2.73,1710826353281250
3.64,1710826353296875
4.35,1710826353312500
4.93,1710826353328125
5.32,1710826353343750
5.29,1710826353359375
4.54,1710826353375000
2.82,1710826353390625
-0.01,1710826353406250
-3.93,1710826353421875
-8.77,1710826353437500
-14.3,1710826353453125
-20.31,1710826353468750
-26.77,1710826353484375
-33.8,1710826353500000
-41.64,1710826353515625
-50.49,1710826353531250
-60.34,1710826353546875
-70.88,1710826353562500
-81.43,1710826353578125
-91.23,1710826353593750
-99.6,1710826353609375
-106.25,1710826353625000
-111.32,1710826353640625
-115.11,1710826353656250
-117.86,1710826353671875
-119.34,1710826353687500
-118.87,1710826353703125
-115.51,1710826353718750
-108.56,1710826353734375
-97.98,1710826353750000
-84.47,1710826353765625
-69.25,1710826353781250
-53.57,1710826353796875
-38.34,1710826353812500
-23.89,1710826353828125
-10.09,1710826353843750
3.46,1710826353859375
17.24,1710826353875000
31.75,1710826353890625
47.65,1710826353906250
65.71,1710826353921875
86.82,1710826353937500
111.56,1710826353953125
139.93,1710826353968750
170.84,1710826353984375
202.05,1710826354000000
230.42,1710826354015625
252.68,1710826354031250
266.41,1710826354046875
270.82,1710826354062500
267.02,1710826354078125
257.45,1710826354093750
244.83,1710826354109375
230.86,1710826354125000
215.64,1710826354140625
197.82,1710826354156250
175.63,1710826354171875
148.18,1710826354187500
116.27,1710826354203125
82.45,1710826354218750
50.26,1710826354234375
23.18,1710826354250000
3.74,1710826354265625
-6.76,1710826354281250
-8.18,1710826354296875
-1.22,1710826354312500
12.9,1710826354328125
32.44,1710826354343750
55.26,1710826354359375
78.86,1710826354375000
100.67,1710826354390625
118.47,1710826354406250
130.72,1710826354421875
136.83,1710826354437500
137.05,1710826354453125
132.22,1710826354468750
123.18,1710826354484375
110.39,1710826354500000
93.76,1710826354515625
72.95,1710826354531250
47.92,1710826354546875
19.53,1710826354562500
-10.4,1710826354578125
-39.46,1710826354593750
-65.48,1710826354609375
-87.38,1710826354625000
-105.33,1710826354640625
-120.35,1710826354656250
-133.37,1710826354671875
-144.45,1710826354687500
-152.58,1710826354703125
-156.29,1710826354718750
-154.64,1710826354734375
-148.01,1710826354750000
-138.34,1710826354765625
-128.54,1710826354781250
-121.47,1710826354796875
-119.07,1710826354812500
-121.81,1710826354828125
-128.91,1710826354843750
-138.81,1710826354859375
-149.7,1710826354875000
-159.88,1710826354890625
-167.7,1710826354906250
-171.62,1710826354921875
-170.37,1710826354937500
-163.34,1710826354953125
-150.91,1710826354968750
-134.58,1710826354984375
-116.5,1710826355000000
-98.73,1710826355015625
-82.5,1710826355031250
-67.78,1710826355046875
-53.54,1710826355062500
-38.4,1710826355078125
-21.43,1710826355093750
-2.67,1710826355109375
16.78,1710826355125000
35.21,1710826355140625
50.93,1710826355156250
62.82,1710826355171875
70.67,1710826355187500
74.97,1710826355203125
76.54,1710826355218750
76.02,1710826355234375
73.59,1710826355250000
69.04,1710826355265625
62.1,1710826355281250
52.88,1710826355296875
42.14,1710826355312500
31.14,1710826355328125
21.15,1710826355343750
12.88,1710826355359375
6.15,1710826355375000
-0.04,1710826355390625
-7.05,1710826355406250
-15.96,1710826355421875
-27.15,1710826355437500
-40.15,1710826355453125
-53.96,1710826355468750
-67.39,1710826355484375
-79.43,1710826355500000
-89.24,1710826355515625
-96.08,1710826355531250
-99.19,1710826355546875
-97.89,1710826355562500
-91.86,1710826355578125
-81.44,1710826355593750
-67.85,1710826355609375
-52.87,1710826355625000
-38.44,1710826355640625
-26.01,1710826355656250
-16.2,1710826355671875
-8.78,1710826355687500
-3.07,1710826355703125
1.65,1710826355718750
5.79,1710826355734375
9.4,1710826355750000
12.33,1710826355765625
14.48,1710826355781250
16.0,1710826355796875
17.29,1710826355812500
18.93,1710826355828125
21.47,1710826355843750
25.17,1710826355859375
29.93,1710826355875000
35.22,1710826355890625
40.25,1710826355906250
44.26,1710826355921875
46.73,1710826355937500
47.6,1710826355953125
47.19,1710826355968750
46.04,1710826355984375
44.68,1710826356000000
43.37,1710826356015625
42.09,1710826356031250
40.58,1710826356046875
38.49,1710826356062500
35.49,1710826356078125
31.38,1710826356093750
26.17,1710826356109375
20.18,1710826356125000
14.06,1710826356140625
8.76,1710826356156250
5.24,1710826356171875
4.3,1710826356187500
6.24,1710826356203125
10.78,1710826356218750
17.1,1710826356234375
24.1,1710826356250000
30.73,1710826356265625
36.31,1710826356281250
40.63,1710826356296875
43.91,1710826356312500
46.49,1710826356328125
48.53,1710826356343750
49.88,1710826356359375
50.13,1710826356375000
48.85,1710826356390625
45.85,1710826356406250
41.31,1710826356421875
35.69,1710826356437500
29.58,1710826356453125
23.51,1710826356468750
17.86,1710826356484375
12.9,1710826356500000
8.84,1710826356515625
5.82,1710826356531250
3.92,1710826356546875
3.07,1710826356562500
3.07,1710826356578125
3.59,1710826356593750
4.27,1710826356609375
4.74,1710826356625000
4.64,1710826356640625
3.63,1710826356656250
1.41,1710826356671875
-2.18,1710826356687500
-7.08,1710826356703125
-12.98,1710826356718750
-19.22,1710826356734375
-24.92,1710826356750000
-29.02,1710826356765625
-30.56,1710826356781250
-28.84,1710826356796875
-23.63,1710826356812500
-15.27,1710826356828125
-4.59,1710826356843750
7.26,1710826356859375
19.08,1710826356875000
29.89,1710826356890625
39.0,1710826356906250
46.11,1710826356921875
51.22,1710826356937500
54.49,1710826356953125
56.17,1710826356968750
56.51,1710826356984375
55.74,1710826357000000
54.09,1710826357015625
51.82,1710826357031250
49.24,1710826357046875
46.63,1710826357062500
44.28,1710826357078125
42.38,1710826357093750
41.07,1710826357109375
40.48,1710826357125000
40.72,1710826357140625
41.87,1710826357156250
43.8,1710826357171875
46.1,1710826357187500
47.99,1710826357203125
48.35,1710826357218750
46.03,1710826357234375
40.16,1710826357250000
30.47,1710826357265625
17.41,1710826357281250
2.1,1710826357296875
-13.91,1710826357312500
-28.97,1710826357328125
-41.59,1710826357343750
-50.64,1710826357359375
-55.5,1710826357375000
-56.07,1710826357390625
-52.8,1710826357406250
-46.63,1710826357421875
-38.78,1710826357437500
-30.56,1710826357453125
-23.01,1710826357468750
-16.77,1710826357484375
-11.99,1710826357500000
-8.44,1710826357515625
-5.74,1710826357531250
-3.55,1710826357546875
-1.74,1710826357562500
-0.41,1710826357578125
0.17,1710826357593750
-0.21,1710826357609375
-1.61,1710826357625000
-3.8,1710826357640625
-6.28,1710826357656250
-8.41,1710826357671875
-9.68,1710826357687500
-9.87,1710826357703125
-9.27,1710826357718750
-8.54,1710826357734375
-8.44,1710826357750000
-9.45,1710826357765625
-11.35,1710826357781250
-13.21,1710826357796875
-13.69,1710826357812500
-11.59,1710826357828125
-6.46,1710826357843750
1.14,1710826357859375
9.79,1710826357875000
17.78,1710826357890625
23.77,1710826357906250
27.3,1710826357921875
28.81,1710826357937500
29.24,1710826357953125
29.49,1710826357968750
29.9,1710826357984375
30.09,1710826358000000
29.22,1710826358015625
26.44,1710826358031250
21.4,1710826358046875
14.59,1710826358062500
7.29,1710826358078125
1.27,1710826358093750
-1.79,1710826358109375
-0.75,1710826358125000
4.58,1710826358140625
13.53,1710826358156250
24.74,1710826358171875
36.6,1710826358187500
47.58,1710826358203125
56.51,1710826358218750
62.7,1710826358234375
65.94,1710826358250000
66.4,1710826358265625
64.59,1710826358281250
61.2,1710826358296875
57.01,1710826358312500
52.73,1710826358328125
48.9,1710826358343750
45.73,1710826358359375
43.05,1710826358375000
40.29,1710826358390625
36.64,1710826358406250
31.39,1710826358421875
24.23,1710826358437500
15.58,1710826358453125
6.45,1710826358468750
-1.75,1710826358484375
-7.78,1710826358500000
-10.91,1710826358515625
-11.13,1710826358531250
-9.04,1710826358546875
-5.66,1710826358562500
-2.1,1710826358578125
0.56,1710826358593750
1.56,1710826358609375
0.52,1710826358625000
-2.44,1710826358640625
-6.73,1710826358656250
-11.47,1710826358671875
-15.77,1710826358687500
-19.01,1710826358703125
-21.0,1710826358718750
-21.97,1710826358734375
-22.41,1710826358750000
-22.9,1710826358765625
-24.0,1710826358781250
-26.15,1710826358796875
-29.5,1710826358812500
-33.72,1710826358828125
-37.95,1710826358843750
-40.87,1710826358859375
-41.1,1710826358875000
-37.64,1710826358890625
-30.23,1710826358906250
-19.49,1710826358921875
-6.65,1710826358937500
6.79,1710826358953125
19.54,1710826358968750
30.7,1710826358984375
39.85,1710826359000000
47.03,1710826359015625
52.55,1710826359031250
56.83,1710826359046875
60.32,1710826359062500
63.27,1710826359078125
65.73,1710826359093750
67.5,1710826359109375
68.26,1710826359125000
67.77,1710826359140625
65.96,1710826359156250
63.0,1710826359171875
59.27,1710826359187500
55.24,1710826359203125
51.3,1710826359218750
47.71,1710826359234375
44.59,1710826359250000
41.85,1710826359265625
39.24,1710826359281250
36.38,1710826359296875
32.84,1710826359312500
28.29,1710826359328125
22.62,1710826359343750
15.99,1710826359359375
8.8,1710826359375000
1.5,1710826359390625
-5.58,1710826359406250
-12.33,1710826359421875
-18.84,1710826359437500
-25.27,1710826359453125
-31.7,1710826359468750
-38.07,1710826359484375
-44.21,1710826359500000
-49.91,1710826359515625
-55.03,1710826359531250
-59.55,1710826359546875
-63.52,1710826359562500
-67.07,1710826359578125
-70.32,1710826359593750
-73.33,1710826359609375
-75.99,1710826359625000
-78.03,1710826359640625
-78.92,1710826359656250
-78.05,1710826359671875
-74.91,1710826359687500
-69.32,1710826359703125
-61.65,1710826359718750
-52.76,1710826359734375
-43.76,1710826359750000
-35.63,1710826359765625
-29.0,1710826359781250
-23.92,1710826359796875
-20.05,1710826359812500
-16.98,1710826359828125
-14.44,1710826359843750
-12.44,1710826359859375
-11.14,1710826359875000
-10.68,1710826359890625
-10.96,1710826359906250
-11.68,1710826359921875
-12.38,1710826359937500
-12.68,1710826359953125
-12.36,1710826359968750
-11.4,1710826359984375
-9.85,1710826360000000
-7.76,1710826360015625
-5.15,1710826360031250
-2.06,1710826360046875
1.37,1710826360062500
4.88,1710826360078125
8.07,1710826360093750
10.62,1710826360109375
12.36,1710826360125000
13.35,1710826360140625
13.82,1710826360156250
14.02,1710826360171875
14.08,1710826360187500
13.88,1710826360203125
13.18,1710826360218750
11.63,1710826360234375
9.01,1710826360250000
5.25,1710826360265625
0.47,1710826360281250
-5.0,1710826360296875
-10.68,1710826360312500
-16.01,1710826360328125
-20.46,1710826360343750
-23.68,1710826360359375
-25.65,1710826360375000
-26.68,1710826360390625
-27.36,1710826360406250
-28.27,1710826360421875
-29.77,1710826360437500
-31.78,1710826360453125
-33.8,1710826360468750
-35.04,1710826360484375
-34.63,1710826360500000
-31.96,1710826360515625
-26.82,1710826360531250
-19.47,1710826360546875
-10.6,1710826360562500
-1.1,1710826360578125
8.18,1710826360593750
16.56,1710826360609375
23.58,1710826360625000
29.08,1710826360640625
33.0,1710826360656250
35.4,1710826360671875
36.42,1710826360687500
36.3,1710826360703125
35.41,1710826360718750
34.14,1710826360734375
32.87,1710826360750000
31.83,1710826360765625
31.07,1710826360781250
30.45,1710826360796875
29.81,1710826360812500
28.97,1710826360828125
27.86,1710826360843750
26.47,1710826360859375
24.89,1710826360875000
23.29,1710826360890625
21.82,1710826360906250
20.6,1710826360921875
19.58,1710826360937500
18.58,1710826360953125
17.34,1710826360968750
15.63,1710826360984375
13.4,1710826361000000
10.78,1710826361015625
8.02,1710826361031250
5.3,1710826361046875
2.72,1710826361062500
0.21,1710826361078125
-2.31,1710826361093750
-4.88,1710826361109375
-7.42,1710826361125000
-9.87,1710826361140625
-12.18,1710826361156250
-14.39,1710826361171875
-16.56,1710826361187500
-18.63,1710826361203125
-20.42,1710826361218750
-21.7,1710826361234375
-22.32,1710826361250000
-22.39,1710826361265625
-22.22,1710826361281250
-22.11,1710826361296875
-22.18,1710826361312500
-22.19,1710826361328125
-21.62,1710826361343750
-19.92,1710826361359375
-16.82,1710826361375000
-12.48,1710826361390625
-7.46,1710826361406250
-2.45,1710826361421875
1.96,1710826361437500
5.48,1710826361453125
8.16,1710826361468750
10.18,1710826361484375
11.71,1710826361500000
12.78,1710826361515625
13.28,1710826361531250
13.08,1710826361546875
12.14,1710826361562500
10.64,1710826361578125
8.89,1710826361593750
7.21,1710826361609375
5.84,1710826361625000
4.83,1710826361640625
4.14,1710826361656250
3.66,1710826361671875
3.4,1710826361687500
3.41,1710826361703125
3.75,1710826361718750
4.39,1710826361734375
5.14,1710826361750000
5.74,1710826361765625
5.94,1710826361781250
5.64,1710826361796875
4.88,1710826361812500
3.82,1710826361828125
2.6,1710826361843750
1.31,1710826361859375
-0.09,1710826361875000
-1.72,1710826361890625
-3.64,1710826361906250
-5.86,1710826361921875
-8.33,1710826361937500
-10.93,1710826361953125
-13.53,1710826361968750
-15.99,1710826361984375
-18.25,1710826362000000
-20.26,1710826362015625
-22.06,1710826362031250
-23.73,1710826362046875
-25.37,1710826362062500
-27.08,1710826362078125
-28.84,1710826362093750
-30.48,1710826362109375
-31.67,1710826362125000
-32.0,1710826362140625
-31.06,1710826362156250
-28.67,1710826362171875
-24.89,1710826362187500
-20.03,1710826362203125
-14.61,1710826362218750
-9.16,1710826362234375
-4.12,1710826362250000
0.23,1710826362265625
3.79,1710826362281250
6.61,1710826362296875
8.78,1710826362312500
10.38,1710826362328125
11.45,1710826362343750
11.99,1710826362359375
12.05,1710826362375000
11.72,1710826362390625
11.2,1710826362406250
10.69,1710826362421875
10.42,1710826362437500
10.44,1710826362453125
10.72,1710826362468750
11.09,1710826362484375
11.37,1710826362500000
11.47,1710826362515625
11.41,1710826362531250
11.3,1710826362546875
11.23,1710826362562500
11.24,1710826362578125
11.2,1710826362593750
10.94,1710826362609375
10.3,1710826362625000
9.15,1710826362640625
7.56,1710826362656250
5.68,1710826362671875
3.77,1710826362687500
2.01,1710826362703125
0.55,1710826362718750
-0.61,1710826362734375
-1.55,1710826362750000
-2.39,1710826362765625
-3.27,1710826362781250
-4.27,1710826362796875
-5.4,1710826362812500
-6.66,1710826362828125
-8.0,1710826362843750
-9.34,1710826362859375
-10.64,1710826362875000
-11.87,1710826362890625
-13.11,1710826362906250
-14.48,1710826362921875
-16.14,1710826362937500
-18.17,1710826362953125
-20.47,1710826362968750
-22.71,1710826362984375
-24.44,1710826363000000
-25.14,1710826363015625
-24.5,1710826363031250
-22.52,1710826363046875
-19.46,1710826363062500
-15.82,1710826363078125
-12.09,1710826363093750
-8.68,1710826363109375
-5.72,1710826363125000
-3.23,1710826363140625
-1.09,1710826363156250
0.79,1710826363171875
2.44,1710826363187500
3.8,1710826363203125
4.79,1710826363218750
5.35,1710826363234375
5.51,1710826363250000
5.36,1710826363265625
5.08,1710826363281250
4.8,1710826363296875
4.65,1710826363312500
4.66,1710826363328125
4.8,1710826363343750
5.04,1710826363359375
5.39,1710826363375000
5.83,1710826363390625
6.32,1710826363406250
6.74,1710826363421875
6.95,1710826363437500
6.84,1710826363453125
6.4,1710826363468750
5.74,1710826363484375
5.05,1710826363500000
4.48,1710826363515625
4.03,1710826363531250
3.6,1710826363546875
3.04,1710826363562500
2.25,1710826363578125
1.25,1710826363593750
0.17,1710826363609375
-0.86,1710826363625000
-1.79,1710826363640625
-2.69,1710826363656250
-3.68,1710826363671875
-4.86,1710826363687500
-6.21,1710826363703125
-7.61,1710826363718750
-8.89,1710826363734375
-9.97,1710826363750000
-10.87,1710826363765625
-11.73,1710826363781250
-12.73,1710826363796875
-13.95,1710826363812500
-15.42,1710826363828125
-17.05,1710826363843750
-18.76,1710826363859375
-20.48,1710826363875000
-22.13,1710826363890625
-23.59,1710826363906250
-24.56,1710826363921875
-24.7,1710826363937500
-23.7,1710826363953125
-21.44,1710826363968750
-18.09,1710826363984375
-14.05,1710826364000000
-9.86,1710826364015625
-6.01,1710826364031250
-2.78,1710826364046875
-0.3,1710826364062500
1.54,1710826364078125
2.89,1710826364093750
3.91,1710826364109375
4.69,1710826364125000
5.26,1710826364140625
5.57,1710826364156250
5.62,1710826364171875
5.42,1710826364187500
5.02,1710826364203125
4.55,1710826364218750
4.14,1710826364234375
3.92,1710826364250000
3.95,1710826364265625
4.25,1710826364281250
4.76,1710826364296875
5.41,1710826364312500
6.08,1710826364328125
6.68,1710826364343750
7.1,1710826364359375
7.28,1710826364375000
7.18,1710826364390625
6.82,1710826364406250
6.28,1710826364421875
5.62,1710826364437500
4.91,1710826364453125
4.18,1710826364468750
3.39,1710826364484375
2.5,1710826364500000
1.46,1710826364515625
0.28,1710826364531250
-0.96,1710826364546875
-2.17,1710826364562500
-3.27,1710826364578125
-4.29,1710826364593750
-5.32,1710826364609375
-6.43,1710826364625000
-7.64,1710826364640625
-8.89,1710826364656250
-10.04,1710826364671875
-11.0,1710826364687500
-11.74,1710826364703125
-12.32,1710826364718750
-12.86,1710826364734375
-13.5,1710826364750000
-14.34,1710826364765625
-15.5,1710826364781250
-17.08,1710826364796875
-19.05,1710826364812500
-21.27,1710826364828125
-23.35,1710826364843750
-24.77,1710826364859375
-25.01,1710826364875000
-23.8,1710826364890625
-21.22,1710826364906250
-17.63,1710826364921875
-13.64,1710826364937500
