value,timestamp
-0.0,1712056738000000
-0.0,1712056738015625
-0.0,1712056738031250
-0.0,1712056738046875
-0.0,1712056738062500
-0.0,1712056738078125
-0.0,1712056738093750
-0.0,1712056738109375
-0.0,1712056738125000
-0.0,1712056738140625
0.0,1712056738156250
0.01,1712056738171875
0.01,1712056738187500
-0.0,1712056738203125
-0.03,1712056738218750
-0.05,1712056738234375
-0.05,1712056738250000
0.0,1712056738265625
0.13,1712056738281250
0.36,1712056738296875
0.66,1712056738312500
1.01,1712056738328125
1.37,1712056738343750
1.72,1712056738359375
2.06,1712056738375000
2.4,1712056738390625
2.79,1712056738406250
3.24,1712056738421875
3.8,1712056738437500
4.42,1712056738453125
5.06,1712056738468750
5.66,1712056738484375
6.2,1712056738500000
6.68,1712056738515625
7.15,1712056738531250
7.68,1712056738546875
8.31,1712056738562500
9.14,1712056738578125
10.09,1712056738593750
11.04,1712056738609375
11.88,1712056738625000
12.56,1712056738640625
13.14,1712056738656250
13.76,1712056738671875
14.65,1712056738687500
15.96,1712056738703125
17.91,1712056738718750
20.32,1712056738734375
22.9,1712056738750000
25.38,1712056738765625
27.58,1712056738781250
29.57,1712056738796875
31.68,1712056738812500
34.32,1712056738828125
37.81,1712056738843750
42.54,1712056738859375
48.15,1712056738875000
54.1,1712056738890625
59.83,1712056738906250
64.97,1712056738921875
69.58,1712056738937500
74.14,1712056738953125
79.34,1712056738968750
85.71,1712056738984375
93.76,1712056739000000
103.0,1712056739015625
112.62,1712056739031250
121.73,1712056739046875
129.77,1712056739062500
136.75,1712056739078125
143.3,1712056739093750
150.75,1712056739109375
157.77,1712056739125000
166.64,1712056739140625
177.95,1712056739156250
191.79,1712056739171875
206.97,1712056739187500
220.57,1712056739203125
228.25,1712056739218750
225.36,1712056739234375
208.53,1712056739250000
176.87,1712056739265625
132.76,1712056739281250
80.05,1712056739296875
23.07,1712056739312500
-34.94,1712056739328125
-92.44,1712056739343750
-149.16,1712056739359375
-205.23,1712056739375000
-260.37,1712056739390625
-313.74,1712056739406250
-363.87,1712056739421875
-409.83,1712056739437500
-450.91,1712056739453125
-486.5,1712056739468750
-515.74,1712056739484375
-537.23,1712056739500000
-549.22,1712056739515625
-549.96,1712056739531250
-538.37,1712056739546875
-514.21,1712056739562500
-478.67,1712056739578125
-433.88,1712056739593750
-382.45,1712056739609375
-327.02,1712056739625000
-269.84,1712056739640625
-212.63,1712056739656250
-156.66,1712056739671875
-102.95,1712056739687500
-52.37,1712056739703125
-5.9,1712056739718750
35.58,1712056739734375
71.43,1712056739750000
101.35,1712056739765625
125.5,1712056739781250
144.38,1712056739796875
158.69,1712056739812500
169.15,1712056739828125
176.37,1712056739843750
180.75,1712056739859375
182.57,1712056739875000
182.07,1712056739890625
179.51,1712056739906250
175.23,1712056739921875
169.65,1712056739937500
163.18,1712056739953125
156.15,1712056739968750
148.81,1712056739984375
141.3,1712056740000000
133.69,1712056740015625
126.02,1712056740031250
118.33,1712056740046875
110.69,1712056740062500
103.16,1712056740078125
95.8,1712056740093750
88.68,1712056740109375
81.83,1712056740125000
75.25,1712056740140625
68.95,1712056740156250
62.95,1712056740171875
57.25,1712056740187500
51.86,1712056740203125
46.78,1712056740218750
42.03,1712056740234375
37.59,1712056740250000
33.45,1712056740265625
29.61,1712056740281250
26.07,1712056740296875
22.81,1712056740312500
19.82,1712056740328125
17.11,1712056740343750
14.67,1712056740359375
12.48,1712056740375000
10.55,1712056740390625
8.86,1712056740406250
7.38,1712056740421875
6.12,1712056740437500
5.05,1712056740453125
4.15,1712056740468750
3.41,1712056740484375
2.8,1712056740500000
2.31,1712056740515625
1.92,1712056740531250
1.61,1712056740546875
1.38,1712056740562500
1.21,1712056740578125
1.08,1712056740593750
1.0,1712056740609375
0.95,1712056740625000
0.93,1712056740640625
0.93,1712056740656250
0.96,1712056740671875
1.0,1712056740687500
1.05,1712056740703125
1.12,1712056740718750
1.21,1712056740734375
1.31,1712056740750000
1.41,1712056740765625
1.54,1712056740781250
1.68,1712056740796875
1.84,1712056740812500
2.01,1712056740828125
2.21,1712056740843750
2.43,1712056740859375
2.67,1712056740875000
2.93,1712056740890625
3.22,1712056740906250
3.55,1712056740921875
3.9,1712056740937500
4.29,1712056740953125
4.71,1712056740968750
5.18,1712056740984375
5.68,1712056741000000
6.23,1712056741015625
6.82,1712056741031250
7.46,1712056741046875
8.15,1712056741062500
8.89,1712056741078125
9.69,1712056741093750
10.54,1712056741109375
11.45,1712056741125000
12.41,1712056741140625
13.43,1712056741156250
14.51,1712056741171875
15.64,1712056741187500
16.84,1712056741203125
18.11,1712056741218750
19.47,1712056741234375
20.89,1712056741250000
22.38,1712056741265625
23.89,1712056741281250
25.39,1712056741296875
26.78,1712056741312500
27.97,1712056741328125
28.84,1712056741343750
29.24,1712056741359375
29.04,1712056741375000
28.14,1712056741390625
26.47,1712056741406250
24.01,1712056741421875
20.82,1712056741437500
16.95,1712056741453125
12.58,1712056741468750
7.88,1712056741484375
3.09,1712056741500000
-1.58,1712056741515625
-5.95,1712056741531250
-9.86,1712056741546875
-13.21,1712056741562500
-15.94,1712056741578125
-18.07,1712056741593750
-19.62,1712056741609375
-20.68,1712056741625000
-21.35,1712056741640625
-21.73,1712056741656250
-21.88,1712056741671875
-21.86,1712056741687500
-21.7,1712056741703125
-21.38,1712056741718750
-20.89,1712056741734375
-20.15,1712056741750000
-19.14,1712056741765625
-17.84,1712056741781250
-16.2,1712056741796875
-14.21,1712056741812500
-11.85,1712056741828125
-9.12,1712056741843750
-6.02,1712056741859375
-2.52,1712056741875000
1.39,1712056741890625
5.68,1712056741906250
10.29,1712056741921875
15.19,1712056741937500
20.32,1712056741953125
25.62,1712056741968750
30.99,1712056741984375
36.37,1712056742000000
41.73,1712056742015625
47.11,1712056742031250
52.36,1712056742046875
57.43,1712056742062500
62.33,1712056742078125
67.04,1712056742093750
71.62,1712056742109375
76.13,1712056742125000
80.72,1712056742140625
85.6,1712056742156250
91.09,1712056742171875
97.21,1712056742187500
104.05,1712056742203125
111.68,1712056742218750
120.08,1712056742234375
129.18,1712056742250000
138.84,1712056742265625
148.94,1712056742281250
159.46,1712056742296875
170.51,1712056742312500
181.81,1712056742328125
193.12,1712056742343750
204.12,1712056742359375
214.25,1712056742375000
222.66,1712056742390625
228.28,1712056742406250
229.8,1712056742421875
225.61,1712056742437500
217.21,1712056742453125
204.94,1712056742468750
189.0,1712056742484375
169.52,1712056742500000
146.53,1712056742515625
120.0,1712056742531250
90.07,1712056742546875
57.19,1712056742562500
22.23,1712056742578125
-13.43,1712056742593750
-48.64,1712056742609375
-82.25,1712056742625000
-113.43,1712056742640625
-141.98,1712056742656250
-168.2,1712056742671875
-192.69,1712056742687500
-215.96,1712056742703125
-238.1,1712056742718750
-258.68,1712056742734375
-277.27,1712056742750000
-293.31,1712056742765625
-306.53,1712056742781250
-317.12,1712056742796875
-325.74,1712056742812500
-333.41,1712056742828125
-341.4,1712056742843750
-350.81,1712056742859375
-362.09,1712056742875000
-374.62,1712056742890625
-385.99,1712056742906250
-392.18,1712056742921875
-388.49,1712056742937500
-370.99,1712056742953125
-338.16,1712056742968750
-291.51,1712056742984375
-235.19,1712056743000000
-174.62,1712056743015625
-115.08,1712056743031250
-60.47,1712056743046875
-13.13,1712056743062500
25.72,1712056743078125
55.61,1712056743093750
76.46,1712056743109375
88.68,1712056743125000
93.29,1712056743140625
91.69,1712056743156250
85.41,1712056743171875
75.9,1712056743187500
64.46,1712056743203125
52.21,1712056743218750
39.99,1712056743234375
28.15,1712056743250000
16.54,1712056743265625
4.56,1712056743281250
-8.09,1712056743296875
-20.88,1712056743312500
-32.19,1712056743328125
-39.99,1712056743343750
-42.67,1712056743359375
-40.02,1712056743375000
-33.45,1712056743390625
-25.44,1712056743406250
-18.38,1712056743421875
-13.68,1712056743437500
-11.41,1712056743453125
-10.58,1712056743468750
-9.95,1712056743484375
-8.73,1712056743500000
-6.87,1712056743515625
-4.82,1712056743531250
-3.13,1712056743546875
-2.02,1712056743562500
-1.33,1712056743578125
-0.7,1712056743593750
0.02,1712056743609375
0.58,1712056743625000
0.34,1712056743640625
-1.55,1712056743656250
-5.66,1712056743671875
-11.98,1712056743687500
-19.93,1712056743703125
-28.76,1712056743718750
-37.91,1712056743734375
-47.07,1712056743750000
-55.8,1712056743765625
-63.16,1712056743781250
-67.63,1712056743796875
-67.52,1712056743812500
-61.7,1712056743828125
-50.29,1712056743843750
-34.82,1712056743859375
-17.89,1712056743875000
-1.89,1712056743890625
11.75,1712056743906250
22.66,1712056743921875
31.07,1712056743937500
37.16,1712056743953125
40.79,1712056743968750
41.59,1712056743984375
39.23,1712056744000000
33.52,1712056744015625
25.28,1712056744031250
16.17,1712056744046875
7.96,1712056744062500
1.77,1712056744078125
-2.28,1712056744093750
-4.88,1712056744109375
-7.28,1712056744125000
-10.74,1712056744140625
-16.75,1712056744156250
-25.55,1712056744171875
-36.13,1712056744187500
-46.84,1712056744203125
-56.28,1712056744218750
-63.79,1712056744234375
-69.4,1712056744250000
-73.6,1712056744265625
-77.04,1712056744281250
-80.66,1712056744296875
-83.89,1712056744312500
-84.45,1712056744328125
-79.29,1712056744343750
-65.9,1712056744359375
-43.19,1712056744375000
-11.17,1712056744390625
29.46,1712056744406250
81.34,1712056744421875
140.32,1712056744437500
196.71,1712056744453125
239.61,1712056744468750
262.31,1712056744484375
264.02,1712056744500000
248.48,1712056744515625
222.05,1712056744531250
191.79,1712056744546875
163.53,1712056744562500
139.8,1712056744578125
121.11,1712056744593750
106.96,1712056744609375
96.62,1712056744625000
89.42,1712056744640625
84.7,1712056744656250
81.75,1712056744671875
79.54,1712056744687500
76.85,1712056744703125
72.1,1712056744718750
65.12,1712056744734375
57.22,1712056744750000
50.47,1712056744765625
46.34,1712056744781250
44.99,1712056744796875
45.47,1712056744812500
46.28,1712056744828125
46.04,1712056744843750
43.74,1712056744859375
39.7,1712056744875000
35.24,1712056744890625
31.86,1712056744906250
30.2,1712056744921875
29.71,1712056744937500
28.97,1712056744953125
26.51,1712056744968750
21.38,1712056744984375
13.12,1712056745000000
2.48,1712056745015625
-9.17,1712056745031250
-19.83,1712056745046875
-27.81,1712056745062500
-31.9,1712056745078125
-31.72,1712056745093750
-27.91,1712056745109375
-21.88,1712056745125000
-15.74,1712056745140625
-10.67,1712056745156250
-6.43,1712056745171875
-1.61,1712056745187500
4.78,1712056745203125
12.89,1712056745218750
21.5,1712056745234375
28.44,1712056745250000
31.59,1712056745265625
29.17,1712056745281250
21.78,1712056745296875
12.53,1712056745312500
5.67,1712056745328125
4.12,1712056745343750
8.78,1712056745359375
18.31,1712056745375000
29.76,1712056745390625
39.89,1712056745406250
45.41,1712056745421875
45.56,1712056745437500
41.93,1712056745453125
36.79,1712056745468750
30.65,1712056745484375
23.13,1712056745500000
13.69,1712056745515625
2.47,1712056745531250
-9.87,1712056745546875
-24.59,1712056745562500
-42.97,1712056745578125
-66.3,1712056745593750
-91.32,1712056745609375
-115.6,1712056745625000
-135.78,1712056745640625
-149.11,1712056745656250
-156.01,1712056745671875
-150.19,1712056745687500
-136.54,1712056745703125
-124.84,1712056745718750
-119.3,1712056745734375
-114.13,1712056745750000
-100.1,1712056745765625
-72.65,1712056745781250
-35.97,1712056745796875
0.0,1712056745812500
26.17,1712056745828125
37.97,1712056745843750
38.9,1712056745859375
37.0,1712056745875000
38.92,1712056745890625
45.47,1712056745906250
53.14,1712056745921875
57.47,1712056745937500
56.47,1712056745953125
51.76,1712056745968750
45.89,1712056745984375
42.46,1712056746000000
43.98,1712056746015625
50.37,1712056746031250
58.55,1712056746046875
64.76,1712056746062500
66.4,1712056746078125
63.32,1712056746093750
57.68,1712056746109375
51.87,1712056746125000
48.58,1712056746140625
49.72,1712056746156250
55.95,1712056746171875
66.02,1712056746187500
77.01,1712056746203125
84.71,1712056746218750
84.45,1712056746234375
72.59,1712056746250000
47.77,1712056746265625
12.89,1712056746281250
-25.82,1712056746296875
-60.86,1712056746312500
-86.62,1712056746328125
-101.31,1712056746343750
-107.03,1712056746359375
-107.87,1712056746375000
-107.5,1712056746390625
-107.68,1712056746406250
-107.86,1712056746421875
-106.92,1712056746437500
-104.38,1712056746453125
-100.95,1712056746468750
-97.98,1712056746484375
-96.3,1712056746500000
-95.42,1712056746515625
-93.68,1712056746531250
-90.28,1712056746546875
-82.82,1712056746562500
-71.09,1712056746578125
-56.37,1712056746593750
-40.83,1712056746609375
-26.74,1712056746625000
-15.6,1712056746640625
-7.83,1712056746656250
-2.91,1712056746671875
0.28,1712056746687500
3.01,1712056746703125
5.76,1712056746718750
8.53,1712056746734375
10.92,1712056746750000
12.42,1712056746765625
12.91,1712056746781250
12.67,1712056746796875
12.32,1712056746812500
12.56,1712056746828125
13.93,1712056746843750
16.15,1712056746859375
18.35,1712056746875000
19.3,1712056746890625
17.66,1712056746906250
12.61,1712056746921875
4.01,1712056746937500
-7.58,1712056746953125
-21.02,1712056746968750
-34.88,1712056746984375
-47.88,1712056747000000
-59.09,1712056747015625
-67.98,1712056747031250
-74.34,1712056747046875
-78.09,1712056747062500
-79.18,1712056747078125
-77.73,1712056747093750
-73.76,1712056747109375
-67.19,1712056747125000
-57.64,1712056747140625
-44.32,1712056747156250
-25.81,1712056747171875
-2.15,1712056747187500
25.93,1712056747203125
56.56,1712056747218750
86.76,1712056747234375
113.2,1712056747250000
133.17,1712056747265625
145.45,1712056747281250
150.45,1712056747296875
149.83,1712056747312500
145.63,1712056747328125
139.65,1712056747343750
133.27,1712056747359375
127.15,1712056747375000
121.56,1712056747390625
116.67,1712056747406250
112.57,1712056747421875
109.29,1712056747437500
106.69,1712056747453125
104.44,1712056747468750
101.99,1712056747484375
99.14,1712056747500000
95.6,1712056747515625
91.24,1712056747531250
85.98,1712056747546875
79.7,1712056747562500
72.06,1712056747578125
62.6,1712056747593750
51.91,1712056747609375
39.31,1712056747625000
25.09,1712056747640625
9.78,1712056747656250
-6.03,1712056747671875
-21.8,1712056747687500
-36.89,1712056747703125
-50.5,1712056747718750
-61.59,1712056747734375
-68.79,1712056747750000
-71.09,1712056747765625
-67.94,1712056747781250
-60.0,1712056747796875
-49.03,1712056747812500
-37.34,1712056747828125
-27.24,1712056747843750
-20.55,1712056747859375
-18.28,1712056747875000
-20.42,1712056747890625
-26.2,1712056747906250
-34.04,1712056747921875
-42.29,1712056747937500
-49.46,1712056747953125
-54.61,1712056747968750
-57.59,1712056747984375
-58.25,1712056748000000
-58.09,1712056748015625
-58.21,1712056748031250
-58.85,1712056748046875
-59.19,1712056748062500
-58.34,1712056748078125
-55.98,1712056748093750
-52.69,1712056748109375
-49.34,1712056748125000
-46.56,1712056748140625
-43.58,1712056748156250
-37.93,1712056748171875
-27.34,1712056748187500
-9.11,1712056748203125
17.01,1712056748218750
49.27,1712056748234375
84.18,1712056748250000
116.71,1712056748265625
140.24,1712056748281250
147.91,1712056748296875
135.14,1712056748312500
102.01,1712056748328125
54.7,1712056748343750
4.17,1712056748359375
-37.39,1712056748375000
-61.52,1712056748390625
-65.3,1712056748406250
-55.12,1712056748421875
-42.12,1712056748437500
-35.37,1712056748453125
-37.63,1712056748468750
-45.38,1712056748484375
-52.83,1712056748500000
-56.19,1712056748515625
-55.9,1712056748531250
-55.59,1712056748546875
-59.14,1712056748562500
-67.42,1712056748578125
-77.35,1712056748593750
-83.44,1712056748609375
-80.69,1712056748625000
-67.61,1712056748640625
-46.5,1712056748656250
-22.4,1712056748671875
-1.29,1712056748687500
14.03,1712056748703125
23.77,1712056748718750
30.75,1712056748734375
39.14,1712056748750000
52.1,1712056748765625
70.16,1712056748781250
91.31,1712056748796875
112.35,1712056748812500
130.08,1712056748828125
141.46,1712056748843750
143.23,1712056748859375
131.73,1712056748875000
104.85,1712056748890625
63.96,1712056748906250
14.96,1712056748921875
-32.47,1712056748937500
-68.03,1712056748953125
-85.34,1712056748968750
-84.7,1712056748984375
-70.88,1712056749000000
-54.92,1712056749015625
-46.14,1712056749031250
-47.77,1712056749046875
-57.03,1712056749062500
-68.71,1712056749078125
-78.97,1712056749093750
-87.18,1712056749109375
-94.94,1712056749125000
-103.71,1712056749140625
-113.41,1712056749156250
-121.4,1712056749171875
-124.39,1712056749187500
-120.33,1712056749203125
-109.67,1712056749218750
-94.87,1712056749234375
-79.37,1712056749250000
-66.48,1712056749265625
-56.71,1712056749281250
-49.42,1712056749296875
-42.76,1712056749312500
-35.07,1712056749328125
-25.69,1712056749343750
-15.57,1712056749359375
-6.76,1712056749375000
-1.52,1712056749390625
-1.31,1712056749406250
-6.23,1712056749421875
-15.43,1712056749437500
-27.11,1712056749453125
-39.46,1712056749468750
-51.09,1712056749484375
-61.66,1712056749500000
-71.61,1712056749515625
-81.64,1712056749531250
-92.21,1712056749546875
-103.21,1712056749562500
-114.23,1712056749578125
-124.53,1712056749593750
-133.46,1712056749609375
-140.46,1712056749625000
-145.48,1712056749640625
-148.78,1712056749656250
-150.73,1712056749671875
-151.5,1712056749687500
-150.92,1712056749703125
-148.61,1712056749718750
-143.75,1712056749734375
-137.38,1712056749750000
-129.99,1712056749765625
-122.03,1712056749781250
-113.98,1712056749796875
-106.17,1712056749812500
-98.87,1712056749828125
-92.16,1712056749843750
-86.09,1712056749859375
-80.68,1712056749875000
-75.96,1712056749890625
-71.69,1712056749906250
-67.66,1712056749921875
-63.68,1712056749937500
-59.63,1712056749953125
-55.39,1712056749968750
-50.9,1712056749984375
-46.13,1712056750000000
-41.11,1712056750015625
-35.95,1712056750031250
-30.53,1712056750046875
-24.84,1712056750062500
-18.88,1712056750078125
-12.73,1712056750093750
-6.48,1712056750109375
-0.28,1712056750125000
5.71,1712056750140625
11.27,1712056750156250
16.18,1712056750171875
20.37,1712056750187500
23.75,1712056750203125
26.27,1712056750218750
27.91,1712056750234375
28.68,1712056750250000
28.65,1712056750265625
27.89,1712056750281250
26.51,1712056750296875
24.6,1712056750312500
22.3,1712056750328125
19.7,1712056750343750
16.91,1712056750359375
13.96,1712056750375000
10.87,1712056750390625
7.66,1712056750406250
4.31,1712056750421875
0.82,1712056750437500
-2.82,1712056750453125
-6.55,1712056750468750
-10.35,1712056750484375
-14.12,1712056750500000
-17.82,1712056750515625
-21.37,1712056750531250
-24.69,1712056750546875
-27.73,1712056750562500
-30.41,1712056750578125
-32.72,1712056750593750
-34.62,1712056750609375
-36.1,1712056750625000
-37.15,1712056750640625
-37.76,1712056750656250
-37.94,1712056750671875
-37.72,1712056750687500
-37.09,1712056750703125
-36.09,1712056750718750
-34.76,1712056750734375
-33.16,1712056750750000
-31.36,1712056750765625
-29.43,1712056750781250
-27.47,1712056750796875
-25.57,1712056750812500
-23.83,1712056750828125
-22.32,1712056750843750
-21.13,1712056750859375
-20.31,1712056750875000
-19.89,1712056750890625
-19.86,1712056750906250
-20.15,1712056750921875
-20.69,1712056750937500
-21.37,1712056750953125
-22.06,1712056750968750
-22.7,1712056750984375
-23.2,1712056751000000
-23.5,1712056751015625
-23.58,1712056751031250
-23.38,1712056751046875
-22.88,1712056751062500
-22.04,1712056751078125
-20.87,1712056751093750
-19.38,1712056751109375
-17.66,1712056751125000
-15.81,1712056751140625
-13.9,1712056751156250
-12.01,1712056751171875
-10.16,1712056751187500
-8.34,1712056751203125
-6.17,1712056751218750
-3.36,1712056751234375
0.24,1712056751250000
4.54,1712056751265625
9.25,1712056751281250
13.96,1712056751296875
18.4,1712056751312500
22.48,1712056751328125
26.31,1712056751343750
30.43,1712056751359375
35.36,1712056751375000
41.34,1712056751390625
48.27,1712056751406250
55.72,1712056751421875
63.13,1712056751437500
70.07,1712056751453125
76.43,1712056751468750
82.41,1712056751484375
89.16,1712056751500000
97.72,1712056751515625
108.58,1712056751531250
121.5,1712056751546875
135.54,1712056751562500
149.56,1712056751578125
162.71,1712056751593750
174.78,1712056751609375
186.15,1712056751625000
199.6,1712056751640625
217.51,1712056751656250
241.06,1712056751671875
269.61,1712056751687500
301.07,1712056751703125
332.77,1712056751718750
362.68,1712056751734375
389.95,1712056751750000
414.77,1712056751765625
442.17,1712056751781250
476.74,1712056751796875
521.31,1712056751812500
575.97,1712056751828125
638.0,1712056751843750
702.82,1712056751859375
765.18,1712056751875000
820.0,1712056751890625
862.87,1712056751906250
897.53,1712056751921875
928.72,1712056751937500
960.9,1712056751953125
996.24,1712056751968750
1033.89,1712056751984375
1070.83,1712056752000000
1103.78,1712056752015625
1130.83,1712056752031250
1152.13,1712056752046875
1178.59,1712056752062500
1220.97,1712056752078125
1286.03,1712056752093750
1372.9,1712056752109375
1472.42,1712056752125000
1570.41,1712056752140625
1652.98,1712056752156250
1710.98,1712056752171875
1686.09,1712056752187500
1542.96,1712056752203125
1270.31,1712056752218750
888.24,1712056752234375
442.87,1712056752250000
-11.38,1712056752265625
-430.07,1712056752281250
-787.24,1712056752296875
-1073.94,1712056752312500
-1292.49,1712056752328125
-1442.42,1712056752343750
-1527.13,1712056752359375
-1554.03,1712056752375000
-1535.17,1712056752390625
-1485.91,1712056752406250
-1421.85,1712056752421875
-1355.37,1712056752437500
-1294.0,1712056752453125
-1241.06,1712056752468750
-1190.34,1712056752484375
-1135.31,1712056752500000
-1071.86,1712056752515625
-1000.08,1712056752531250
-924.12,1712056752546875
-849.96,1712056752562500
-782.76,1712056752578125
-725.38,1712056752593750
-678.41,1712056752609375
-636.75,1712056752625000
-595.34,1712056752640625
-550.78,1712056752656250
-502.5,1712056752671875
-452.58,1712056752687500
-404.44,1712056752703125
-361.1,1712056752718750
-324.23,1712056752734375
-294.18,1712056752750000
-268.34,1712056752765625
-244.02,1712056752781250
-219.3,1712056752796875
-193.61,1712056752812500
-167.74,1712056752828125
-143.14,1712056752843750
-121.14,1712056752859375
-102.49,1712056752875000
-87.28,1712056752890625
-74.5,1712056752906250
-62.99,1712056752921875
-51.91,1712056752937500
-40.88,1712056752953125
-30.04,1712056752968750
-19.81,1712056752984375
-10.57,1712056753000000
-2.54,1712056753015625
4.26,1712056753031250
9.95,1712056753046875
14.68,1712056753062500
18.56,1712056753078125
21.65,1712056753093750
23.97,1712056753109375
25.46,1712056753125000
26.05,1712056753140625
25.68,1712056753156250
24.31,1712056753171875
22.01,1712056753187500
18.92,1712056753203125
15.27,1712056753218750
11.36,1712056753234375
7.51,1712056753250000
4.06,1712056753265625
1.27,1712056753281250
-0.73,1712056753296875
-1.88,1712056753312500
-2.3,1712056753328125
-2.18,1712056753343750
-1.85,1712056753359375
-1.57,1712056753375000
-1.57,1712056753390625
-1.96,1712056753406250
-2.83,1712056753421875
-4.15,1712056753437500
-5.78,1712056753453125
-7.53,1712056753468750
-9.2,1712056753484375
-10.75,1712056753500000
-11.97,1712056753515625
-12.71,1712056753531250
-12.74,1712056753546875
-12.0,1712056753562500
-10.46,1712056753578125
-8.14,1712056753593750
-5.11,1712056753609375
-1.52,1712056753625000
2.19,1712056753640625
5.84,1712056753656250
9.19,1712056753671875
12.32,1712056753687500
15.05,1712056753703125
17.27,1712056753718750
18.89,1712056753734375
19.8,1712056753750000
19.82,1712056753765625
18.36,1712056753781250
15.26,1712056753796875
10.24,1712056753812500
3.67,1712056753828125
-4.4,1712056753843750
-13.79,1712056753859375
-24.24,1712056753875000
-35.51,1712056753890625
-45.08,1712056753906250
-53.67,1712056753921875
-61.87,1712056753937500
-70.26,1712056753953125
-78.4,1712056753968750
-86.13,1712056753984375
-93.12,1712056754000000
-98.92,1712056754015625
-103.19,1712056754031250
-105.88,1712056754046875
-107.58,1712056754062500
-108.53,1712056754078125
-111.37,1712056754093750
-114.13,1712056754109375
-115.23,1712056754125000
-113.1,1712056754140625
-106.35,1712056754156250
-94.19,1712056754171875
-76.79,1712056754187500
-55.63,1712056754203125
-30.6,1712056754218750
-5.39,1712056754234375
17.94,1712056754250000
38.22,1712056754265625
55.51,1712056754281250
70.41,1712056754296875
83.54,1712056754312500
94.97,1712056754328125
103.84,1712056754343750
109.2,1712056754359375
109.98,1712056754375000
106.07,1712056754390625
97.63,1712056754406250
85.85,1712056754421875
72.44,1712056754437500
60.41,1712056754453125
53.56,1712056754468750
55.47,1712056754484375
68.1,1712056754500000
90.3,1712056754515625
118.01,1712056754531250
145.08,1712056754546875
165.76,1712056754562500
176.86,1712056754578125
178.81,1712056754593750
174.83,1712056754609375
169.15,1712056754625000
165.16,1712056754640625
164.18,1712056754656250
165.4,1712056754671875
167.03,1712056754687500
167.51,1712056754703125
166.22,1712056754718750
163.69,1712056754734375
160.98,1712056754750000
159.0,1712056754765625
158.06,1712056754781250
157.55,1712056754796875
155.97,1712056754812500
152.2,1712056754828125
145.92,1712056754843750
137.84,1712056754859375
129.19,1712056754875000
120.73,1712056754890625
111.8,1712056754906250
99.83,1712056754921875
85.85,1712056754937500
69.46,1712056754953125
50.8,1712056754968750
30.78,1712056754984375
10.78,1712056755000000
-8.0,1712056755015625
-25.0,1712056755031250
-40.28,1712056755046875
-54.17,1712056755062500
-66.56,1712056755078125
-77.33,1712056755093750
-85.47,1712056755109375
-89.56,1712056755125000
-88.36,1712056755140625
-81.3,1712056755156250
-68.77,1712056755171875
-52.0,1712056755187500
-32.65,1712056755203125
-12.24,1712056755218750
7.62,1712056755234375
25.92,1712056755250000
42.07,1712056755265625
55.63,1712056755281250
66.12,1712056755296875
72.98,1712056755312500
75.74,1712056755328125
74.34,1712056755343750
69.34,1712056755359375
61.52,1712056755375000
52.06,1712056755390625
42.01,1712056755406250
31.9,1712056755421875
21.53,1712056755437500
10.13,1712056755453125
-3.26,1712056755468750
-19.4,1712056755484375
-38.36,1712056755500000
-59.8,1712056755515625
-83.04,1712056755531250
-107.38,1712056755546875
-132.57,1712056755562500
-159.01,1712056755578125
-187.53,1712056755593750
-219.02,1712056755609375
-254.22,1712056755625000
-293.27,1712056755640625
-335.56,1712056755656250
-379.63,1712056755671875
-423.29,1712056755687500
-464.0,1712056755703125
-499.27,1712056755718750
-527.27,1712056755734375
-547.54,1712056755750000
-561.54,1712056755765625
-572.5,1712056755781250
-584.3,1712056755796875
-599.7,1712056755812500
-618.78,1712056755828125
-638.6,1712056755843750
-654.27,1712056755859375
-661.12,1712056755875000
-656.47,1712056755890625
-640.24,1712056755906250
-614.18,1712056755921875
-580.36,1712056755937500
-539.95,1712056755953125
-493.12,1712056755968750
-439.84,1712056755984375
-380.91,1712056756000000
-318.22,1712056756015625
-254.24,1712056756031250
-190.82,1712056756046875
-128.57,1712056756062500
-67.11,1712056756078125
-5.98,1712056756093750
54.51,1712056756109375
112.7,1712056756125000
166.0,1712056756140625
211.63,1712056756156250
247.28,1712056756171875
271.9,1712056756187500
285.76,1712056756203125
290.28,1712056756218750
287.51,1712056756234375
279.62,1712056756250000
268.42,1712056756265625
255.22,1712056756281250
240.91,1712056756296875
226.16,1712056756312500
211.7,1712056756328125
198.23,1712056756343750
186.39,1712056756359375
176.44,1712056756375000
168.1,1712056756390625
160.62,1712056756406250
152.94,1712056756421875
144.14,1712056756437500
133.84,1712056756453125
122.45,1712056756468750
111.07,1712056756484375
101.19,1712056756500000
94.21,1712056756515625
90.99,1712056756531250
91.74,1712056756546875
96.02,1712056756562500
103.14,1712056756578125
112.44,1712056756593750
123.58,1712056756609375
136.69,1712056756625000
152.38,1712056756640625
171.63,1712056756656250
195.27,1712056756671875
223.44,1712056756687500
254.76,1712056756703125
285.87,1712056756718750
311.96,1712056756734375
328.07,1712056756750000
330.8,1712056756765625
319.21,1712056756781250
294.95,1712056756796875
261.41,1712056756812500
222.68,1712056756828125
182.92,1712056756843750
146.43,1712056756859375
117.59,1712056756875000
100.4,1712056756890625
97.14,1712056756906250
107.17,1712056756921875
126.85,1712056756937500
150.71,1712056756953125
173.41,1712056756968750
191.39,1712056756984375
203.14,1712056757000000
208.21,1712056757015625
206.03,1712056757031250
195.67,1712056757046875
176.83,1712056757062500
151.4,1712056757078125
123.82,1712056757093750
99.68,1712056757109375
83.0,1712056757125000
74.03,1712056757140625
69.03,1712056757156250
62.33,1712056757171875
49.67,1712056757187500
30.55,1712056757203125
8.36,1712056757218750
-11.79,1712056757234375
-25.89,1712056757250000
-32.63,1712056757265625
-33.22,1712056757281250
-29.6,1712056757296875
-22.55,1712056757312500
-11.19,1712056757328125
6.05,1712056757343750
29.69,1712056757359375
57.85,1712056757375000
86.58,1712056757390625
111.36,1712056757406250
128.9,1712056757421875
138.37,1712056757437500
141.41,1712056757453125
140.98,1712056757468750
139.87,1712056757484375
139.42,1712056757500000
139.09,1712056757515625
136.97,1712056757531250
130.85,1712056757546875
119.47,1712056757562500
103.14,1712056757578125
83.82,1712056757593750
64.25,1712056757609375
46.95,1712056757625000
33.42,1712056757640625
23.76,1712056757656250
17.04,1712056757671875
11.76,1712056757687500
6.46,1712056757703125
0.15,1712056757718750
-7.54,1712056757734375
-16.41,1712056757750000
-25.85,1712056757765625
-35.09,1712056757781250
-43.61,1712056757796875
-51.28,1712056757812500
-58.45,1712056757828125
-65.71,1712056757843750
-73.52,1712056757859375
-81.91,1712056757875000
-90.45,1712056757890625
-98.49,1712056757906250
-105.54,1712056757921875
-111.52,1712056757937500
-116.75,1712056757953125
-121.66,1712056757968750
-126.42,1712056757984375
-130.79,1712056758000000
-134.25,1712056758015625
-136.3,1712056758031250
-136.8,1712056758046875
-136.04,1712056758062500
-134.58,1712056758078125
-132.86,1712056758093750
-131.06,1712056758109375
-129.0,1712056758125000
-126.32,1712056758140625
-122.74,1712056758156250
-118.19,1712056758171875
-112.82,1712056758187500
-107.0,1712056758203125
-101.09,1712056758218750
-95.43,1712056758234375
-90.3,1712056758250000
-85.89,1712056758265625
-82.28,1712056758281250
-79.33,1712056758296875
-76.66,1712056758312500
-73.82,1712056758328125
-70.45,1712056758343750
-66.46,1712056758359375
-62.08,1712056758375000
-57.71,1712056758390625
-53.76,1712056758406250
-50.37,1712056758421875
-47.45,1712056758437500
-44.75,1712056758453125
-42.07,1712056758468750
-39.35,1712056758484375
-36.65,1712056758500000
-34.08,1712056758515625
-31.64,1712056758531250
-29.33,1712056758546875
-27.21,1712056758562500
-25.56,1712056758578125
-24.93,1712056758593750
-25.97,1712056758609375
-29.06,1712056758625000
-33.94,1712056758640625
-39.53,1712056758656250
-44.08,1712056758671875
-45.6,1712056758687500
-42.56,1712056758703125
-34.47,1712056758718750
-22.1,1712056758734375
-7.33,1712056758750000
7.54,1712056758765625
20.42,1712056758781250
30.09,1712056758796875
36.29,1712056758812500
39.51,1712056758828125
40.57,1712056758843750
40.16,1712056758859375
38.75,1712056758875000
36.68,1712056758890625
34.31,1712056758906250
32.06,1712056758921875
30.34,1712056758937500
29.35,1712056758953125
28.99,1712056758968750
28.95,1712056758984375
28.94,1712056759000000
28.94,1712056759015625
29.29,1712056759031250
30.48,1712056759046875
32.87,1712056759062500
36.34,1712056759078125
40.29,1712056759093750
43.84,1712056759109375
46.22,1712056759125000
46.95,1712056759140625
46.05,1712056759156250
43.94,1712056759171875
41.11,1712056759187500
38.01,1712056759203125
34.85,1712056759218750
31.59,1712056759234375
28.05,1712056759250000
24.03,1712056759265625
19.43,1712056759281250
14.33,1712056759296875
8.95,1712056759312500
3.59,1712056759328125
-1.45,1712056759343750
-5.98,1712056759359375
-10.04,1712056759375000
-13.88,1712056759390625
-17.94,1712056759406250
-22.69,1712056759421875
-28.44,1712056759437500
-35.18,1712056759453125
-42.42,1712056759468750
-49.2,1712056759484375
-54.24,1712056759500000
-56.38,1712056759515625
-54.83,1712056759531250
-49.54,1712056759546875
-41.15,1712056759562500
-30.87,1712056759578125
-20.12,1712056759593750
-10.24,1712056759609375
-2.25,1712056759625000
3.23,1712056759640625
6.04,1712056759656250
6.43,1712056759671875
5.06,1712056759687500
2.86,1712056759703125
0.79,1712056759718750
-0.39,1712056759734375
-0.34,1712056759750000
0.8,1712056759765625
2.57,1712056759781250
4.49,1712056759796875
6.26,1712056759812500
7.94,1712056759828125
9.81,1712056759843750
12.11,1712056759859375
14.9,1712056759875000
17.96,1712056759890625
20.89,1712056759906250
23.3,1712056759921875
24.94,1712056759937500
25.68,1712056759953125
25.44,1712056759968750
24.07,1712056759984375
21.4,1712056760000000
17.27,1712056760015625
11.76,1712056760031250
5.15,1712056760046875
-2.06,1712056760062500
-9.33,1712056760078125
-16.31,1712056760093750
-22.83,1712056760109375
-28.9,1712056760125000
-34.55,1712056760140625
-39.71,1712056760156250
-44.17,1712056760171875
-47.75,1712056760187500
-50.39,1712056760203125
-52.35,1712056760218750
-54.18,1712056760234375
-56.41,1712056760250000
-59.33,1712056760265625
-62.55,1712056760281250
-65.05,1712056760296875
-65.35,1712056760312500
-62.12,1712056760328125
-54.7,1712056760343750
-43.45,1712056760359375
-29.77,1712056760375000
-15.6,1712056760390625
-2.84,1712056760406250
7.14,1712056760421875
13.8,1712056760437500
17.33,1712056760453125
18.37,1712056760468750
17.77,1712056760484375
16.37,1712056760500000
14.83,1712056760515625
13.64,1712056760531250
13.06,1712056760546875
13.11,1712056760562500
13.62,1712056760578125
14.39,1712056760593750
15.24,1712056760609375
16.24,1712056760625000
17.57,1712056760640625
19.47,1712056760656250
22.11,1712056760671875
25.41,1712056760687500
29.12,1712056760703125
32.88,1712056760718750
36.29,1712056760734375
39.07,1712056760750000
40.99,1712056760765625
41.93,1712056760781250
41.8,1712056760796875
40.62,1712056760812500
38.47,1712056760828125
35.5,1712056760843750
31.85,1712056760859375
27.65,1712056760875000
23.0,1712056760890625
18.02,1712056760906250
12.93,1712056760921875
7.91,1712056760937500
3.16,1712056760953125
-1.31,1712056760968750
-5.7,1712056760984375
-10.36,1712056761000000
-15.54,1712056761015625
-21.24,1712056761031250
-27.02,1712056761046875
-32.0,1712056761062500
-35.16,1712056761078125
-35.56,1712056761093750
-32.65,1712056761109375
-26.38,1712056761125000
-17.21,1712056761140625
-6.02,1712056761156250
6.11,1712056761171875
18.01,1712056761187500
28.61,1712056761203125
37.12,1712056761218750
43.06,1712056761234375
46.45,1712056761250000
47.64,1712056761265625
47.26,1712056761281250
45.94,1712056761296875
44.14,1712056761312500
42.09,1712056761328125
39.81,1712056761343750
37.31,1712056761359375
34.7,1712056761375000
32.21,1712056761390625
30.11,1712056761406250
28.68,1712056761421875
27.97,1712056761437500
27.85,1712056761453125
28.09,1712056761468750
28.43,1712056761484375
28.68,1712056761500000
28.71,1712056761515625
28.42,1712056761531250
27.66,1712056761546875
26.21,1712056761562500
23.83,1712056761578125
20.35,1712056761593750
15.78,1712056761609375
10.36,1712056761625000
4.55,1712056761640625
-1.09,1712056761656250
-6.07,1712056761671875
-10.1,1712056761687500
-13.23,1712056761703125
-15.86,1712056761718750
-18.63,1712056761734375
-22.26,1712056761750000
-27.24,1712056761765625
-33.61,1712056761781250
-40.73,1712056761796875
-47.35,1712056761812500
-51.83,1712056761828125
-52.54,1712056761843750
-48.4,1712056761859375
-39.19,1712056761875000
-25.73,1712056761890625
-9.72,1712056761906250
6.74,1712056761921875
21.69,1712056761937500
33.75,1712056761953125
42.36,1712056761968750
47.72,1712056761984375
50.54,1712056762000000
51.63,1712056762015625
51.68,1712056762031250
51.12,1712056762046875
50.16,1712056762062500
48.92,1712056762078125
47.56,1712056762093750
46.31,1712056762109375
45.44,1712056762125000
45.21,1712056762140625
45.7,1712056762156250
46.8,1712056762171875
48.25,1712056762187500
49.69,1712056762203125
50.86,1712056762218750
51.61,1712056762234375
51.92,1712056762250000
51.81,1712056762265625
51.2,1712056762281250
49.92,1712056762296875
47.72,1712056762312500
44.43,1712056762328125
40.1,1712056762343750
34.98,1712056762359375
29.56,1712056762375000
24.34,1712056762390625
19.73,1712056762406250
15.84,1712056762421875
12.44,1712056762437500
9.07,1712056762453125
5.18,1712056762468750
0.48,1712056762484375
-5.0,1712056762500000
-10.81,1712056762515625
-16.27,1712056762531250
-20.77,1712056762546875
-24.07,1712056762562500
-26.42,1712056762578125
-28.48,1712056762593750
-31.11,1712056762609375
-35.09,1712056762625000
-40.79,1712056762640625
-48.03,1712056762656250
-55.98,1712056762671875
-63.21,1712056762687500
-67.92,1712056762703125
-68.4,1712056762718750
-63.46,1712056762734375
-52.85,1712056762750000
-37.45,1712056762765625
-19.1,1712056762781250
-0.18,1712056762796875
16.93,1712056762812500
30.48,1712056762828125
39.58,1712056762843750
44.28,1712056762859375
45.37,1712056762875000
43.99,1712056762890625
41.28,1712056762906250
38.13,1712056762921875
35.05,1712056762937500
32.25,1712056762953125
29.84,1712056762968750
27.92,1712056762984375
26.64,1712056763000000
26.12,1712056763015625
26.41,1712056763031250
27.36,1712056763046875
28.74,1712056763062500
30.29,1712056763078125
31.87,1712056763093750
33.47,1712056763109375
35.13,1712056763125000
36.77,1712056763140625
38.19,1712056763156250
39.05,1712056763171875
39.02,1712056763187500
37.9,1712056763203125
35.75,1712056763218750
32.82,1712056763234375
29.37,1712056763250000
25.61,1712056763265625
21.61,1712056763281250
17.37,1712056763296875
12.94,1712056763312500
8.44,1712056763328125
4.08,1712056763343750
0.1,1712056763359375
-3.38,1712056763375000
-6.39,1712056763390625
-9.07,1712056763406250
-11.67,1712056763421875
-14.41,1712056763437500
-17.48,1712056763453125
-20.94,1712056763468750
-24.75,1712056763484375
-28.78,1712056763500000
-32.92,1712056763515625
-37.1,1712056763531250
-41.42,1712056763546875
-46.1,1712056763562500
-51.31,1712056763578125
-56.92,1712056763593750
-62.32,1712056763609375
-66.4,1712056763625000
-67.83,1712056763640625
-65.38,1712056763656250
-58.4,1712056763671875
-47.03,1712056763687500
-32.22,1712056763703125
-15.56,1712056763718750
1.08,1712056763734375
15.93,1712056763750000
27.61,1712056763765625
35.31,1712056763781250
38.9,1712056763796875
38.81,1712056763812500
35.93,1712056763828125
31.35,1712056763843750
26.27,1712056763859375
21.85,1712056763875000
19.01,1712056763890625
18.36,1712056763906250
19.91,1712056763921875
23.03,1712056763937500
26.59,1712056763953125
29.29,1712056763968750
30.11,1712056763984375
28.65,1712056764000000
25.19,1712056764015625
20.46,1712056764031250
15.33,1712056764046875
10.44,1712056764062500
6.17,1712056764078125
2.66,1712056764093750
0.01,1712056764109375
-1.65,1712056764125000
-2.12,1712056764140625
-1.29,1712056764156250
0.75,1712056764171875
3.67,1712056764187500
6.94,1712056764203125
10.0,1712056764218750
12.39,1712056764234375
13.84,1712056764250000
14.22,1712056764265625
13.42,1712056764281250
11.29,1712056764296875
7.65,1712056764312500
2.44,1712056764328125
-4.15,1712056764343750
-11.58,1712056764359375
-19.18,1712056764375000
-26.31,1712056764390625
-32.5,1712056764406250
-37.4,1712056764421875
-40.63,1712056764437500
-41.65,1712056764453125
-39.86,1712056764468750
-34.97,1712056764484375
-27.39,1712056764500000
-18.48,1712056764515625
-10.4,1712056764531250
-5.48,1712056764546875
-5.48,1712056764562500
-10.88,1712056764578125
-20.58,1712056764593750
-32.06,1712056764609375
-42.17,1712056764625000
-47.93,1712056764640625
-47.46,1712056764656250
-40.39,1712056764671875
-27.8,1712056764687500
-11.7,1712056764703125
5.68,1712056764718750
22.51,1712056764734375
37.61,1712056764750000
50.28,1712056764765625
60.07,1712056764781250
66.43,1712056764796875
68.75,1712056764812500
66.63,1712056764828125
60.25,1712056764843750
50.6,1712056764859375
39.36,1712056764875000
28.53,1712056764890625
19.81,1712056764906250
14.13,1712056764921875
11.48,1712056764937500
11.08,1712056764953125
11.81,1712056764968750
12.68,1712056764984375
13.07,1712056765000000
12.71,1712056765015625
11.6,1712056765031250
9.76,1712056765046875
7.2,1712056765062500
3.97,1712056765078125
0.27,1712056765093750
-3.51,1712056765109375
-6.89,1712056765125000
-9.43,1712056765140625
-10.93,1712056765156250
-11.44,1712056765171875
-11.27,1712056765187500
-10.81,1712056765203125
-10.39,1712056765218750
-10.24,1712056765234375
-10.43,1712056765250000
-11.03,1712056765265625
-12.06,1712056765281250
-13.65,1712056765296875
-15.83,1712056765312500
-18.64,1712056765328125
-21.94,1712056765343750
-25.48,1712056765359375
-28.98,1712056765375000
-32.19,1712056765390625
-35.03,1712056765406250
-37.61,1712056765421875
-40.24,1712056765437500
-43.3,1712056765453125
-47.04,1712056765468750
-51.39,1712056765484375
-55.79,1712056765500000
-59.27,1712056765515625
-60.66,1712056765531250
-58.97,1712056765546875
-53.69,1712056765562500
-45.06,1712056765578125
-33.93,1712056765593750
-21.55,1712056765609375
-9.26,1712056765625000
1.76,1712056765640625
10.67,1712056765656250
16.95,1712056765671875
20.42,1712056765687500
21.24,1712056765703125
19.87,1712056765718750
17.02,1712056765734375
13.57,1712056765750000
10.31,1712056765765625
7.8,1712056765781250
6.2,1712056765796875
5.37,1712056765812500
5.01,1712056765828125
4.83,1712056765843750
4.76,1712056765859375
4.89,1712056765875000
5.39,1712056765890625
6.41,1712056765906250
7.92,1712056765921875
9.73,1712056765937500
11.6,1712056765953125
13.32,1712056765968750
14.84,1712056765984375
16.13,1712056766000000
17.17,1712056766015625
17.73,1712056766031250
17.52,1712056766046875
16.21,1712056766062500
13.65,1712056766078125
10.01,1712056766093750
5.73,1712056766109375
1.47,1712056766125000
-2.21,1712056766140625
-4.86,1712056766156250
-6.32,1712056766171875
-6.61,1712056766187500
-5.95,1712056766203125
-4.69,1712056766218750
-3.25,1712056766234375
-2.13,1712056766250000
-1.72,1712056766265625
-2.27,1712056766281250
-3.74,1712056766296875
-5.83,1712056766312500
-8.13,1712056766328125
-10.28,1712056766343750
-12.12,1712056766359375
-13.77,1712056766375000
-15.63,1712056766390625
-18.07,1712056766406250
-21.36,1712056766421875
-25.27,1712056766437500
-29.17,1712056766453125
-31.99,1712056766468750
-32.64,1712056766484375
-30.39,1712056766500000
-25.11,1712056766515625
-17.49,1712056766531250
-8.78,1712056766546875
-0.48,1712056766562500
6.12,1712056766578125
10.2,1712056766593750
11.58,1712056766609375
10.62,1712056766625000
8.05,1712056766640625
4.72,1712056766656250
1.46,1712056766671875
-1.03,1712056766687500
-2.29,1712056766703125
-2.14,1712056766718750
-0.67,1712056766734375
1.78,1712056766750000
4.75,1712056766765625
7.78,1712056766781250
10.54,1712056766796875
12.89,1712056766812500
14.88,1712056766828125
16.63,1712056766843750
18.26,1712056766859375
19.8,1712056766875000
21.24,1712056766890625
22.43,1712056766906250
23.21,1712056766921875
23.39,1712056766937500
22.84,1712056766953125
21.57,1712056766968750
19.68,1712056766984375
17.33,1712056767000000
14.72,1712056767015625
11.96,1712056767031250
9.16,1712056767046875
6.38,1712056767062500
3.76,1712056767078125
1.52,1712056767093750
-0.13,1712056767109375
-1.11,1712056767125000
-1.58,1712056767140625
-1.9,1712056767156250
-2.6,1712056767171875
-4.1,1712056767187500
-6.55,1712056767203125
-9.77,1712056767218750
-13.26,1712056767234375
-16.42,1712056767250000
-18.77,1712056767265625
-20.15,1712056767281250
-20.82,1712056767296875
-21.38,1712056767312500
-22.58,1712056767328125
-25.06,1712056767343750
-29.0,1712056767359375
-34.06,1712056767375000
-39.23,1712056767390625
-43.08,1712056767406250
-44.09,1712056767421875
-41.09,1712056767437500
-33.67,1712056767453125
-22.35,1712056767468750
-8.48,1712056767484375
6.14,1712056767500000
19.76,1712056767515625
31.1,1712056767531250
39.48,1712056767546875
44.79,1712056767562500
47.26,1712056767578125
47.24,1712056767593750
45.12,1712056767609375
41.32,1712056767625000
36.37,1712056767640625
30.82,1712056767656250
25.24,1712056767671875
20.09,1712056767687500
15.56,1712056767703125
11.68,1712056767718750
8.28,1712056767734375
5.19,1712056767750000
2.28,1712056767765625
-0.43,1712056767781250
-2.84,1712056767796875
-4.78,1712056767812500
-6.19,1712056767828125
-7.08,1712056767843750
-7.63,1712056767859375
-8.1,1712056767875000
-8.74,1712056767890625
-9.67,1712056767906250
-10.8,1712056767921875
-11.89,1712056767937500
-12.63,1712056767953125
-12.78,1712056767968750
-12.29,1712056767984375
-11.33,1712056768000000
-10.25,1712056768015625
-9.45,1712056768031250
-9.28,1712056768046875
-9.91,1712056768062500
-11.31,1712056768078125
-13.32,1712056768093750
-15.64,1712056768109375
-17.97,1712056768125000
-20.0,1712056768140625
-21.57,1712056768156250
-22.73,1712056768171875
-23.75,1712056768187500
-25.11,1712056768203125
-27.29,1712056768218750
-30.52,1712056768234375
-34.59,1712056768250000
-38.78,1712056768265625
-41.97,1712056768281250
-42.97,1712056768296875
-40.87,1712056768312500
-35.39,1712056768328125
-27.0,1712056768343750
-16.77,1712056768359375
-6.11,1712056768375000
3.68,1712056768390625
11.66,1712056768406250
17.38,1712056768421875
20.85,1712056768437500
22.35,1712056768453125
22.28,1712056768468750
21.07,1712056768484375
19.11,1712056768500000
16.75,1712056768515625
14.27,1712056768531250
11.84,1712056768546875
9.53,1712056768562500
7.39,1712056768578125
5.47,1712056768593750
3.92,1712056768609375
2.91,1712056768625000
2.63,1712056768640625
3.15,1712056768656250
4.45,1712056768671875
6.33,1712056768687500
8.58,1712056768703125
10.88,1712056768718750
12.93,1712056768734375
14.41,1712056768750000
15.05,1712056768765625
14.74,1712056768781250
13.56,1712056768796875
11.72,1712056768812500
9.49,1712056768828125
7.08,1712056768843750
4.62,1712056768859375
2.18,1712056768875000
-0.21,1712056768890625
-2.44,1712056768906250
-4.47,1712056768921875
-6.29,1712056768937500
-8.06,1712056768953125
-9.97,1712056768968750
-12.18,1712056768984375
-14.7,1712056769000000
-17.35,1712056769015625
-19.82,1712056769031250
-21.85,1712056769046875
-23.36,1712056769062500
-24.54,1712056769078125
-25.83,1712056769093750
-27.73,1712056769109375
-30.67,1712056769125000
-34.8,1712056769140625
-39.89,1712056769156250
-45.31,1712056769171875
-50.11,1712056769187500
-53.19,1712056769203125
-53.52,1712056769218750
-50.41,1712056769234375
-43.69,1712056769250000
-33.83,1712056769265625
-21.9,1712056769281250
-9.33,1712056769296875
2.32,1712056769312500
11.8,1712056769328125
18.36,1712056769343750
21.92,1712056769359375
23.01,1712056769375000
22.52,1712056769390625
21.36,1712056769406250
20.2,1712056769421875
19.32,1712056769437500
18.64,1712056769453125
17.92,1712056769468750
16.97,1712056769484375
15.85,1712056769500000
14.84,1712056769515625
14.29,1712056769531250
14.5,1712056769546875
15.51,1712056769562500
17.16,1712056769578125
19.2,1712056769593750
21.46,1712056769609375
23.94,1712056769625000
26.68,1712056769640625
29.67,1712056769656250
32.61,1712056769671875
34.94,1712056769687500
35.97,1712056769703125
35.16,1712056769718750
32.37,1712056769734375
27.95,1712056769750000
22.69,1712056769765625
17.54,1712056769781250
13.35,1712056769796875
10.6,1712056769812500
9.37,1712056769828125
9.36,1712056769843750
10.01,1712056769859375
10.7,1712056769875000
10.87,1712056769890625
10.21,1712056769906250
8.74,1712056769921875
6.87,1712056769937500
5.27,1712056769953125
4.62,1712056769968750
5.3,1712056769984375
7.07,1712056770000000
9.1,1712056770015625
10.2,1712056770031250
9.55,1712056770046875
7.44,1712056770062500
5.49,1712056770078125
6.43,1712056770093750
13.25,1712056770109375
28.33,1712056770125000
52.69,1712056770140625
85.49,1712056770156250
123.71,1712056770171875
162.45,1712056770187500
195.73,1712056770203125
218.06,1712056770218750
226.12,1712056770234375
219.88,1712056770250000
202.44,1712056770265625
178.66,1712056770281250
153.15,1712056770296875
128.75,1712056770312500
106.21,1712056770328125
85.07,1712056770343750
64.97,1712056770359375
46.36,1712056770375000
30.28,1712056770390625
17.34,1712056770406250
7.0,1712056770421875
-2.2,1712056770437500
-11.71,1712056770453125
-21.83,1712056770468750
-31.51,1712056770484375
-39.01,1712056770500000
-42.97,1712056770515625
-43.27,1712056770531250
-41.09,1712056770546875
-38.22,1712056770562500
-36.2,1712056770578125
-35.82,1712056770593750
-37.17,1712056770609375
-40.04,1712056770625000
-44.35,1712056770640625
-50.07,1712056770656250
-56.99,1712056770671875
-64.36,1712056770687500
-71.08,1712056770703125
-76.13,1712056770718750
-79.29,1712056770734375
-81.31,1712056770750000
-83.47,1712056770765625
-86.77,1712056770781250
-91.13,1712056770796875
-95.27,1712056770812500
-97.25,1712056770828125
-95.55,1712056770843750
-89.86,1712056770859375
-81.1,1712056770875000
-70.88,1712056770890625
-60.43,1712056770906250
-49.85,1712056770921875
-38.36,1712056770937500
-24.52,1712056770953125
-7.05,1712056770968750
14.56,1712056770984375
39.86,1712056771000000
67.66,1712056771015625
96.56,1712056771031250
125.37,1712056771046875
153.24,1712056771062500
179.28,1712056771078125
202.66,1712056771093750
222.62,1712056771109375
238.54,1712056771125000
250.0,1712056771140625
256.89,1712056771156250
259.41,1712056771171875
258.09,1712056771187500
253.58,1712056771203125
245.78,1712056771218750
234.53,1712056771234375
220.14,1712056771250000
203.7,1712056771265625
187.0,1712056771281250
171.92,1712056771296875
159.57,1712056771312500
149.77,1712056771328125
140.89,1712056771343750
128.7,1712056771359375
109.55,1712056771375000
81.96,1712056771390625
47.09,1712056771406250
7.69,1712056771421875
-33.54,1712056771437500
-74.84,1712056771453125
-115.28,1712056771468750
-154.12,1712056771484375
-193.93,1712056771500000
-236.15,1712056771515625
-280.2,1712056771531250
-323.63,1712056771546875
-363.8,1712056771562500
-399.3,1712056771578125
-429.81,1712056771593750
-455.16,1712056771609375
-474.73,1712056771625000
-493.38,1712056771640625
-515.01,1712056771656250
-540.75,1712056771671875
-568.28,1712056771687500
-593.7,1712056771703125
-614.21,1712056771718750
-629.0,1712056771734375
-638.72,1712056771750000
-644.58,1712056771765625
-655.25,1712056771781250
-676.79,1712056771796875
-709.38,1712056771812500
-746.64,1712056771828125
-779.71,1712056771843750
-802.19,1712056771859375
-812.07,1712056771875000
-810.74,1712056771890625
-754.69,1712056771906250
-620.98,1712056771921875
-415.05,1712056771937500
-172.51,1712056771953125
62.07,1712056771968750
257.97,1712056771984375
404.51,1712056772000000
505.33,1712056772015625
570.73,1712056772031250
612.51,1712056772046875
632.75,1712056772062500
632.16,1712056772078125
612.95,1712056772093750
580.9,1712056772109375
543.51,1712056772125000
507.23,1712056772140625
476.24,1712056772156250
452.87,1712056772171875
437.95,1712056772187500
424.48,1712056772203125
405.46,1712056772218750
376.55,1712056772234375
337.66,1712056772250000
291.27,1712056772265625
239.51,1712056772281250
182.77,1712056772296875
119.97,1712056772312500
55.96,1712056772328125
-6.44,1712056772343750
-61.32,1712056772359375
-100.79,1712056772375000
-117.75,1712056772390625
-110.1,1712056772406250
-82.69,1712056772421875
-45.75,1712056772437500
-10.24,1712056772453125
16.47,1712056772468750
30.03,1712056772484375
31.05,1712056772500000
23.13,1712056772515625
10.55,1712056772531250
-3.77,1712056772546875
-18.45,1712056772562500
-32.62,1712056772578125
-44.59,1712056772593750
-51.86,1712056772609375
-53.68,1712056772625000
-50.56,1712056772640625
-44.92,1712056772656250
-38.29,1712056772671875
-32.13,1712056772687500
-26.9,1712056772703125
-22.04,1712056772718750
-16.04,1712056772734375
-7.43,1712056772750000
3.98,1712056772765625
17.11,1712056772781250
29.92,1712056772796875
40.19,1712056772812500
46.07,1712056772828125
46.92,1712056772843750
43.26,1712056772859375
36.78,1712056772875000
29.39,1712056772890625
22.18,1712056772906250
15.3,1712056772921875
8.21,1712056772937500
0.35,1712056772953125
-8.53,1712056772968750
-17.5,1712056772984375
-27.93,1712056773000000
-39.25,1712056773015625
-49.96,1712056773031250
-59.02,1712056773046875
-66.16,1712056773062500
-71.66,1712056773078125
-75.69,1712056773093750
-78.37,1712056773109375
-78.71,1712056773125000
-75.65,1712056773140625
-68.35,1712056773156250
-55.48,1712056773171875
-37.01,1712056773187500
-14.57,1712056773203125
9.33,1712056773218750
32.51,1712056773234375
53.02,1712056773250000
71.43,1712056773265625
88.82,1712056773281250
106.03,1712056773296875
125.47,1712056773312500
148.36,1712056773328125
173.89,1712056773343750
200.09,1712056773359375
225.24,1712056773375000
247.56,1712056773390625
269.02,1712056773406250
292.9,1712056773421875
322.78,1712056773437500
364.93,1712056773453125
422.91,1712056773468750
494.53,1712056773484375
571.51,1712056773500000
641.72,1712056773515625
691.75,1712056773531250
715.32,1712056773546875
712.89,1712056773562500
669.01,1712056773578125
581.97,1712056773593750
463.33,1712056773609375
333.55,1712056773625000
212.26,1712056773640625
121.93,1712056773656250
57.27,1712056773671875
10.23,1712056773687500
-24.85,1712056773703125
-51.44,1712056773718750
-70.94,1712056773734375
-83.48,1712056773750000
-91.17,1712056773765625
-97.63,1712056773781250
-106.44,1712056773796875
-121.41,1712056773812500
-141.74,1712056773828125
-165.47,1712056773843750
-190.72,1712056773859375
-213.01,1712056773875000
-228.11,1712056773890625
-233.48,1712056773906250
-228.39,1712056773921875
-213.57,1712056773937500
-192.14,1712056773953125
-166.23,1712056773968750
-139.33,1712056773984375
-116.76,1712056774000000
-102.38,1712056774015625
-98.56,1712056774031250
-105.16,1712056774046875
-118.7,1712056774062500
-133.08,1712056774078125
-142.51,1712056774093750
-142.24,1712056774109375
-131.7,1712056774125000
-114.51,1712056774140625
-95.62,1712056774156250
-79.73,1712056774171875
-70.72,1712056774187500
-71.68,1712056774203125
-85.23,1712056774218750
-113.52,1712056774234375
-155.63,1712056774250000
-207.09,1712056774265625
-260.03,1712056774281250
-304.92,1712056774296875
-333.83,1712056774312500
-343.12,1712056774328125
-334.05,1712056774343750
-311.05,1712056774359375
-279.28,1712056774375000
-242.41,1712056774390625
-202.79,1712056774406250
-162.58,1712056774421875
-124.97,1712056774437500
-93.96,1712056774453125
-73.18,1712056774468750
-63.93,1712056774484375
-64.51,1712056774500000
-70.58,1712056774515625
-77.08,1712056774531250
-80.31,1712056774546875
-78.93,1712056774562500
-73.77,1712056774578125
-66.31,1712056774593750
-57.33,1712056774609375
-46.28,1712056774625000
-32.02,1712056774640625
-14.15,1712056774656250
6.05,1712056774671875
25.77,1712056774687500
41.87,1712056774703125
52.36,1712056774718750
57.28,1712056774734375
58.38,1712056774750000
58.17,1712056774765625
58.71,1712056774781250
60.8,1712056774796875
64.06,1712056774812500
67.5,1712056774828125
70.17,1712056774843750
71.72,1712056774859375
72.27,1712056774875000
72.13,1712056774890625
71.39,1712056774906250
69.81,1712056774921875
67.02,1712056774937500
62.85,1712056774953125
57.62,1712056774968750
52.17,1712056774984375
47.5,1712056775000000
44.45,1712056775015625
43.3,1712056775031250
43.74,1712056775046875
45.01,1712056775062500
46.09,1712056775078125
46.08,1712056775093750
44.4,1712056775109375
41.02,1712056775125000
36.51,1712056775140625
31.88,1712056775156250
28.16,1712056775171875
26.0,1712056775187500
25.23,1712056775203125
24.86,1712056775218750
23.45,1712056775234375
19.73,1712056775250000
13.11,1712056775265625
3.84,1712056775281250
-7.02,1712056775296875
-17.99,1712056775312500
-27.54,1712056775328125
-34.33,1712056775343750
-37.54,1712056775359375
-37.04,1712056775375000
-33.59,1712056775390625
-28.71,1712056775406250
-24.25,1712056775421875
-21.76,1712056775437500
-21.82,1712056775453125
-23.74,1712056775468750
-25.78,1712056775484375
-25.83,1712056775500000
-22.26,1712056775515625
-14.5,1712056775531250
-3.17,1712056775546875
10.18,1712056775562500
23.72,1712056775578125
35.92,1712056775593750
45.86,1712056775609375
53.28,1712056775625000
58.49,1712056775640625
62.01,1712056775656250
64.26,1712056775671875
65.3,1712056775687500
64.76,1712056775703125
62.02,1712056775718750
56.54,1712056775734375
48.3,1712056775750000
38.0,1712056775765625
26.84,1712056775781250
16.21,1712056775796875
7.22,1712056775812500
0.38,1712056775828125
-4.29,1712056775843750
-7.02,1712056775859375
-8.12,1712056775875000
-7.93,1712056775890625
-7.0,1712056775906250
-6.28,1712056775921875
-7.0,1712056775937500
-10.22,1712056775953125
-16.26,1712056775968750
-24.33,1712056775984375
-32.71,1712056776000000
-39.32,1712056776015625
-42.43,1712056776031250
-41.21,1712056776046875
-35.85,1712056776062500
-27.41,1712056776078125
-17.36,1712056776093750
-7.41,1712056776109375
0.77,1712056776125000
5.69,1712056776140625
6.36,1712056776156250
2.63,1712056776171875
-4.59,1712056776187500
-13.5,1712056776203125
-21.91,1712056776218750
-28.06,1712056776234375
-31.2,1712056776250000
-31.71,1712056776265625
-30.79,1712056776281250
-29.68,1712056776296875
-29.04,1712056776312500
-28.75,1712056776328125
-28.14,1712056776343750
-26.4,1712056776359375
-22.99,1712056776375000
-17.68,1712056776390625
-10.46,1712056776406250
-1.43,1712056776421875
9.16,1712056776437500
20.68,1712056776453125
31.97,1712056776468750
41.47,1712056776484375
47.63,1712056776500000
49.52,1712056776515625
47.3,1712056776531250
42.17,1712056776546875
35.91,1712056776562500
30.2,1712056776578125
26.03,1712056776593750
23.58,1712056776609375
22.47,1712056776625000
22.16,1712056776640625
22.24,1712056776656250
22.5,1712056776671875
22.85,1712056776687500
23.09,1712056776703125
22.95,1712056776718750
22.18,1712056776734375
20.68,1712056776750000
18.57,1712056776765625
16.17,1712056776781250
13.83,1712056776796875
11.85,1712056776812500
10.33,1712056776828125
9.18,1712056776843750
8.17,1712056776859375
6.99,1712056776875000
5.37,1712056776890625
3.19,1712056776906250
0.48,1712056776921875
-2.57,1712056776937500
-5.74,1712056776953125
-8.84,1712056776968750
-11.83,1712056776984375
-14.71,1712056777000000
-17.55,1712056777015625
-20.36,1712056777031250
-23.07,1712056777046875
-25.7,1712056777062500
-28.3,1712056777078125
-31.02,1712056777093750
-33.98,1712056777109375
-37.25,1712056777125000
-40.75,1712056777140625
-44.39,1712056777156250
-48.17,1712056777171875
-52.16,1712056777187500
-56.5,1712056777203125
-61.13,1712056777218750
-65.61,1712056777234375
-69.03,1712056777250000
-70.25,1712056777265625
-68.29,1712056777281250
-62.7,1712056777296875
-53.84,1712056777312500
-42.81,1712056777328125
-31.02,1712056777343750
-19.85,1712056777359375
-10.17,1712056777375000
-2.37,1712056777390625
3.61,1712056777406250
8.01,1712056777421875
11.08,1712056777437500
13.04,1712056777453125
14.1,1712056777468750
14.51,1712056777484375
14.5,1712056777500000
14.31,1712056777515625
14.07,1712056777531250
13.82,1712056777546875
13.59,1712056777562500
13.4,1712056777578125
13.27,1712056777593750
13.24,1712056777609375
13.4,1712056777625000
13.78,1712056777640625
14.46,1712056777656250
15.46,1712056777671875
16.72,1712056777687500
18.07,1712056777703125
19.23,1712056777718750
19.94,1712056777734375
19.99,1712056777750000
19.33,1712056777765625
17.94,1712056777781250
15.83,1712056777796875
13.02,1712056777812500
9.56,1712056777828125
5.63,1712056777843750
1.55,1712056777859375
-2.27,1712056777875000
-5.53,1712056777890625
-8.13,1712056777906250
-10.21,1712056777921875
-12.09,1712056777937500
-14.02,1712056777953125
-16.09,1712056777968750
-18.26,1712056777984375
-20.38,1712056778000000
-22.32,1712056778015625
-24.11,1712056778031250
-25.89,1712056778046875
-27.92,1712056778062500
-30.46,1712056778078125
-33.72,1712056778093750
-37.8,1712056778109375
-42.65,1712056778125000
-48.07,1712056778140625
-53.64,1712056778156250
-58.68,1712056778171875
-62.3,1712056778187500
-63.5,1712056778203125
-61.42,1712056778218750
-55.56,1712056778234375
-46.07,1712056778250000
-33.79,1712056778265625
-20.16,1712056778281250
-6.97,1712056778296875
4.11,1712056778312500
11.89,1712056778328125
16.0,1712056778343750
16.93,1712056778359375
15.92,1712056778375000
14.53,1712056778390625
14.12,1712056778406250
15.39,1712056778421875
18.11,1712056778437500
21.2,1712056778453125
23.21,1712056778468750
22.97,1712056778484375
20.22,1712056778500000
15.91,1712056778515625
11.93,1712056778531250
10.38,1712056778546875
12.56,1712056778562500
18.28,1712056778578125
25.84,1712056778593750
32.64,1712056778609375
36.27,1712056778625000
35.66,1712056778640625
31.5,1712056778656250
26.24,1712056778671875
23.53,1712056778687500
27.76,1712056778703125
43.14,1712056778718750
72.47,1712056778734375
115.51,1712056778750000
167.68,1712056778765625
220.02,1712056778781250
261.43,1712056778796875
282.51,1712056778812500
279.34,1712056778828125
255.06,1712056778843750
218.03,1712056778859375
177.65,1712056778875000
140.01,1712056778890625
106.19,1712056778906250
73.79,1712056778921875
40.38,1712056778937500
6.52,1712056778953125
-23.99,1712056778968750
-46.39,1712056778984375
-58.25,1712056779000000
-61.1,1712056779015625
-59.68,1712056779031250
-59.48,1712056779046875
-64.43,1712056779062500
-75.94,1712056779078125
-93.34,1712056779093750
-114.9,1712056779109375
-138.32,1712056779125000
-160.43,1712056779140625
-176.94,1712056779156250
-183.14,1712056779171875
-175.59,1712056779187500
-153.94,1712056779203125
-121.89,1712056779218750
-86.28,1712056779234375
-54.82,1712056779250000
-33.24,1712056779265625
-23.53,1712056779281250
-23.91,1712056779296875
-30.45,1712056779312500
-39.17,1712056779328125
-47.56,1712056779343750
-55.0,1712056779359375
-61.8,1712056779375000
-68.23,1712056779390625
-73.73,1712056779406250
-77.0,1712056779421875
-76.96,1712056779437500
-73.62,1712056779453125
-68.35,1712056779468750
-63.33,1712056779484375
-60.41,1712056779500000
-60.05,1712056779515625
-61.02,1712056779531250
-61.09,1712056779546875
-58.31,1712056779562500
-51.98,1712056779578125
-43.05,1712056779593750
-33.47,1712056779609375
-25.06,1712056779625000
-18.59,1712056779640625
-13.34,1712056779656250
-7.74,1712056779671875
-0.34,1712056779687500
9.27,1712056779703125
20.14,1712056779718750
30.43,1712056779734375
38.25,1712056779750000
42.55,1712056779765625
43.36,1712056779781250
41.51,1712056779796875
37.98,1712056779812500
33.4,1712056779828125
27.86,1712056779843750
20.88,1712056779859375
11.61,1712056779875000
-1.03,1712056779890625
-18.12,1712056779906250
-40.44,1712056779921875
-68.08,1712056779937500
-100.03,1712056779953125
-134.18,1712056779968750
-167.58,1712056779984375
-197.01,1712056780000000
-219.56,1712056780015625
-232.98,1712056780031250
-235.91,1712056780046875
-228.0,1712056780062500
-210.04,1712056780078125
-184.13,1712056780093750
-153.64,1712056780109375
-122.72,1712056780125000
-95.41,1712056780140625
-74.7,1712056780156250
-61.76,1712056780171875
-55.81,1712056780187500
-54.6,1712056780203125
-55.16,1712056780218750
-54.38,1712056780234375
-49.42,1712056780250000
-38.05,1712056780265625
-19.32,1712056780281250
5.81,1712056780296875
34.12,1712056780312500
60.85,1712056780328125
81.21,1712056780343750
92.42,1712056780359375
94.92,1712056780375000
92.16,1712056780390625
88.92,1712056780406250
89.04,1712056780421875
93.67,1712056780437500
101.17,1712056780453125
108.35,1712056780468750
112.36,1712056780484375
111.98,1712056780500000
107.83,1712056780515625
101.54,1712056780531250
94.55,1712056780546875
87.46,1712056780562500
80.14,1712056780578125
72.35,1712056780593750
64.21,1712056780609375
56.4,1712056780625000
49.78,1712056780640625
44.77,1712056780656250
40.94,1712056780671875
37.08,1712056780687500
31.79,1712056780703125
24.2,1712056780718750
14.47,1712056780734375
3.78,1712056780750000
-6.29,1712056780765625
-14.52,1712056780781250
-20.64,1712056780796875
-25.44,1712056780812500
-30.44,1712056780828125
-37.21,1712056780843750
-46.66,1712056780859375
-58.62,1712056780875000
-71.65,1712056780890625
-83.36,1712056780906250
-91.03,1712056780921875
-92.42,1712056780937500
-86.46,1712056780953125
-73.6,1712056780968750
-55.65,1712056780984375
-35.2,1712056781000000
-14.88,1712056781015625
3.32,1712056781031250
18.32,1712056781046875
29.89,1712056781062500
38.31,1712056781078125
44.0,1712056781093750
47.28,1712056781109375
48.4,1712056781125000
47.6,1712056781140625
45.26,1712056781156250
41.95,1712056781171875
38.35,1712056781187500
35.08,1712056781203125
32.53,1712056781218750
30.91,1712056781234375
30.23,1712056781250000
30.56,1712056781265625
32.04,1712056781281250
34.78,1712056781296875
38.8,1712056781312500
43.72,1712056781328125
48.78,1712056781343750
52.99,1712056781359375
55.47,1712056781375000
55.78,1712056781390625
54.01,1712056781406250
50.73,1712056781421875
46.55,1712056781437500
41.93,1712056781453125
37.0,1712056781468750
31.59,1712056781484375
25.45,1712056781500000
18.47,1712056781515625
10.79,1712056781531250
2.86,1712056781546875
-4.76,1712056781562500
-11.53,1712056781578125
-17.19,1712056781593750
-21.9,1712056781609375
-26.35,1712056781625000
-31.57,1712056781640625
-38.57,1712056781656250
-47.85,1712056781671875
-58.89,1712056781687500
-69.98,1712056781703125
-78.49,1712056781718750
-81.59,1712056781734375
-77.22,1712056781750000
-64.83,1712056781765625
-45.67,1712056781781250
-22.41,1712056781796875
1.68,1712056781812500
23.71,1712056781828125
41.74,1712056781843750
55.11,1712056781859375
64.12,1712056781875000
69.62,1712056781890625
72.58,1712056781906250
73.86,1712056781921875
74.11,1712056781937500
73.85,1712056781953125
73.47,1712056781968750
73.22,1712056781984375
73.14,1712056782000000
73.01,1712056782015625
72.43,1712056782031250
71.03,1712056782046875
68.68,1712056782062500
65.64,1712056782078125
62.5,1712056782093750
59.94,1712056782109375
58.38,1712056782125000
57.78,1712056782140625
57.55,1712056782156250
56.82,1712056782171875
54.79,1712056782187500
51.02,1712056782203125
45.62,1712056782218750
39.13,1712056782234375
32.25,1712056782250000
25.55,1712056782265625
19.27,1712056782281250
13.29,1712056782296875
7.34,1712056782312500
1.13,1712056782328125
-5.33,1712056782343750
-11.85,1712056782359375
-18.06,1712056782375000
-23.64,1712056782390625
-28.41,1712056782406250
-32.41,1712056782421875
-35.86,1712056782437500
-39.11,1712056782453125
-42.55,1712056782468750
-46.69,1712056782484375
-51.98,1712056782500000
-58.66,1712056782515625
-66.38,1712056782531250
-74.01,1712056782546875
-79.62,1712056782562500
-80.97,1712056782578125
-76.26,1712056782593750
-64.89,1712056782609375
-47.74,1712056782625000
-26.91,1712056782640625
-5.11,1712056782656250
15.23,1712056782671875
32.41,1712056782687500
45.62,1712056782703125
54.78,1712056782718750
60.19,1712056782734375
62.38,1712056782750000
62.06,1712056782765625
60.07,1712056782781250
57.35,1712056782796875
54.69,1712056782812500
52.61,1712056782828125
51.23,1712056782843750
50.35,1712056782859375
49.6,1712056782875000
48.69,1712056782890625
47.49,1712056782906250
46.12,1712056782921875
44.83,1712056782937500
43.93,1712056782953125
43.64,1712056782968750
43.98,1712056782984375
44.75,1712056783000000
45.49,1712056783015625
45.65,1712056783031250
44.66,1712056783046875
42.14,1712056783062500
38.03,1712056783078125
32.63,1712056783093750
26.51,1712056783109375
20.36,1712056783125000
14.69,1712056783140625
9.67,1712056783156250
5.11,1712056783171875
0.56,1712056783187500
-4.44,1712056783203125
-10.07,1712056783218750
-16.2,1712056783234375
-22.38,1712056783250000
-28.19,1712056783265625
-33.41,1712056783281250
-38.23,1712056783296875
-43.18,1712056783312500
-48.93,1712056783328125
-55.88,1712056783343750
-63.85,1712056783359375
-71.82,1712056783375000
-78.12,1712056783390625
-80.68,1712056783406250
-77.73,1712056783421875
-68.4,1712056783437500
-53.03,1712056783453125
-33.16,1712056783468750
-11.07,1712056783484375
10.77,1712056783500000
30.35,1712056783515625
46.39,1712056783531250
58.4,1712056783546875
66.53,1712056783562500
71.27,1712056783578125
73.29,1712056783593750
73.25,1712056783609375
71.8,1712056783625000
69.54,1712056783640625
66.99,1712056783656250
64.57,1712056783671875
62.59,1712056783687500
61.18,1712056783703125
60.39,1712056783718750
60.13,1712056783734375
60.22,1712056783750000
60.49,1712056783765625
60.78,1712056783781250
61.04,1712056783796875
61.22,1712056783812500
61.31,1712056783828125
61.18,1712056783843750
60.57,1712056783859375
59.23,1712056783875000
56.93,1712056783890625
53.68,1712056783906250
49.68,1712056783921875
45.31,1712056783937500
40.91,1712056783953125
36.67,1712056783968750
32.52,1712056783984375
28.19,1712056784000000
23.32,1712056784015625
17.66,1712056784031250
11.18,1712056784046875
4.07,1712056784062500
-3.22,1712056784078125
-10.19,1712056784093750
-16.33,1712056784109375
-21.34,1712056784125000
-25.17,1712056784140625
-28.13,1712056784156250
-30.86,1712056784171875
-34.15,1712056784187500
-38.77,1712056784203125
-45.14,1712056784218750
-53.07,1712056784234375
-61.51,1712056784250000
-68.73,1712056784265625
-72.62,1712056784281250
-71.32,1712056784296875
-63.75,1712056784312500
-50.07,1712056784328125
-31.67,1712056784343750
-10.86,1712056784359375
9.73,1712056784375000
27.84,1712056784390625
42.05,1712056784406250
51.87,1712056784421875
57.64,1712056784437500
60.11,1712056784453125
60.14,1712056784468750
58.43,1712056784484375
55.52,1712056784500000
51.78,1712056784515625
47.57,1712056784531250
43.2,1712056784546875
38.95,1712056784562500
34.99,1712056784578125
31.37,1712056784593750
28.14,1712056784609375
25.43,1712056784625000
23.44,1712056784640625
22.37,1712056784656250
22.28,1712056784671875
22.89,1712056784687500
23.68,1712056784703125
23.96,1712056784718750
23.12,1712056784734375
20.78,1712056784750000
16.91,1712056784765625
11.78,1712056784781250
5.82,1712056784796875
-0.42,1712056784812500
-6.48,1712056784828125
-11.97,1712056784843750
-16.74,1712056784859375
-20.82,1712056784875000
-24.49,1712056784890625
-28.12,1712056784906250
-32.03,1712056784921875
-36.28,1712056784937500
-40.64,1712056784953125
-44.61,1712056784968750
-47.63,1712056784984375
-49.36,1712056785000000
-49.81,1712056785015625
-49.47,1712056785031250
-49.21,1712056785046875
-49.97,1712056785062500
-52.38,1712056785078125
-56.36,1712056785093750
-60.91,1712056785109375
-64.29,1712056785125000
-64.43,1712056785140625
-59.67,1712056785156250
-49.34,1712056785171875
-34.08,1712056785187500
-15.66,1712056785203125
3.59,1712056785218750
21.38,1712056785234375
36.07,1712056785250000
46.86,1712056785265625
53.7,1712056785281250
57.01,1712056785296875
57.48,1712056785312500
55.86,1712056785328125
52.84,1712056785343750
49.08,1712056785359375
45.15,1712056785375000
41.47,1712056785390625
38.33,1712056785406250
35.81,1712056785421875
33.9,1712056785437500
32.53,1712056785453125
31.58,1712056785468750
30.96,1712056785484375
30.58,1712056785500000
30.41,1712056785515625
30.46,1712056785531250
30.76,1712056785546875
31.28,1712056785562500
31.86,1712056785578125
32.15,1712056785593750
31.64,1712056785609375
29.85,1712056785625000
26.51,1712056785640625
21.71,1712056785656250
15.89,1712056785671875
9.74,1712056785687500
3.95,1712056785703125
-1.02,1712056785718750
-4.99,1712056785734375
-8.14,1712056785750000
-10.85,1712056785765625
-13.56,1712056785781250
-16.66,1712056785796875
-20.31,1712056785812500
-24.42,1712056785828125
-28.69,1712056785843750
-32.7,1712056785859375
-36.11,1712056785875000
-38.77,1712056785890625
-40.91,1712056785906250
-42.98,1712056785921875
-45.64,1712056785937500
-49.35,1712056785953125
-54.19,1712056785968750
-59.59,1712056785984375
-64.35,1712056786000000
-66.85,1712056786015625
-65.58,1712056786031250
-59.58,1712056786046875
-48.82,1712056786062500
-34.24,1712056786078125
-17.41,1712056786093750
-0.06,1712056786109375
16.29,1712056786125000
30.57,1712056786140625
42.11,1712056786156250
50.54,1712056786171875
55.63,1712056786187500
57.4,1712056786203125
56.15,1712056786218750
52.56,1712056786234375
47.67,1712056786250000
42.69,1712056786265625
38.65,1712056786281250
36.15,1712056786296875
35.13,1712056786312500
34.95,1712056786328125
34.77,1712056786343750
33.86,1712056786359375
31.95,1712056786375000
29.35,1712056786390625
26.77,1712056786406250
25.02,1712056786421875
24.71,1712056786437500
26.04,1712056786453125
28.67,1712056786468750
31.74,1712056786484375
33.86,1712056786500000
33.37,1712056786515625
28.84,1712056786531250
19.71,1712056786546875
6.81,1712056786562500
-7.51,1712056786578125
-20.01,1712056786593750
-27.72,1712056786609375
-29.11,1712056786625000
-24.89,1712056786640625
-17.8,1712056786656250
-11.7,1712056786671875
-10.1,1712056786687500
-14.94,1712056786703125
-25.98,1712056786718750
-40.98,1712056786734375
-56.58,1712056786750000
-69.31,1712056786765625
-76.56,1712056786781250
-77.16,1712056786796875
-71.57,1712056786812500
-61.75,1712056786828125
-50.71,1712056786843750
-41.92,1712056786859375
-38.43,1712056786875000
-42.01,1712056786890625
-52.41,1712056786906250
-67.15,1712056786921875
-81.96,1712056786937500
-91.91,1712056786953125
-92.91,1712056786968750
-82.94,1712056786984375
-62.78,1712056787000000
-35.72,1712056787015625
-6.61,1712056787031250
19.59,1712056787046875
39.06,1712056787062500
49.89,1712056787078125
52.25,1712056787093750
47.98,1712056787109375
39.8,1712056787125000
30.55,1712056787140625
22.48,1712056787156250
16.89,1712056787171875
14.12,1712056787187500
13.7,1712056787203125
14.72,1712056787218750
16.15,1712056787234375
17.18,1712056787250000
17.39,1712056787265625
16.76,1712056787281250
15.63,1712056787296875
14.49,1712056787312500
13.87,1712056787328125
14.09,1712056787343750
15.28,1712056787359375
17.28,1712056787375000
19.78,1712056787390625
22.32,1712056787406250
24.44,1712056787421875
25.72,1712056787437500
25.84,1712056787453125
24.6,1712056787468750
22.01,1712056787484375
18.28,1712056787500000
13.82,1712056787515625
9.12,1712056787531250
4.7,1712056787546875
0.9,1712056787562500
-2.2,1712056787578125
-4.71,1712056787593750
-6.94,1712056787609375
-9.21,1712056787625000
-11.74,1712056787640625
-14.64,1712056787656250
-17.87,1712056787671875
-21.31,1712056787687500
-24.75,1712056787703125
-28.04,1712056787718750
-31.01,1712056787734375
-33.62,1712056787750000
-35.98,1712056787765625
-38.31,1712056787781250
-40.88,1712056787796875
-43.77,1712056787812500
-46.67,1712056787828125
-48.85,1712056787843750
-49.18,1712056787859375
-46.52,1712056787875000
-40.07,1712056787890625
-29.72,1712056787906250
-16.17,1712056787921875
-0.78,1712056787937500
14.75,1712056787953125
28.82,1712056787968750
40.27,1712056787984375
48.47,1712056788000000
53.37,1712056788015625
55.35,1712056788031250
55.04,1712056788046875
53.21,1712056788062500
50.58,1712056788078125
47.73,1712056788093750
45.04,1712056788109375
42.64,1712056788125000
40.46,1712056788140625
38.42,1712056788156250
36.44,1712056788171875
34.56,1712056788187500
32.93,1712056788203125
31.69,1712056788218750
30.92,1712056788234375
30.54,1712056788250000
30.4,1712056788265625
30.24,1712056788281250
29.81,1712056788296875
28.88,1712056788312500
27.33,1712056788328125
25.09,1712056788343750
22.16,1712056788359375
18.65,1712056788375000
14.7,1712056788390625
10.49,1712056788406250
6.21,1712056788421875
2.04,1712056788437500
-1.88,1712056788453125
-5.49,1712056788468750
-8.82,1712056788484375
-11.97,1712056788500000
-15.08,1712056788515625
-18.35,1712056788531250
-21.89,1712056788546875
-25.79,1712056788562500
-30.0,1712056788578125
-34.37,1712056788593750
-38.58,1712056788609375
-42.3,1712056788625000
-45.25,1712056788640625
-47.35,1712056788656250
-48.83,1712056788671875
-50.17,1712056788687500
-52.01,1712056788703125
-54.8,1712056788718750
-58.58,1712056788734375
-62.81,1712056788750000
-66.42,1712056788765625
-68.05,1712056788781250
-66.51,1712056788796875
-61.15,1712056788812500
-52.03,1712056788828125
-40.03,1712056788843750
-26.49,1712056788859375
-12.94,1712056788875000
-0.65,1712056788890625
9.49,1712056788906250
17.15,1712056788921875
22.35,1712056788937500
25.34,1712056788953125
26.51,1712056788968750
26.22,1712056788984375
24.85,1712056789000000
22.81,1712056789015625
20.44,1712056789031250
18.12,1712056789046875
16.13,1712056789062500
14.73,1712056789078125
14.05,1712056789093750
14.18,1712056789109375
15.09,1712056789125000
16.71,1712056789140625
18.94,1712056789156250
21.61,1712056789171875
24.54,1712056789187500
27.43,1712056789203125
29.83,1712056789218750
31.2,1712056789234375
31.03,1712056789250000
29.01,1712056789265625
25.16,1712056789281250
19.92,1712056789296875
13.98,1712056789312500
8.16,1712056789328125
3.08,1712056789343750
-0.92,1712056789359375
-3.84,1712056789375000
-5.94,1712056789390625
-7.64,1712056789406250
-9.36,1712056789421875
-11.43,1712056789437500
-14.02,1712056789453125
-17.13,1712056789468750
-20.65,1712056789484375
-24.42,1712056789500000
-28.34,1712056789515625
-32.48,1712056789531250
-37.02,1712056789546875
-42.2,1712056789562500
-48.06,1712056789578125
-54.26,1712056789593750
-59.91,1712056789609375
-63.67,1712056789625000
-64.02,1712056789640625
-59.79,1712056789656250
-50.59,1712056789671875
-37.04,1712056789687500
-20.74,1712056789703125
-3.78,1712056789718750
11.74,1712056789734375
24.31,1712056789750000
33.17,1712056789765625
38.38,1712056789781250
40.52,1712056789796875
40.39,1712056789812500
38.73,1712056789828125
36.14,1712056789843750
33.06,1712056789859375
29.8,1712056789875000
26.6,1712056789890625
23.63,1712056789906250
21.08,1712056789921875
19.13,1712056789937500
18.02,1712056789953125
17.97,1712056789968750
19.06,1712056789984375
21.2,1712056790000000
24.05,1712056790015625
27.07,1712056790031250
29.7,1712056790046875
31.46,1712056790062500
32.03,1712056790078125
31.3,1712056790093750
29.31,1712056790109375
26.28,1712056790125000
22.56,1712056790140625
18.53,1712056790156250
14.63,1712056790171875
11.17,1712056790187500
8.29,1712056790203125
5.88,1712056790218750
3.74,1712056790234375
1.62,1712056790250000
-0.61,1712056790265625
-3.01,1712056790281250
-5.46,1712056790296875
-7.85,1712056790312500
-10.03,1712056790328125
-11.91,1712056790343750
-13.5,1712056790359375
-14.87,1712056790375000
-16.25,1712056790390625
-17.97,1712056790406250
-20.48,1712056790421875
-24.23,1712056790437500
-29.53,1712056790453125
-36.28,1712056790468750
-43.85,1712056790484375
-51.02,1712056790500000
-56.18,1712056790515625
-57.72,1712056790531250
-54.53,1712056790546875
-46.33,1712056790562500
-33.9,1712056790578125
-18.87,1712056790593750
-3.27,1712056790609375
11.0,1712056790625000
22.57,1712056790640625
30.81,1712056790656250
35.86,1712056790671875
38.29,1712056790687500
38.89,1712056790703125
38.34,1712056790718750
37.11,1712056790734375
35.52,1712056790750000
33.8,1712056790765625
32.24,1712056790781250
31.16,1712056790796875
30.86,1712056790812500
31.47,1712056790828125
32.88,1712056790843750
34.76,1712056790859375
36.67,1712056790875000
38.23,1712056790890625
39.23,1712056790906250
39.67,1712056790921875
39.75,1712056790937500
39.77,1712056790953125
40.0,1712056790968750
40.55,1712056790984375
41.26,1712056791000000
41.81,1712056791015625
41.79,1712056791031250
40.97,1712056791046875
39.42,1712056791062500
37.57,1712056791078125
35.91,1712056791093750
34.77,1712056791109375
34.08,1712056791125000
33.24,1712056791140625
31.44,1712056791156250
27.83,1712056791171875
21.94,1712056791187500
13.86,1712056791203125
4.22,1712056791218750
-5.96,1712056791234375
-15.6,1712056791250000
-23.86,1712056791265625
-30.57,1712056791281250
-36.29,1712056791296875
-42.19,1712056791312500
-49.58,1712056791328125
-59.26,1712056791343750
-70.88,1712056791359375
-82.81,1712056791375000
-92.41,1712056791390625
-96.86,1712056791406250
-94.14,1712056791421875
-83.78,1712056791437500
-67.13,1712056791453125
-46.85,1712056791468750
-26.12,1712056791484375
-7.67,1712056791500000
6.86,1712056791515625
17.14,1712056791531250
23.84,1712056791546875
28.07,1712056791562500
30.76,1712056791578125
32.34,1712056791593750
32.71,1712056791609375
31.5,1712056791625000
28.41,1712056791640625
23.56,1712056791656250
17.4,1712056791671875
10.58,1712056791687500
3.68,1712056791703125
-2.94,1712056791718750
-9.12,1712056791734375
-14.72,1712056791750000
-19.45,1712056791765625
-22.93,1712056791781250
-24.77,1712056791796875
-24.89,1712056791812500
-23.71,1712056791828125
-22.11,1712056791843750
-21.17,1712056791859375
-21.75,1712056791875000
-24.2,1712056791890625
-28.2,1712056791906250
-32.94,1712056791921875
-37.37,1712056791937500
-40.66,1712056791953125
-42.4,1712056791968750
-42.74,1712056791984375
-42.27,1712056792000000
-41.77,1712056792015625
-41.86,1712056792031250
-42.8,1712056792046875
-44.39,1712056792062500
-46.1,1712056792078125
-47.32,1712056792093750
-47.59,1712056792109375
-46.85,1712056792125000
-45.44,1712056792140625
-44.02,1712056792156250
-43.33,1712056792171875
-43.97,1712056792187500
-46.34,1712056792203125
-50.45,1712056792218750
-55.97,1712056792234375
-62.07,1712056792250000
-67.38,1712056792265625
-70.18,1712056792281250
-68.75,1712056792296875
-61.87,1712056792312500
-49.32,1712056792328125
-32.09,1712056792343750
-12.12,1712056792359375
8.1,1712056792375000
26.23,1712056792390625
40.58,1712056792406250
50.37,1712056792421875
55.66,1712056792437500
57.15,1712056792453125
55.85,1712056792468750
52.78,1712056792484375
48.84,1712056792500000
44.7,1712056792515625
40.84,1712056792531250
37.61,1712056792546875
35.3,1712056792562500
34.04,1712056792578125
33.76,1712056792593750
34.13,1712056792609375
34.6,1712056792625000
34.62,1712056792640625
33.81,1712056792656250
32.07,1712056792671875
29.52,1712056792687500
26.27,1712056792703125
22.29,1712056792718750
17.41,1712056792734375
11.45,1712056792750000
4.49,1712056792765625
-3.05,1712056792781250
-10.54,1712056792796875
-17.32,1712056792812500
-22.97,1712056792828125
-27.4,1712056792843750
-30.78,1712056792859375
-33.37,1712056792875000
-35.44,1712056792890625
-37.24,1712056792906250
-39.04,1712056792921875
-41.13,1712056792937500
-43.8,1712056792953125
-47.17,1712056792968750
-51.24,1712056792984375
-55.87,1712056793000000
-60.9,1712056793015625
-66.12,1712056793031250
-71.18,1712056793046875
-75.62,1712056793062500
-78.86,1712056793078125
-80.44,1712056793093750
-80.18,1712056793109375
-78.33,1712056793125000
-75.24,1712056793140625
-71.05,1712056793156250
-65.35,1712056793171875
-57.09,1712056793187500
-45.06,1712056793203125
-28.54,1712056793218750
-7.84,1712056793234375
15.61,1712056793250000
39.63,1712056793265625
62.04,1712056793281250
81.25,1712056793296875
96.54,1712056793312500
107.89,1712056793328125
115.55,1712056793343750
119.75,1712056793359375
120.59,1712056793375000
118.15,1712056793390625
112.76,1712056793406250
105.06,1712056793421875
96.05,1712056793437500
86.93,1712056793453125
78.88,1712056793468750
72.84,1712056793484375
69.3,1712056793500000
68.09,1712056793515625
68.34,1712056793531250
68.72,1712056793546875
67.79,1712056793562500
64.55,1712056793578125
58.66,1712056793593750
50.54,1712056793609375
40.98,1712056793625000
30.79,1712056793640625
20.5,1712056793656250
10.44,1712056793671875
0.89,1712056793687500
-7.72,1712056793703125
-14.86,1712056793718750
-20.05,1712056793734375
-23.13,1712056793750000
-24.35,1712056793765625
-24.28,1712056793781250
-23.55,1712056793796875
-22.67,1712056793812500
-21.97,1712056793828125
-21.6,1712056793843750
-21.74,1712056793859375
-22.68,1712056793875000
-24.8,1712056793890625
-28.51,1712056793906250
-34.02,1712056793921875
-41.2,1712056793937500
-49.47,1712056793953125
-57.86,1712056793968750
-65.3,1712056793984375
-70.84,1712056794000000
-74.01,1712056794015625
-74.92,1712056794031250
-74.22,1712056794046875
-72.9,1712056794062500
-71.88,1712056794078125
-71.71,1712056794093750
-72.31,1712056794109375
-72.93,1712056794125000
-72.27,1712056794140625
-68.77,1712056794156250
-61.16,1712056794171875
-48.93,1712056794187500
-32.62,1712056794203125
-13.84,1712056794218750
5.1,1712056794234375
21.85,1712056794250000
34.63,1712056794265625
42.71,1712056794281250
46.33,1712056794296875
46.51,1712056794312500
44.51,1712056794328125
41.44,1712056794343750
38.09,1712056794359375
34.91,1712056794375000
32.22,1712056794390625
30.27,1712056794406250
29.24,1712056794421875
29.23,1712056794437500
30.08,1712056794453125
31.46,1712056794468750
32.92,1712056794484375
34.1,1712056794500000
34.82,1712056794515625
35.09,1712056794531250
35.0,1712056794546875
34.64,1712056794562500
33.97,1712056794578125
32.92,1712056794593750
31.39,1712056794609375
29.35,1712056794625000
26.79,1712056794640625
23.76,1712056794656250
20.28,1712056794671875
16.36,1712056794687500
12.02,1712056794703125
7.3,1712056794718750
2.26,1712056794734375
-3.03,1712056794750000
-8.49,1712056794765625
-14.04,1712056794781250
-19.5,1712056794796875
-24.61,1712056794812500
-29.05,1712056794828125
-32.53,1712056794843750
-34.87,1712056794859375
-36.05,1712056794875000
-36.24,1712056794890625
-35.8,1712056794906250
-35.23,1712056794921875
-35.26,1712056794937500
-36.74,1712056794953125
-40.41,1712056794968750
-46.57,1712056794984375
-54.72,1712056795000000
-63.42,1712056795015625
-70.51,1712056795031250
-73.67,1712056795046875
-71.1,1712056795062500
-62.15,1712056795078125
-47.55,1712056795093750
-29.13,1712056795109375
-9.38,1712056795125000
9.25,1712056795140625
24.82,1712056795156250
36.25,1712056795171875
43.31,1712056795187500
46.44,1712056795203125
46.54,1712056795218750
44.65,1712056795234375
41.77,1712056795250000
38.69,1712056795265625
35.97,1712056795281250
33.93,1712056795296875
32.65,1712056795312500
32.08,1712056795328125
32.04,1712056795343750
32.34,1712056795359375
32.82,1712056795375000
33.49,1712056795390625
34.46,1712056795406250
35.81,1712056795421875
37.53,1712056795437500
39.39,1712056795453125
40.95,1712056795468750
41.75,1712056795484375
41.35,1712056795500000
39.51,1712056795515625
36.26,1712056795531250
31.88,1712056795546875
26.81,1712056795562500
21.59,1712056795578125
16.72,1712056795593750
12.52,1712056795609375
9.13,1712056795625000
6.43,1712056795640625
4.18,1712056795656250
2.14,1712056795671875
0.14,1712056795687500
-1.85,1712056795703125
-3.77,1712056795718750
-5.56,1712056795734375
-7.21,1712056795750000
-8.82,1712056795765625
-10.53,1712056795781250
-12.5,1712056795796875
-14.8,1712056795812500
-17.41,1712056795828125
-20.17,1712056795843750
-22.94,1712056795859375
-25.6,1712056795875000
-28.26,1712056795890625
-31.25,1712056795906250
-35.02,1712056795921875
-39.94,1712056795937500
-45.96,1712056795953125
-52.4,1712056795968750
-57.9,1712056795984375
-60.71,1712056796000000
-59.17,1712056796015625
-52.37,1712056796031250
-40.42,1712056796046875
-24.6,1712056796062500
-6.99,1712056796078125
10.11,1712056796093750
24.82,1712056796109375
36.02,1712056796125000
43.41,1712056796140625
47.36,1712056796156250
48.51,1712056796171875
47.54,1712056796187500
45.06,1712056796203125
41.58,1712056796218750
37.57,1712056796234375
33.55,1712056796250000
29.94,1712056796265625
27.01,1712056796281250
24.85,1712056796296875
23.34,1712056796312500
22.31,1712056796328125
21.58,1712056796343750
21.04,1712056796359375
20.69,1712056796375000
20.48,1712056796390625
20.36,1712056796406250
20.18,1712056796421875
19.79,1712056796437500
19.03,1712056796453125
17.81,1712056796468750
16.06,1712056796484375
13.68,1712056796500000
10.52,1712056796515625
6.42,1712056796531250
1.26,1712056796546875
-4.95,1712056796562500
-11.98,1712056796578125
-19.41,1712056796593750
-26.66,1712056796609375
-33.12,1712056796625000
-38.25,1712056796640625
-41.72,1712056796656250
-43.52,1712056796671875
-43.99,1712056796687500
-43.82,1712056796703125
-43.77,1712056796718750
-44.53,1712056796734375
-46.41,1712056796750000
-49.28,1712056796765625
-52.57,1712056796781250
-55.57,1712056796796875
-57.64,1712056796812500
-58.56,1712056796828125
-58.61,1712056796843750
-58.44,1712056796859375
-58.83,1712056796875000
-60.29,1712056796890625
-62.75,1712056796906250
-65.4,1712056796921875
-66.82,1712056796937500
-65.35,1712056796953125
-59.58,1712056796968750
-48.91,1712056796984375
-33.74,1712056797000000
-15.47,1712056797015625
3.84,1712056797031250
21.99,1712056797046875
37.09,1712056797062500
47.97,1712056797078125
54.32,1712056797093750
56.59,1712056797109375
55.75,1712056797125000
52.96,1712056797140625
49.24,1712056797156250
45.36,1712056797171875
41.73,1712056797187500
38.52,1712056797203125
35.67,1712056797218750
33.08,1712056797234375
30.65,1712056797250000
28.29,1712056797265625
26.03,1712056797281250
24.03,1712056797296875
22.58,1712056797312500
22.02,1712056797328125
22.65,1712056797343750
24.48,1712056797359375
27.22,1712056797375000
30.19,1712056797390625
32.52,1712056797406250
33.38,1712056797421875
32.2,1712056797437500
28.9,1712056797453125
23.9,1712056797468750
18.05,1712056797484375
12.31,1712056797500000
7.51,1712056797515625
4.08,1712056797531250
2.05,1712056797546875
1.05,1712056797562500
0.51,1712056797578125
-0.17,1712056797593750
-1.38,1712056797609375
-3.22,1712056797625000
-5.51,1712056797640625
-7.84,1712056797656250
-9.88,1712056797671875
-11.44,1712056797687500
-12.72,1712056797703125
-14.29,1712056797718750
-16.91,1712056797734375
-21.23,1712056797750000
-27.53,1712056797765625
-35.41,1712056797781250
-43.76,1712056797796875
-50.97,1712056797812500
-55.4,1712056797828125
-55.99,1712056797843750
-52.8,1712056797859375
-47.2,1712056797875000
-41.57,1712056797890625
-38.46,1712056797906250
-39.54,1712056797921875
-44.89,1712056797937500
-52.69,1712056797953125
-59.67,1712056797968750
-62.11,1712056797984375
-56.86,1712056798000000
-42.44,1712056798015625
-19.54,1712056798031250
8.85,1712056798046875
38.01,1712056798062500
62.54,1712056798078125
77.76,1712056798093750
81.07,1712056798109375
72.79,1712056798125000
56.12,1712056798140625
36.21,1712056798156250
18.65,1712056798171875
7.82,1712056798187500
5.74,1712056798203125
11.78,1712056798218750
23.13,1712056798234375
35.86,1712056798250000
46.04,1712056798265625
50.78,1712056798281250
48.87,1712056798296875
40.89,1712056798312500
28.96,1712056798328125
16.01,1712056798343750
4.99,1712056798359375
-1.91,1712056798375000
-3.75,1712056798390625
-0.97,1712056798406250
4.94,1712056798421875
11.93,1712056798437500
18.08,1712056798453125
22.04,1712056798468750
23.3,1712056798484375
22.09,1712056798500000
19.17,1712056798515625
15.49,1712056798531250
11.82,1712056798546875
8.6,1712056798562500
5.91,1712056798578125
3.6,1712056798593750
1.43,1712056798609375
-0.76,1712056798625000
-3.0,1712056798640625
-5.22,1712056798656250
-7.41,1712056798671875
-9.62,1712056798687500
-11.99,1712056798703125
-14.69,1712056798718750
-17.78,1712056798734375
-21.28,1712056798750000
-25.07,1712056798765625
-28.95,1712056798781250
-32.53,1712056798796875
-35.09,1712056798812500
-35.6,1712056798828125
-32.9,1712056798843750
-26.07,1712056798859375
-14.9,1712056798875000
-0.21,1712056798890625
16.26,1712056798906250
32.26,1712056798921875
45.72,1712056798937500
55.41,1712056798953125
61.24,1712056798968750
64.11,1712056798984375
65.4,1712056799000000
66.31,1712056799015625
67.5,1712056799031250
69.01,1712056799046875
70.58,1712056799062500
71.98,1712056799078125
73.29,1712056799093750
74.87,1712056799109375
77.12,1712056799125000
80.22,1712056799140625
83.99,1712056799156250
87.84,1712056799171875
90.94,1712056799187500
92.33,1712056799203125
91.04,1712056799218750
86.25,1712056799234375
77.62,1712056799250000
65.55,1712056799265625
51.26,1712056799281250
36.62,1712056799296875
23.5,1712056799312500
13.08,1712056799328125
5.34,1712056799343750
-0.82,1712056799359375
-7.02,1712056799375000
-14.55,1712056799390625
-23.75,1712056799406250
-33.96,1712056799421875
-43.92,1712056799437500
-52.47,1712056799453125
-59.02,1712056799468750
-63.76,1712056799484375
-67.27,1712056799500000
-70.17,1712056799515625
-72.8,1712056799531250
-75.19,1712056799546875
-77.29,1712056799562500
-79.17,1712056799578125
-81.16,1712056799593750
-83.58,1712056799609375
-86.58,1712056799625000
-89.91,1712056799640625
-92.93,1712056799656250
-94.98,1712056799671875
-95.7,1712056799687500
-95.33,1712056799703125
-94.59,1712056799718750
-94.32,1712056799734375
-94.84,1712056799750000
-95.63,1712056799765625
-95.29,1712056799781250
-92.08,1712056799796875
-84.55,1712056799812500
-72.21,1712056799828125
-55.77,1712056799843750
-36.96,1712056799859375
-18.05,1712056799875000
-1.13,1712056799890625
12.29,1712056799906250
21.52,1712056799921875
26.68,1712056799937500
28.45,1712056799953125
27.76,1712056799968750
25.59,1712056799984375
22.71,1712056800000000
19.65,1712056800015625
16.71,1712056800031250
14.04,1712056800046875
11.7,1712056800062500
9.76,1712056800078125
8.26,1712056800093750
7.23,1712056800109375
6.66,1712056800125000
6.57,1712056800140625
6.96,1712056800156250
7.83,1712056800171875
9.11,1712056800187500
10.65,1712056800203125
12.21,1712056800218750
13.51,1712056800234375
14.33,1712056800250000
14.6,1712056800265625
14.31,1712056800281250
13.58,1712056800296875
12.51,1712056800312500
11.22,1712056800328125
9.79,1712056800343750
8.31,1712056800359375
6.83,1712056800375000
5.34,1712056800390625
3.72,1712056800406250
1.72,1712056800421875
-0.9,1712056800437500
-4.29,1712056800453125
-8.41,1712056800468750
-13.01,1712056800484375
-17.77,1712056800500000
-22.38,1712056800515625
-26.68,1712056800531250
-30.68,1712056800546875
-34.59,1712056800562500
-38.71,1712056800578125
-43.22,1712056800593750
-47.98,1712056800609375
-52.35,1712056800625000
-55.16,1712056800640625
-54.98,1712056800656250
-50.57,1712056800671875
-41.44,1712056800687500
-28.07,1712056800703125
-11.98,1712056800718750
4.76,1712056800734375
20.08,1712056800750000
32.46,1712056800765625
41.19,1712056800781250
46.43,1712056800796875
48.83,1712056800812500
49.26,1712056800828125
48.47,1712056800843750
46.92,1712056800859375
44.79,1712056800875000
42.13,1712056800890625
39.03,1712056800906250
35.75,1712056800921875
32.65,1712056800937500
30.14,1712056800953125
28.48,1712056800968750
27.78,1712056800984375
27.99,1712056801000000
29.04,1712056801015625
30.89,1712056801031250
33.43,1712056801046875
36.45,1712056801062500
39.5,1712056801078125
41.98,1712056801093750
43.32,1712056801109375
43.16,1712056801125000
41.47,1712056801140625
38.45,1712056801156250
34.42,1712056801171875
29.65,1712056801187500
24.32,1712056801203125
18.68,1712056801218750
13.03,1712056801234375
7.78,1712056801250000
3.28,1712056801265625
-0.34,1712056801281250
-3.3,1712056801296875
-6.06,1712056801312500
-9.17,1712056801328125
-13.01,1712056801343750
-17.73,1712056801359375
-23.25,1712056801375000
-29.42,1712056801390625
-36.09,1712056801406250
-43.15,1712056801421875
-50.45,1712056801437500
-57.75,1712056801453125
-64.77,1712056801468750
-71.22,1712056801484375
-76.85,1712056801500000
-81.34,1712056801515625
-84.11,1712056801531250
-84.25,1712056801546875
-80.7,1712056801562500
-72.62,1712056801578125
-59.85,1712056801593750
-43.23,1712056801609375
-24.52,1712056801625000
-5.99,1712056801640625
10.19,1712056801656250
22.57,1712056801671875
30.6,1712056801687500
34.65,1712056801703125
35.67,1712056801718750
34.84,1712056801734375
33.17,1712056801750000
31.4,1712056801765625
29.91,1712056801781250
28.83,1712056801796875
28.04,1712056801812500
27.32,1712056801828125
26.41,1712056801843750
25.12,1712056801859375
23.42,1712056801875000
21.49,1712056801890625
19.78,1712056801906250
18.79,1712056801921875
18.92,1712056801937500
20.26,1712056801953125
22.51,1712056801968750
25.1,1712056801984375
27.39,1712056802000000
28.9,1712056802015625
29.37,1712056802031250
28.84,1712056802046875
27.47,1712056802062500
25.53,1712056802078125
23.25,1712056802093750
20.87,1712056802109375
18.53,1712056802125000
16.24,1712056802140625
13.85,1712056802156250
11.09,1712056802171875
7.71,1712056802187500
3.61,1712056802203125
-1.08,1712056802218750
-5.98,1712056802234375
-10.61,1712056802250000
-14.58,1712056802265625
-17.67,1712056802281250
-19.89,1712056802296875
-21.4,1712056802312500
-22.37,1712056802328125
-23.04,1712056802343750
-23.68,1712056802359375
-24.81,1712056802375000
-27.15,1712056802390625
-31.55,1712056802406250
-38.5,1712056802421875
-47.78,1712056802437500
-58.17,1712056802453125
-67.59,1712056802468750
-73.6,1712056802484375
-74.19,1712056802500000
-68.36,1712056802515625
-56.51,1712056802531250
-40.27,1712056802546875
-22.05,1712056802562500
-4.26,1712056802578125
11.1,1712056802593750
22.84,1712056802609375
30.53,1712056802625000
34.27,1712056802640625
34.51,1712056802656250
31.86,1712056802671875
27.08,1712056802687500
21.06,1712056802703125
14.76,1712056802718750
9.13,1712056802734375
4.91,1712056802750000
2.51,1712056802765625
1.96,1712056802781250
2.98,1712056802796875
5.2,1712056802812500
8.23,1712056802828125
11.69,1712056802843750
15.14,1712056802859375
18.09,1712056802875000
19.93,1712056802890625
20.11,1712056802906250
18.24,1712056802921875
14.25,1712056802937500
8.5,1712056802953125
1.65,1712056802968750
-5.37,1712056802984375
-11.61,1712056803000000
-16.29,1712056803015625
-19.04,1712056803031250
-19.91,1712056803046875
-19.41,1712056803062500
-18.29,1712056803078125
-17.28,1712056803093750
-16.93,1712056803109375
-17.39,1712056803125000
-18.57,1712056803140625
-20.17,1712056803156250
-21.83,1712056803171875
-23.28,1712056803187500
-24.34,1712056803203125
-24.95,1712056803218750
-25.24,1712056803234375
-25.52,1712056803250000
-26.21,1712056803265625
-27.65,1712056803281250
-29.8,1712056803296875
-32.09,1712056803312500
-33.44,1712056803328125
-32.53,1712056803343750
-28.27,1712056803359375
-20.28,1712056803375000
-9.15,1712056803390625
3.7,1712056803406250
16.38,1712056803421875
27.08,1712056803437500
34.62,1712056803453125
38.62,1712056803468750
39.49,1712056803484375
38.15,1712056803500000
35.68,1712056803515625
32.94,1712056803531250
30.57,1712056803546875
28.88,1712056803562500
28.04,1712056803578125
28.13,1712056803593750
29.13,1712056803609375
30.89,1712056803625000
33.09,1712056803640625
35.25,1712056803656250
36.95,1712056803671875
37.96,1712056803687500
38.27,1712056803703125
38.12,1712056803718750
37.83,1712056803734375
37.64,1712056803750000
37.67,1712056803765625
37.82,1712056803781250
37.9,1712056803796875
37.65,1712056803812500
36.8,1712056803828125
35.15,1712056803843750
32.62,1712056803859375
29.31,1712056803875000
25.51,1712056803890625
21.69,1712056803906250
18.32,1712056803921875
15.84,1712056803937500
14.5,1712056803953125
14.27,1712056803968750
14.87,1712056803984375
15.88,1712056804000000
16.91,1712056804015625
17.71,1712056804031250
18.27,1712056804046875
18.82,1712056804062500
19.67,1712056804078125
21.1,1712056804093750
23.12,1712056804109375
25.47,1712056804125000
27.65,1712056804140625
29.18,1712056804156250
29.86,1712056804171875
30.17,1712056804187500
31.29,1712056804203125
34.99,1712056804218750
43.15,1712056804234375
57.19,1712056804250000
77.35,1712056804265625
102.48,1712056804281250
130.01,1712056804296875
156.59,1712056804312500
178.97,1712056804328125
194.91,1712056804343750
203.8,1712056804359375
206.63,1712056804375000
205.32,1712056804390625
201.84,1712056804406250
197.47,1712056804421875
192.65,1712056804437500
187.2,1712056804453125
180.79,1712056804468750
173.11,1712056804484375
163.86,1712056804500000
152.67,1712056804515625
139.03,1712056804531250
122.54,1712056804546875
103.22,1712056804562500
81.54,1712056804578125
58.25,1712056804593750
34.2,1712056804609375
10.45,1712056804625000
-11.43,1712056804640625
-28.98,1712056804656250
-39.34,1712056804671875
-40.33,1712056804687500
-32.01,1712056804703125
-17.53,1712056804718750
-2.66,1712056804734375
6.02,1712056804750000
3.52,1712056804765625
-11.79,1712056804781250
-37.8,1712056804796875
-69.67,1712056804812500
-101.72,1712056804828125
-129.09,1712056804843750
-148.71,1712056804859375
-159.46,1712056804875000
-161.71,1712056804890625
-156.98,1712056804906250
-147.59,1712056804921875
-136.49,1712056804937500
-126.86,1712056804953125
-121.6,1712056804968750
-122.58,1712056804984375
-129.97,1712056805000000
-142.09,1712056805015625
-155.97,1712056805031250
-168.61,1712056805046875
-178.15,1712056805062500
-184.34,1712056805078125
-187.89,1712056805093750
-189.21,1712056805109375
-187.31,1712056805125000
-179.94,1712056805140625
-164.83,1712056805156250
-141.45,1712056805171875
-112.17,1712056805187500
-81.87,1712056805203125
-56.19,1712056805218750
-39.2,1712056805234375
-31.83,1712056805250000
-32.01,1712056805265625
-36.24,1712056805281250
-41.53,1712056805296875
-46.61,1712056805312500
-51.65,1712056805328125
-56.95,1712056805343750
-61.81,1712056805359375
-64.17,1712056805375000
-61.38,1712056805390625
-51.7,1712056805406250
-35.29,1712056805421875
-14.36,1712056805437500
7.88,1712056805453125
28.63,1712056805468750
46.76,1712056805484375
62.86,1712056805500000
78.4,1712056805515625
94.47,1712056805531250
110.97,1712056805546875
126.73,1712056805562500
140.32,1712056805578125
151.08,1712056805593750
159.44,1712056805609375
166.69,1712056805625000
174.11,1712056805640625
182.27,1712056805656250
190.91,1712056805671875
199.17,1712056805687500
205.98,1712056805703125
210.39,1712056805718750
211.49,1712056805734375
208.44,1712056805750000
200.72,1712056805765625
188.47,1712056805781250
172.88,1712056805796875
156.04,1712056805812500
140.34,1712056805828125
127.54,1712056805843750
118.27,1712056805859375
112.14,1712056805875000
108.33,1712056805890625
106.31,1712056805906250
106.04,1712056805921875
107.82,1712056805937500
111.76,1712056805953125
117.4,1712056805968750
123.82,1712056805984375
129.95,1712056806000000
134.94,1712056806015625
138.39,1712056806031250
140.23,1712056806046875
140.52,1712056806062500
139.24,1712056806078125
136.21,1712056806093750
131.14,1712056806109375
123.8,1712056806125000
114.26,1712056806140625
102.93,1712056806156250
90.57,1712056806171875
78.08,1712056806187500
66.23,1712056806203125
55.44,1712056806218750
45.62,1712056806234375
36.25,1712056806250000
26.61,1712056806265625
16.1,1712056806281250
4.41,1712056806296875
-8.38,1712056806312500
-21.95,1712056806328125
-36.0,1712056806343750
-50.45,1712056806359375
-65.61,1712056806375000
-81.96,1712056806390625
-99.96,1712056806406250
-119.78,1712056806421875
-141.19,1712056806437500
-163.74,1712056806453125
-186.91,1712056806468750
-210.35,1712056806484375
-233.84,1712056806500000
-257.1,1712056806515625
-279.51,1712056806531250
-300.08,1712056806546875
-317.66,1712056806562500
-331.36,1712056806578125
-340.7,1712056806593750
-345.37,1712056806609375
-344.59,1712056806625000
-336.78,1712056806640625
-319.9,1712056806656250
-292.45,1712056806671875
-254.88,1712056806687500
-210.21,1712056806703125
-163.49,1712056806718750
-120.26,1712056806734375
-84.77,1712056806750000
-59.01,1712056806765625
-43.22,1712056806781250
-36.15,1712056806796875
-35.78,1712056806812500
-39.58,1712056806828125
-44.54,1712056806843750
-47.08,1712056806859375
-43.52,1712056806875000
-30.99,1712056806890625
-8.65,1712056806906250
21.14,1712056806921875
53.8,1712056806937500
83.91,1712056806953125
106.83,1712056806968750
119.85,1712056806984375
122.57,1712056807000000
116.69,1712056807015625
105.25,1712056807031250
91.68,1712056807046875
77.67,1712056807062500
64.07,1712056807078125
51.09,1712056807093750
38.68,1712056807109375
26.57,1712056807125000
14.28,1712056807140625
1.31,1712056807156250
-12.58,1712056807171875
-27.33,1712056807187500
-46.16,1712056807203125
-71.25,1712056807218750
-102.83,1712056807234375
-138.77,1712056807250000
-175.92,1712056807265625
-211.46,1712056807281250
-243.31,1712056807296875
-270.01,1712056807312500
-290.6,1712056807328125
-311.56,1712056807343750
-337.96,1712056807359375
-371.23,1712056807375000
-408.72,1712056807390625
-446.32,1712056807406250
-481.08,1712056807421875
-512.03,1712056807437500
-539.08,1712056807453125
-562.29,1712056807468750
-592.42,1712056807484375
-636.61,1712056807500000
-694.7,1712056807515625
-759.11,1712056807531250
-819.94,1712056807546875
-870.41,1712056807562500
-908.93,1712056807578125
-937.4,1712056807593750
-958.83,1712056807609375
-989.52,1712056807625000
-1039.22,1712056807640625
-1106.45,1712056807656250
-1179.16,1712056807671875
-1242.52,1712056807687500
-1286.85,1712056807703125
-1310.41,1712056807718750
-1316.95,1712056807734375
-1223.72,1712056807750000
-992.42,1712056807765625
-639.17,1712056807781250
-231.15,1712056807796875
154.98,1712056807812500
470.88,1712056807828125
703.15,1712056807843750
859.99,1712056807859375
957.95,1712056807875000
1014.27,1712056807890625
1029.39,1712056807906250
1005.48,1712056807921875
950.88,1712056807937500
880.99,1712056807953125
810.55,1712056807968750
751.55,1712056807984375
708.54,1712056808000000
680.99,1712056808015625
666.39,1712056808031250
651.19,1712056808046875
626.74,1712056808062500
592.18,1712056808078125
554.33,1712056808093750
522.24,1712056808109375
501.95,1712056808125000
494.65,1712056808140625
498.92,1712056808156250
513.45,1712056808171875
526.75,1712056808187500
532.17,1712056808203125
528.94,1712056808218750
521.98,1712056808234375
518.42,1712056808250000
523.78,1712056808265625
539.45,1712056808281250
562.76,1712056808296875
587.65,1712056808312500
602.68,1712056808328125
598.51,1712056808343750
570.78,1712056808359375
521.89,1712056808375000
459.5,1712056808390625
393.14,1712056808406250
330.7,1712056808421875
276.68,1712056808437500
231.84,1712056808453125
192.94,1712056808468750
156.67,1712056808484375
121.15,1712056808500000
86.63,1712056808515625
54.79,1712056808531250
27.32,1712056808546875
4.81,1712056808562500
-13.38,1712056808578125
-28.75,1712056808593750
-43.09,1712056808609375
-57.48,1712056808625000
-72.33,1712056808640625
-87.71,1712056808656250
-104.01,1712056808671875
-122.21,1712056808687500
-143.61,1712056808703125
-168.74,1712056808718750
-196.31,1712056808734375
-222.82,1712056808750000
-243.41,1712056808765625
-253.85,1712056808781250
-252.38,1712056808796875
-240.49,1712056808812500
-222.24,1712056808828125
-202.47,1712056808843750
-184.99,1712056808859375
-171.55,1712056808875000
-161.96,1712056808890625
-154.97,1712056808906250
-149.34,1712056808921875
-144.45,1712056808937500
-140.03,1712056808953125
-135.75,1712056808968750
-130.83,1712056808984375
-124.17,1712056809000000
-114.74,1712056809015625
-102.18,1712056809031250
-87.13,1712056809046875
-71.1,1712056809062500
-55.92,1712056809078125
-42.93,1712056809093750
-32.49,1712056809109375
-23.86,1712056809125000
-15.6,1712056809140625
-6.35,1712056809156250
4.56,1712056809171875
16.66,1712056809187500
28.7,1712056809203125
39.13,1712056809218750
46.85,1712056809234375
51.75,1712056809250000
54.84,1712056809265625
58.14,1712056809281250
64.48,1712056809296875
77.12,1712056809312500
99.06,1712056809328125
131.93,1712056809343750
174.66,1712056809359375
222.87,1712056809375000
269.35,1712056809390625
305.99,1712056809406250
326.36,1712056809421875
327.97,1712056809437500
313.09,1712056809453125
287.84,1712056809468750
259.79,1712056809484375
235.21,1712056809500000
217.24,1712056809515625
205.39,1712056809531250
196.52,1712056809546875
186.64,1712056809562500
172.46,1712056809578125
152.22,1712056809593750
125.77,1712056809609375
94.08,1712056809625000
58.88,1712056809640625
22.5,1712056809656250
-12.29,1712056809671875
-42.71,1712056809687500
-66.51,1712056809703125
-82.91,1712056809718750
-93.16,1712056809734375
-100.25,1712056809750000
-107.77,1712056809765625
-118.45,1712056809781250
-132.98,1712056809796875
-149.86,1712056809812500
-166.19,1712056809828125
-178.85,1712056809843750
-185.45,1712056809859375
-184.71,1712056809875000
-176.4,1712056809890625
-161.14,1712056809906250
-140.26,1712056809921875
-115.84,1712056809937500
-90.36,1712056809953125
-66.24,1712056809968750
-45.18,1712056809984375
-27.77,1712056810000000
-13.46,1712056810015625
-1.06,1712056810031250
10.43,1712056810046875
21.23,1712056810062500
30.76,1712056810078125
38.26,1712056810093750
43.43,1712056810109375
46.76,1712056810125000
49.0,1712056810140625
50.44,1712056810156250
50.38,1712056810171875
47.28,1712056810187500
39.45,1712056810203125
25.84,1712056810218750
6.32,1712056810234375
-18.54,1712056810250000
-47.99,1712056810265625
-81.3,1712056810281250
-117.33,1712056810296875
-153.91,1712056810312500
-187.55,1712056810328125
-214.08,1712056810343750
-230.04,1712056810359375
-234.12,1712056810375000
-227.85,1712056810390625
-214.94,1712056810406250
-199.77,1712056810421875
-185.74,1712056810437500
-174.39,1712056810453125
-165.49,1712056810468750
-157.81,1712056810484375
-150.07,1712056810500000
-141.3,1712056810515625
-130.72,1712056810531250
-117.32,1712056810546875
-99.74,1712056810562500
-76.58,1712056810578125
-47.27,1712056810593750
-12.81,1712056810609375
24.1,1712056810625000
59.62,1712056810640625
90.08,1712056810656250
113.1,1712056810671875
128.31,1712056810687500
137.13,1712056810703125
141.96,1712056810718750
144.96,1712056810734375
147.43,1712056810750000
149.52,1712056810765625
150.66,1712056810781250
150.13,1712056810796875
147.6,1712056810812500
143.32,1712056810828125
137.95,1712056810843750
132.15,1712056810859375
126.4,1712056810875000
120.9,1712056810890625
115.72,1712056810906250
110.95,1712056810921875
106.74,1712056810937500
103.21,1712056810953125
100.25,1712056810968750
97.48,1712056810984375
94.31,1712056811000000
90.24,1712056811015625
84.98,1712056811031250
78.62,1712056811046875
71.52,1712056811062500
64.14,1712056811078125
56.87,1712056811093750
49.85,1712056811109375
43.0,1712056811125000
36.11,1712056811140625
29.06,1712056811156250
22.0,1712056811171875
15.39,1712056811187500
9.87,1712056811203125
5.93,1712056811218750
3.63,1712056811234375
2.45,1712056811250000
1.49,1712056811265625
-0.19,1712056811281250
-3.17,1712056811296875
-7.38,1712056811312500
-12.26,1712056811328125
-17.09,1712056811343750
-21.32,1712056811359375
-24.87,1712056811375000
-28.16,1712056811390625
-31.96,1712056811406250
-37.1,1712056811421875
-44.22,1712056811437500
-53.36,1712056811453125
-63.73,1712056811468750
-73.56,1712056811484375
-80.31,1712056811500000
-81.29,1712056811515625
-74.59,1712056811531250
-59.82,1712056811546875
-38.44,1712056811562500
-13.56,1712056811578125
11.13,1712056811593750
32.37,1712056811609375
48.33,1712056811625000
58.79,1712056811640625
64.82,1712056811656250
68.03,1712056811671875
69.81,1712056811687500
71.04,1712056811703125
71.95,1712056811718750
72.51,1712056811734375
72.69,1712056811750000
72.72,1712056811765625
73.01,1712056811781250
74.16,1712056811796875
76.68,1712056811812500
80.86,1712056811828125
86.65,1712056811843750
93.69,1712056811859375
101.4,1712056811875000
109.19,1712056811890625
116.64,1712056811906250
123.66,1712056811921875
130.43,1712056811937500
137.21,1712056811953125
144.09,1712056811968750
150.8,1712056811984375
156.74,1712056812000000
161.18,1712056812015625
163.61,1712056812031250
163.88,1712056812046875
162.24,1712056812062500
159.2,1712056812078125
155.48,1712056812093750
151.73,1712056812109375
148.46,1712056812125000
145.71,1712056812140625
142.54,1712056812156250
136.64,1712056812171875
124.36,1712056812187500
101.43,1712056812203125
64.46,1712056812218750
12.67,1712056812234375
-50.8,1712056812250000
-118.85,1712056812265625
-181.91,1712056812281250
-230.42,1712056812296875
-257.88,1712056812312500
-263.13,1712056812328125
-250.87,1712056812343750
-230.16,1712056812359375
-211.32,1712056812375000
-202.62,1712056812390625
-208.21,1712056812406250
-227.85,1712056812421875
-258.09,1712056812437500
-294.03,1712056812453125
-330.27,1712056812468750
-361.43,1712056812484375
-382.42,1712056812500000
-389.18,1712056812515625
-380.47,1712056812531250
-358.87,1712056812546875
-331.05,1712056812562500
-305.67,1712056812578125
-289.69,1712056812593750
-284.85,1712056812609375
-286.31,1712056812625000
-284.72,1712056812640625
-270.96,1712056812656250
-240.83,1712056812671875
-197.03,1712056812687500
-147.46,1712056812703125
-100.69,1712056812718750
-61.82,1712056812734375
-30.52,1712056812750000
-2.35,1712056812765625
27.43,1712056812781250
60.58,1712056812796875
94.54,1712056812812500
124.44,1712056812828125
146.25,1712056812843750
160.07,1712056812859375
169.63,1712056812875000
180.12,1712056812890625
195.08,1712056812906250
214.84,1712056812921875
236.89,1712056812937500
257.27,1712056812953125
273.41,1712056812968750
284.27,1712056812984375
291.15,1712056813000000
295.12,1712056813015625
295.91,1712056813031250
292.2,1712056813046875
283.18,1712056813062500
270.2,1712056813078125
256.54,1712056813093750
248.09,1712056813109375
249.71,1712056813125000
265.2,1712056813140625
293.6,1712056813156250
329.55,1712056813171875
364.99,1712056813187500
391.83,1712056813203125
404.69,1712056813218750
400.78,1712056813234375
382.68,1712056813250000
355.23,1712056813265625
327.09,1712056813281250
306.22,1712056813296875
298.75,1712056813312500
307.75,1712056813328125
333.03,1712056813343750
371.73,1712056813359375
417.23,1712056813375000
463.82,1712056813390625
484.24,1712056813406250
457.53,1712056813421875
373.82,1712056813437500
240.22,1712056813453125
77.89,1712056813468750
-87.59,1712056813484375
-225.37,1712056813500000
-331.44,1712056813515625
-408.89,1712056813531250
-463.03,1712056813546875
-496.26,1712056813562500
-510.76,1712056813578125
-508.49,1712056813593750
-491.84,1712056813609375
-463.94,1712056813625000
-428.19,1712056813640625
-389.26,1712056813656250
-348.86,1712056813671875
-308.08,1712056813687500
-265.7,1712056813703125
-221.38,1712056813718750
-176.46,1712056813734375
-134.07,1712056813750000
-97.66,1712056813765625
-69.49,1712056813781250
-50.85,1712056813796875
-39.03,1712056813812500
-29.91,1712056813828125
-18.23,1712056813843750
-0.5,1712056813859375
25.56,1712056813875000
56.98,1712056813890625
87.96,1712056813906250
111.72,1712056813921875
121.92,1712056813937500
116.47,1712056813953125
96.92,1712056813968750
68.0,1712056813984375
34.97,1712056814000000
1.79,1712056814015625
-29.9,1712056814031250
-58.89,1712056814046875
-84.59,1712056814062500
-106.58,1712056814078125
-123.45,1712056814093750
-133.71,1712056814109375
-136.45,1712056814125000
-132.25,1712056814140625
-123.21,1712056814156250
-112.7,1712056814171875
-104.17,1712056814187500
-100.43,1712056814203125
-102.77,1712056814218750
-110.04,1712056814234375
-118.92,1712056814250000
-125.17,1712056814265625
-125.14,1712056814281250
-117.12,1712056814296875
-101.98,1712056814312500
-82.22,1712056814328125
-60.68,1712056814343750
-39.07,1712056814359375
-17.7,1712056814375000
3.76,1712056814390625
25.09,1712056814406250
44.83,1712056814421875
60.63,1712056814437500
70.07,1712056814453125
71.75,1712056814468750
65.67,1712056814484375
53.06,1712056814500000
36.13,1712056814515625
17.53,1712056814531250
-0.12,1712056814546875
-14.64,1712056814562500
-24.79,1712056814578125
-30.47,1712056814593750
-32.74,1712056814609375
-33.56,1712056814625000
-35.32,1712056814640625
-40.2,1712056814656250
-49.44,1712056814671875
-62.74,1712056814687500
-77.91,1712056814703125
-91.21,1712056814718750
-98.48,1712056814734375
-96.66,1712056814750000
-85.27,1712056814765625
-66.76,1712056814781250
-45.67,1712056814796875
-26.83,1712056814812500
-13.55,1712056814828125
-6.76,1712056814843750
-5.3,1712056814859375
-7.16,1712056814875000
-10.73,1712056814890625
-15.25,1712056814906250
-20.55,1712056814921875
-26.29,1712056814937500
-31.44,1712056814953125
-34.54,1712056814968750
-34.37,1712056814984375
-30.74,1712056815000000
-24.74,1712056815015625
-18.45,1712056815031250
-13.95,1712056815046875
-12.51,1712056815062500
-14.25,1712056815078125
-18.29,1712056815093750
-23.27,1712056815109375
-27.95,1712056815125000
-31.42,1712056815140625
-33.13,1712056815156250
-32.73,1712056815171875
-29.89,1712056815187500
-24.28,1712056815203125
-15.74,1712056815218750
-4.41,1712056815234375
9.08,1712056815250000
23.63,1712056815265625
37.78,1712056815281250
50.01,1712056815296875
59.1,1712056815312500
64.44,1712056815328125
66.17,1712056815343750
64.99,1712056815359375
61.92,1712056815375000
57.95,1712056815390625
53.83,1712056815406250
50.1,1712056815421875
47.08,1712056815437500
44.86,1712056815453125
43.13,1712056815468750
41.12,1712056815484375
37.61,1712056815500000
31.32,1712056815515625
21.5,1712056815531250
8.39,1712056815546875
-6.64,1712056815562500
-21.41,1712056815578125
-33.66,1712056815593750
-41.77,1712056815609375
-45.25,1712056815625000
-44.7,1712056815640625
-41.42,1712056815656250
-36.66,1712056815671875
-31.07,1712056815687500
-24.55,1712056815703125
-16.53,1712056815718750
-6.71,1712056815734375
4.39,1712056815750000
15.11,1712056815765625
23.12,1712056815781250
26.27,1712056815796875
23.57,1712056815812500
15.54,1712056815828125
3.83,1712056815843750
-9.68,1712056815859375
-23.83,1712056815875000
-38.4,1712056815890625
-53.84,1712056815906250
-70.66,1712056815921875
-89.05,1712056815937500
-108.9,1712056815953125
-130.09,1712056815968750
-152.46,1712056815984375
-175.52,1712056816000000
-197.87,1712056816015625
-216.89,1712056816031250
-229.13,1712056816046875
-231.44,1712056816062500
-222.33,1712056816078125
-202.75,1712056816093750
-175.71,1712056816109375
-145.02,1712056816125000
-113.87,1712056816140625
-84.01,1712056816156250
-55.87,1712056816171875
-29.13,1712056816187500
-3.6,1712056816203125
20.28,1712056816218750
41.51,1712056816234375
59.17,1712056816250000
72.84,1712056816265625
82.77,1712056816281250
89.53,1712056816296875
93.54,1712056816312500
94.94,1712056816328125
93.89,1712056816343750
90.92,1712056816359375
87.3,1712056816375000
85.14,1712056816390625
87.16,1712056816406250
95.73,1712056816421875
111.83,1712056816437500
134.28,1712056816453125
159.79,1712056816468750
183.82,1712056816484375
201.41,1712056816500000
208.25,1712056816515625
201.76,1712056816531250
181.61,1712056816546875
149.76,1712056816562500
109.88,1712056816578125
66.58,1712056816593750
24.54,1712056816609375
-10.69,1712056816625000
-33.31,1712056816640625
-39.48,1712056816656250
-29.63,1712056816671875
-8.53,1712056816687500
17.16,1712056816703125
41.79,1712056816718750
62.06,1712056816734375
76.33,1712056816750000
85.17,1712056816765625
88.71,1712056816781250
86.34,1712056816796875
77.41,1712056816812500
61.94,1712056816828125
41.0,1712056816843750
16.44,1712056816859375
-8.53,1712056816875000
-30.49,1712056816890625
-46.05,1712056816906250
-52.82,1712056816921875
-49.59,1712056816937500
-36.52,1712056816953125
-15.0,1712056816968750
12.57,1712056816984375
43.12,1712056817000000
73.27,1712056817015625
99.83,1712056817031250
120.46,1712056817046875
133.7,1712056817062500
139.28,1712056817078125
138.02,1712056817093750
131.71,1712056817109375
122.82,1712056817125000
113.93,1712056817140625
107.03,1712056817156250
103.07,1712056817171875
101.99,1712056817187500
102.92,1712056817203125
104.8,1712056817218750
106.66,1712056817234375
107.77,1712056817250000
107.55,1712056817265625
105.47,1712056817281250
101.12,1712056817296875
94.51,1712056817312500
86.41,1712056817328125
78.23,1712056817343750
71.58,1712056817359375
67.48,1712056817375000
65.9,1712056817390625
65.63,1712056817406250
64.76,1712056817421875
61.36,1712056817437500
54.16,1712056817453125
42.96,1712056817468750
28.59,1712056817484375
12.67,1712056817500000
-3.19,1712056817515625
-17.91,1712056817531250
-31.36,1712056817546875
-44.26,1712056817562500
-57.53,1712056817578125
-71.62,1712056817593750
-86.13,1712056817609375
-99.84,1712056817625000
-111.18,1712056817640625
-119.03,1712056817656250
-123.18,1712056817671875
-124.71,1712056817687500
-125.95,1712056817703125
-130.24,1712056817718750
-141.37,1712056817734375
-162.55,1712056817750000
-195.28,1712056817765625
-238.11,1712056817781250
-286.28,1712056817796875
-332.45,1712056817812500
-368.83,1712056817828125
-389.62,1712056817843750
-392.81,1712056817859375
