value,timestamp
-0.0,1712124672000000
-0.0,1712124672015625
-0.0,1712124672031250
-0.0,1712124672046875
-0.0,1712124672062500
-0.0,1712124672078125
-0.0,1712124672093750
-0.0,1712124672109375
-0.0,1712124672125000
-0.0,1712124672140625
0.0,1712124672156250
0.01,1712124672171875
0.01,1712124672187500
-0.0,1712124672203125
-0.03,1712124672218750
-0.05,1712124672234375
-0.05,1712124672250000
0.0,1712124672265625
0.13,1712124672281250
0.36,1712124672296875
0.66,1712124672312500
1.01,1712124672328125
1.37,1712124672343750
1.72,1712124672359375
2.06,1712124672375000
2.4,1712124672390625
2.79,1712124672406250
3.24,1712124672421875
3.8,1712124672437500
4.42,1712124672453125
5.06,1712124672468750
5.66,1712124672484375
6.2,1712124672500000
6.68,1712124672515625
7.15,1712124672531250
7.68,1712124672546875
8.31,1712124672562500
9.14,1712124672578125
10.09,1712124672593750
11.04,1712124672609375
11.88,1712124672625000
12.56,1712124672640625
13.14,1712124672656250
13.76,1712124672671875
14.65,1712124672687500
15.96,1712124672703125
17.91,1712124672718750
20.32,1712124672734375
22.9,1712124672750000
25.38,1712124672765625
27.58,1712124672781250
29.57,1712124672796875
31.68,1712124672812500
34.32,1712124672828125
37.81,1712124672843750
42.54,1712124672859375
48.15,1712124672875000
54.1,1712124672890625
59.83,1712124672906250
64.97,1712124672921875
69.58,1712124672937500
74.14,1712124672953125
79.34,1712124672968750
85.71,1712124672984375
93.76,1712124673000000
103.0,1712124673015625
112.62,1712124673031250
121.73,1712124673046875
129.77,1712124673062500
136.75,1712124673078125
143.3,1712124673093750
150.75,1712124673109375
157.77,1712124673125000
166.64,1712124673140625
177.95,1712124673156250
191.79,1712124673171875
206.97,1712124673187500
220.57,1712124673203125
228.25,1712124673218750
225.36,1712124673234375
208.53,1712124673250000
176.87,1712124673265625
132.76,1712124673281250
80.05,1712124673296875
23.07,1712124673312500
-34.94,1712124673328125
-92.44,1712124673343750
-149.16,1712124673359375
-205.23,1712124673375000
-260.37,1712124673390625
-313.74,1712124673406250
-363.87,1712124673421875
-409.83,1712124673437500
-450.91,1712124673453125
-486.5,1712124673468750
-515.74,1712124673484375
-537.23,1712124673500000
-549.22,1712124673515625
-549.96,1712124673531250
-538.37,1712124673546875
-514.21,1712124673562500
-478.67,1712124673578125
-433.88,1712124673593750
-382.45,1712124673609375
-327.02,1712124673625000
-269.84,1712124673640625
-212.63,1712124673656250
-156.66,1712124673671875
-102.95,1712124673687500
-52.37,1712124673703125
-5.9,1712124673718750
35.58,1712124673734375
71.43,1712124673750000
101.35,1712124673765625
125.5,1712124673781250
144.38,1712124673796875
158.69,1712124673812500
169.15,1712124673828125
176.37,1712124673843750
180.75,1712124673859375
182.57,1712124673875000
182.07,1712124673890625
179.51,1712124673906250
175.23,1712124673921875
169.65,1712124673937500
163.18,1712124673953125
156.15,1712124673968750
148.81,1712124673984375
141.3,1712124674000000
133.69,1712124674015625
126.02,1712124674031250
118.33,1712124674046875
110.69,1712124674062500
103.16,1712124674078125
95.8,1712124674093750
88.68,1712124674109375
81.83,1712124674125000
75.25,1712124674140625
68.95,1712124674156250
62.95,1712124674171875
57.25,1712124674187500
51.86,1712124674203125
46.78,1712124674218750
42.03,1712124674234375
37.59,1712124674250000
33.45,1712124674265625
29.61,1712124674281250
26.07,1712124674296875
22.81,1712124674312500
19.83,1712124674328125
17.11,1712124674343750
14.67,1712124674359375
12.48,1712124674375000
10.54,1712124674390625
8.83,1712124674406250
7.35,1712124674421875
6.07,1712124674437500
4.97,1712124674453125
4.05,1712124674468750
3.27,1712124674484375
2.62,1712124674500000
2.09,1712124674515625
1.65,1712124674531250
1.3,1712124674546875
1.01,1712124674562500
0.79,1712124674578125
0.61,1712124674593750
0.47,1712124674609375
0.37,1712124674625000
0.29,1712124674640625
0.23,1712124674656250
0.18,1712124674671875
0.15,1712124674687500
0.14,1712124674703125
0.13,1712124674718750
0.14,1712124674734375
0.15,1712124674750000
0.17,1712124674765625
0.19,1712124674781250
0.22,1712124674796875
0.26,1712124674812500
0.29,1712124674828125
0.34,1712124674843750
0.38,1712124674859375
0.43,1712124674875000
0.47,1712124674890625
0.52,1712124674906250
0.57,1712124674921875
0.62,1712124674937500
0.68,1712124674953125
0.73,1712124674968750
0.8,1712124674984375
0.86,1712124675000000
0.94,1712124675015625
1.02,1712124675031250
1.11,1712124675046875
1.21,1712124675062500
1.33,1712124675078125
1.45,1712124675093750
1.59,1712124675109375
1.75,1712124675125000
1.93,1712124675140625
2.12,1712124675156250
2.34,1712124675171875
2.58,1712124675187500
2.84,1712124675203125
3.13,1712124675218750
3.45,1712124675234375
3.8,1712124675250000
4.19,1712124675265625
4.61,1712124675281250
5.06,1712124675296875
5.55,1712124675312500
6.08,1712124675328125
6.65,1712124675343750
7.26,1712124675359375
7.91,1712124675375000
8.61,1712124675390625
9.35,1712124675406250
10.14,1712124675421875
10.97,1712124675437500
11.84,1712124675453125
12.76,1712124675468750
13.74,1712124675484375
14.77,1712124675500000
15.86,1712124675515625
17.03,1712124675531250
18.24,1712124675546875
19.5,1712124675562500
20.77,1712124675578125
22.0,1712124675593750
23.11,1712124675609375
24.0,1712124675625000
24.57,1712124675640625
24.67,1712124675656250
24.22,1712124675671875
23.11,1712124675687500
21.29,1712124675703125
18.76,1712124675718750
15.56,1712124675734375
11.77,1712124675750000
7.56,1712124675765625
3.12,1712124675781250
-1.37,1712124675796875
-5.68,1712124675812500
-9.62,1712124675828125
-13.05,1712124675843750
-15.83,1712124675859375
-17.9,1712124675875000
-19.26,1712124675890625
-19.91,1712124675906250
-19.94,1712124675921875
-19.45,1712124675937500
-18.54,1712124675953125
-17.31,1712124675968750
-15.87,1712124675984375
-14.31,1712124676000000
-12.71,1712124676015625
-11.07,1712124676031250
-9.39,1712124676046875
-7.68,1712124676062500
-5.91,1712124676078125
-4.03,1712124676093750
-2.04,1712124676109375
0.1,1712124676125000
2.39,1712124676140625
4.83,1712124676156250
7.43,1712124676171875
10.28,1712124676187500
13.29,1712124676203125
16.44,1712124676218750
19.72,1712124676234375
23.11,1712124676250000
26.56,1712124676265625
30.01,1712124676281250
33.44,1712124676296875
36.88,1712124676312500
40.53,1712124676328125
44.24,1712124676343750
48.06,1712124676359375
52.06,1712124676375000
56.24,1712124676390625
60.54,1712124676406250
64.78,1712124676421875
68.86,1712124676437500
72.74,1712124676453125
76.66,1712124676468750
80.39,1712124676484375
83.98,1712124676500000
87.54,1712124676515625
91.05,1712124676531250
94.29,1712124676546875
96.97,1712124676562500
98.79,1712124676578125
99.68,1712124676593750
100.04,1712124676609375
99.72,1712124676625000
98.97,1712124676640625
97.94,1712124676656250
96.45,1712124676671875
93.78,1712124676687500
88.66,1712124676703125
79.4,1712124676718750
63.81,1712124676734375
45.2,1712124676750000
24.84,1712124676765625
3.86,1712124676781250
-16.89,1712124676796875
-37.04,1712124676812500
-56.7,1712124676828125
-76.34,1712124676843750
-96.57,1712124676859375
-118.02,1712124676875000
-141.15,1712124676890625
-166.84,1712124676906250
-194.91,1712124676921875
-223.84,1712124676937500
-250.7,1712124676953125
-271.77,1712124676968750
-283.76,1712124676984375
-285.01,1712124677000000
-276.2,1712124677015625
-259.87,1712124677031250
-239.93,1712124677046875
-219.37,1712124677062500
-199.55,1712124677078125
-180.24,1712124677093750
-160.52,1712124677109375
-139.73,1712124677125000
-118.01,1712124677140625
-96.14,1712124677156250
-74.88,1712124677171875
-55.05,1712124677187500
-36.89,1712124677203125
-20.46,1712124677218750
-5.89,1712124677234375
6.38,1712124677250000
15.89,1712124677265625
22.35,1712124677281250
26.04,1712124677296875
27.75,1712124677312500
28.42,1712124677328125
29.01,1712124677343750
30.11,1712124677359375
31.9,1712124677375000
34.1,1712124677390625
36.32,1712124677406250
38.2,1712124677421875
39.59,1712124677437500
40.51,1712124677453125
41.01,1712124677468750
41.12,1712124677484375
40.83,1712124677500000
40.04,1712124677515625
38.66,1712124677531250
36.61,1712124677546875
33.84,1712124677562500
30.4,1712124677578125
26.4,1712124677593750
22.11,1712124677609375
17.89,1712124677625000
14.0,1712124677640625
10.6,1712124677656250
7.55,1712124677671875
4.65,1712124677687500
1.68,1712124677703125
-1.46,1712124677718750
-4.67,1712124677734375
-7.79,1712124677750000
-10.74,1712124677765625
-13.55,1712124677781250
-16.4,1712124677796875
-19.56,1712124677812500
-23.11,1712124677828125
-26.77,1712124677843750
-29.84,1712124677859375
-31.31,1712124677875000
-30.18,1712124677890625
-25.87,1712124677906250
-18.51,1712124677921875
-8.96,1712124677937500
1.43,1712124677953125
11.44,1712124677968750
20.39,1712124677984375
28.29,1712124678000000
35.65,1712124678015625
42.94,1712124678031250
50.15,1712124678046875
56.72,1712124678062500
61.81,1712124678078125
64.65,1712124678093750
64.99,1712124678109375
63.1,1712124678125000
59.59,1712124678140625
55.14,1712124678156250
50.24,1712124678171875
45.2,1712124678187500
40.23,1712124678203125
35.58,1712124678218750
31.57,1712124678234375
28.51,1712124678250000
26.49,1712124678265625
25.35,1712124678281250
24.69,1712124678296875
24.06,1712124678312500
23.1,1712124678328125
21.64,1712124678343750
19.69,1712124678359375
17.3,1712124678375000
14.51,1712124678390625
11.36,1712124678406250
7.85,1712124678421875
4.08,1712124678437500
0.16,1712124678453125
-3.79,1712124678468750
-7.75,1712124678484375
-11.82,1712124678500000
-16.21,1712124678515625
-21.08,1712124678531250
-26.51,1712124678546875
-32.4,1712124678562500
-38.5,1712124678578125
-44.41,1712124678593750
-49.52,1712124678609375
-53.16,1712124678625000
-54.58,1712124678640625
-53.23,1712124678656250
-48.95,1712124678671875
-42.09,1712124678687500
-33.47,1712124678703125
-24.14,1712124678718750
-15.09,1712124678734375
-6.99,1712124678750000
-0.09,1712124678765625
5.61,1712124678781250
10.27,1712124678796875
13.97,1712124678812500
16.69,1712124678828125
18.24,1712124678843750
18.4,1712124678859375
16.97,1712124678875000
13.95,1712124678890625
9.65,1712124678906250
4.71,1712124678921875
0.07,1712124678937500
-3.23,1712124678953125
-4.3,1712124678968750
-2.56,1712124678984375
2.01,1712124679000000
8.89,1712124679015625
17.16,1712124679031250
25.63,1712124679046875
33.16,1712124679062500
38.82,1712124679078125
42.12,1712124679093750
42.98,1712124679109375
41.64,1712124679125000
38.5,1712124679140625
33.96,1712124679156250
28.42,1712124679171875
22.37,1712124679187500
16.43,1712124679203125
11.37,1712124679218750
7.89,1712124679234375
6.42,1712124679250000
6.89,1712124679265625
8.72,1712124679281250
10.92,1712124679296875
12.35,1712124679312500
12.01,1712124679328125
9.22,1712124679343750
3.83,1712124679359375
-3.73,1712124679375000
-12.58,1712124679390625
-21.41,1712124679406250
-28.92,1712124679421875
-34.05,1712124679437500
-36.19,1712124679453125
-35.22,1712124679468750
-31.45,1712124679484375
-25.4,1712124679500000
-17.7,1712124679515625
-9.07,1712124679531250
-0.34,1712124679546875
7.66,1712124679562500
14.16,1712124679578125
18.69,1712124679593750
21.22,1712124679609375
22.08,1712124679625000
21.81,1712124679640625
20.93,1712124679656250
19.78,1712124679671875
18.54,1712124679687500
17.24,1712124679703125
15.87,1712124679718750
14.4,1712124679734375
12.78,1712124679750000
11.06,1712124679765625
9.41,1712124679781250
8.16,1712124679796875
7.69,1712124679812500
8.27,1712124679828125
9.86,1712124679843750
12.02,1712124679859375
14.11,1712124679875000
15.49,1712124679890625
15.85,1712124679906250
15.22,1712124679921875
13.86,1712124679937500
11.98,1712124679953125
9.65,1712124679968750
6.72,1712124679984375
3.05,1712124680000000
-1.37,1712124680015625
-6.29,1712124680031250
-11.31,1712124680046875
-15.97,1712124680062500
-19.92,1712124680078125
-23.04,1712124680093750
-25.42,1712124680109375
-27.34,1712124680125000
-29.22,1712124680140625
-31.53,1712124680156250
-34.76,1712124680171875
-39.1,1712124680187500
-44.42,1712124680203125
-50.02,1712124680218750
-54.77,1712124680234375
-57.43,1712124680250000
-57.01,1712124680265625
-53.09,1712124680281250
-45.97,1712124680296875
-36.48,1712124680312500
-25.73,1712124680328125
-14.8,1712124680343750
-4.53,1712124680359375
4.57,1712124680375000
12.25,1712124680390625
18.45,1712124680406250
23.21,1712124680421875
26.64,1712124680437500
28.82,1712124680453125
29.88,1712124680468750
29.97,1712124680484375
29.32,1712124680500000
28.23,1712124680515625
27.02,1712124680531250
25.94,1712124680546875
25.14,1712124680562500
24.7,1712124680578125
24.64,1712124680593750
24.96,1712124680609375
25.62,1712124680625000
26.48,1712124680640625
27.22,1712124680656250
27.45,1712124680671875
26.82,1712124680687500
25.21,1712124680703125
22.8,1712124680718750
19.91,1712124680734375
16.93,1712124680750000
14.11,1712124680765625
11.52,1712124680781250
9.08,1712124680796875
6.66,1712124680812500
4.14,1712124680828125
1.49,1712124680843750
-1.25,1712124680859375
-4.0,1712124680875000
-6.67,1712124680890625
-9.19,1712124680906250
-11.56,1712124680921875
-13.94,1712124680937500
-16.58,1712124680953125
-19.81,1712124680968750
-23.82,1712124680984375
-28.58,1712124681000000
-33.67,1712124681015625
-38.34,1712124681031250
-41.66,1712124681046875
-42.72,1712124681062500
-40.93,1712124681078125
-36.11,1712124681093750
-28.65,1712124681109375
-19.33,1712124681125000
-9.19,1712124681140625
0.75,1712124681156250
9.64,1712124681171875
16.96,1712124681187500
22.52,1712124681203125
26.36,1712124681218750
28.67,1712124681234375
29.67,1712124681250000
29.59,1712124681265625
28.71,1712124681281250
27.3,1712124681296875
25.71,1712124681312500
24.29,1712124681328125
23.33,1712124681343750
22.98,1712124681359375
23.21,1712124681375000
23.82,1712124681390625
24.55,1712124681406250
25.15,1712124681421875
25.48,1712124681437500
25.46,1712124681453125
25.06,1712124681468750
24.18,1712124681484375
22.71,1712124681500000
20.57,1712124681515625
17.77,1712124681531250
14.46,1712124681546875
10.93,1712124681562500
7.45,1712124681578125
4.21,1712124681593750
1.22,1712124681609375
-1.67,1712124681625000
-4.62,1712124681640625
-7.73,1712124681656250
-10.99,1712124681671875
-14.28,1712124681687500
-17.44,1712124681703125
-20.48,1712124681718750
-23.55,1712124681734375
-26.99,1712124681750000
-31.16,1712124681765625
-36.21,1712124681781250
-41.92,1712124681796875
-47.6,1712124681812500
-52.22,1712124681828125
-54.71,1712124681843750
-54.34,1712124681859375
-50.82,1712124681875000
-44.44,1712124681890625
-35.86,1712124681906250
-25.92,1712124681921875
-15.42,1712124681937500
-5.11,1712124681953125
4.41,1712124681968750
12.65,1712124681984375
19.23,1712124682000000
23.98,1712124682015625
26.91,1712124682031250
28.29,1712124682046875
28.48,1712124682062500
27.93,1712124682078125
27.04,1712124682093750
26.12,1712124682109375
25.37,1712124682125000
24.87,1712124682140625
24.66,1712124682156250
24.63,1712124682171875
24.7,1712124682187500
24.75,1712124682203125
24.75,1712124682218750
24.61,1712124682234375
24.32,1712124682250000
23.81,1712124682265625
23.0,1712124682281250
21.81,1712124682296875
20.22,1712124682312500
18.23,1712124682328125
15.9,1712124682343750
13.33,1712124682359375
10.59,1712124682375000
7.74,1712124682390625
4.79,1712124682406250
1.69,1712124682421875
-1.61,1712124682437500
-5.2,1712124682453125
-9.03,1712124682468750
-13.03,1712124682484375
-16.98,1712124682500000
-20.66,1712124682515625
-23.97,1712124682531250
-27.05,1712124682546875
-30.29,1712124682562500
-34.15,1712124682578125
-38.89,1712124682593750
-44.31,1712124682609375
-49.62,1712124682625000
-53.62,1712124682640625
-55.02,1712124682656250
-52.99,1712124682671875
-47.33,1712124682687500
-38.57,1712124682703125
-27.8,1712124682718750
-16.29,1712124682734375
-5.12,1712124682750000
4.86,1712124682765625
13.17,1712124682781250
19.56,1712124682796875
23.99,1712124682812500
26.57,1712124682828125
27.58,1712124682843750
27.41,1712124682859375
26.53,1712124682875000
25.39,1712124682890625
24.31,1712124682906250
23.45,1712124682921875
22.86,1712124682937500
22.49,1712124682953125
22.31,1712124682968750
22.31,1712124682984375
22.48,1712124683000000
22.77,1712124683015625
23.09,1712124683031250
23.24,1712124683046875
23.06,1712124683062500
22.36,1712124683078125
21.06,1712124683093750
19.22,1712124683109375
16.95,1712124683125000
14.43,1712124683140625
11.74,1712124683156250
8.89,1712124683171875
5.76,1712124683187500
2.29,1712124683203125
-1.51,1712124683218750
-5.46,1712124683234375
-9.3,1712124683250000
-12.79,1712124683265625
-15.82,1712124683281250
-18.41,1712124683296875
-20.73,1712124683312500
-23.0,1712124683328125
-25.49,1712124683343750
-28.54,1712124683359375
-32.4,1712124683375000
-37.13,1712124683390625
-42.46,1712124683406250
-47.67,1712124683421875
-51.69,1712124683437500
-53.4,1712124683453125
-52.04,1712124683468750
-47.42,1712124683484375
-40.05,1712124683500000
-30.87,1712124683515625
-20.97,1712124683531250
-11.3,1712124683546875
-2.59,1712124683562500
4.74,1712124683578125
10.47,1712124683593750
14.51,1712124683609375
16.87,1712124683625000
17.67,1712124683640625
17.11,1712124683656250
15.48,1712124683671875
13.22,1712124683687500
10.82,1712124683703125
8.88,1712124683718750
7.95,1712124683734375
8.49,1712124683750000
10.76,1712124683765625
14.72,1712124683781250
20.1,1712124683796875
26.39,1712124683812500
32.98,1712124683828125
39.28,1712124683843750
44.76,1712124683859375
49.08,1712124683875000
52.03,1712124683890625
53.57,1712124683906250
53.73,1712124683921875
52.54,1712124683937500
50.04,1712124683953125
46.29,1712124683968750
41.47,1712124683984375
36.02,1712124684000000
30.58,1712124684015625
25.94,1712124684031250
22.76,1712124684046875
21.39,1712124684062500
21.66,1712124684078125
22.93,1712124684093750
24.25,1712124684109375
24.64,1712124684125000
23.28,1712124684140625
19.7,1712124684156250
13.75,1712124684171875
5.68,1712124684187500
-3.97,1712124684203125
-14.3,1712124684218750
-24.22,1712124684234375
-32.56,1712124684250000
-38.3,1712124684265625
-40.82,1712124684281250
-39.98,1712124684296875
-36.11,1712124684312500
-29.9,1712124684328125
-22.21,1712124684343750
-13.9,1712124684359375
-5.75,1712124684375000
1.55,1712124684390625
7.46,1712124684406250
11.63,1712124684421875
13.94,1712124684437500
14.59,1712124684453125
14.0,1712124684468750
12.73,1712124684484375
11.3,1712124684500000
10.09,1712124684515625
9.24,1712124684531250
8.76,1712124684546875
8.55,1712124684562500
8.48,1712124684578125
8.49,1712124684593750
8.51,1712124684609375
8.48,1712124684625000
8.38,1712124684640625
8.19,1712124684656250
7.89,1712124684671875
7.43,1712124684687500
6.72,1712124684703125
5.64,1712124684718750
4.16,1712124684734375
2.3,1712124684750000
0.19,1712124684765625
-2.06,1712124684781250
-4.4,1712124684796875
-6.86,1712124684812500
-9.54,1712124684828125
-12.47,1712124684843750
-15.58,1712124684859375
-18.7,1712124684875000
-21.68,1712124684890625
-24.55,1712124684906250
-27.56,1712124684921875
-31.07,1712124684937500
-35.35,1712124684953125
-40.27,1712124684968750
-45.35,1712124684984375
-49.72,1712124685000000
-52.43,1712124685015625
-52.76,1712124685031250
-50.36,1712124685046875
-45.41,1712124685062500
-38.44,1712124685078125
-30.25,1712124685093750
-21.65,1712124685109375
-13.35,1712124685125000
-5.87,1712124685140625
0.46,1712124685156250
5.49,1712124685171875
9.2,1712124685187500
11.66,1712124685203125
12.98,1712124685218750
13.31,1712124685234375
12.79,1712124685250000
11.64,1712124685265625
10.2,1712124685281250
8.9,1712124685296875
8.26,1712124685312500
8.7,1712124685328125
10.46,1712124685343750
13.42,1712124685359375
17.17,1712124685375000
21.09,1712124685390625
24.48,1712124685406250
26.8,1712124685421875
27.7,1712124685437500
27.13,1712124685453125
25.28,1712124685468750
22.46,1712124685484375
19.08,1712124685500000
15.5,1712124685515625
11.96,1712124685531250
8.5,1712124685546875
5.03,1712124685562500
1.39,1712124685578125
-2.51,1712124685593750
-6.64,1712124685609375
-10.77,1712124685625000
-14.62,1712124685640625
-17.97,1712124685656250
-20.81,1712124685671875
-23.34,1712124685687500
-25.93,1712124685703125
-29.01,1712124685718750
-32.81,1712124685734375
-37.23,1712124685750000
-41.82,1712124685765625
-45.76,1712124685781250
-48.2,1712124685796875
-48.42,1712124685812500
-46.05,1712124685828125
-41.13,1712124685843750
-34.09,1712124685859375
-25.6,1712124685875000
-16.45,1712124685890625
-7.4,1712124685906250
0.87,1712124685921875
7.84,1712124685937500
13.19,1712124685953125
16.76,1712124685968750
18.54,1712124685984375
18.66,1712124686000000
17.31,1712124686015625
14.82,1712124686031250
11.59,1712124686046875
8.16,1712124686062500
5.03,1712124686078125
2.56,1712124686093750
0.82,1712124686109375
-0.39,1712124686125000
-1.49,1712124686140625
-2.78,1712124686156250
-4.35,1712124686171875
-6.06,1712124686187500
-7.59,1712124686203125
-8.66,1712124686218750
-9.16,1712124686234375
-9.12,1712124686250000
-8.7,1712124686265625
-8.03,1712124686281250
-7.1,1712124686296875
-5.83,1712124686312500
-4.12,1712124686328125
-1.95,1712124686343750
0.6,1712124686359375
3.35,1712124686375000
6.05,1712124686390625
8.46,1712124686406250
10.3,1712124686421875
11.22,1712124686437500
10.86,1712124686453125
8.89,1712124686468750
5.22,1712124686484375
0.09,1712124686500000
-5.84,1712124686515625
-11.62,1712124686531250
-16.19,1712124686546875
-18.74,1712124686562500
-18.91,1712124686578125
-16.83,1712124686593750
-13.07,1712124686609375
-8.29,1712124686625000
-3.12,1712124686640625
2.05,1712124686656250
6.99,1712124686671875
11.63,1712124686687500
15.85,1712124686703125
19.52,1712124686718750
22.45,1712124686734375
24.48,1712124686750000
25.54,1712124686765625
25.67,1712124686781250
25.03,1712124686796875
23.81,1712124686812500
22.31,1712124686828125
20.77,1712124686843750
19.46,1712124686859375
18.55,1712124686875000
18.09,1712124686890625
18.01,1712124686906250
18.11,1712124686921875
18.07,1712124686937500
17.66,1712124686953125
16.68,1712124686968750
15.09,1712124686984375
12.89,1712124687000000
10.17,1712124687015625
7.01,1712124687031250
3.48,1712124687046875
-0.33,1712124687062500
-4.25,1712124687078125
-8.1,1712124687093750
-11.71,1712124687109375
-15.0,1712124687125000
-17.98,1712124687140625
-20.78,1712124687156250
-23.6,1712124687171875
-26.59,1712124687187500
-29.93,1712124687203125
-33.73,1712124687218750
-37.99,1712124687234375
-42.5,1712124687250000
-46.8,1712124687265625
-50.12,1712124687281250
-51.56,1712124687296875
-50.37,1712124687312500
-46.2,1712124687328125
-39.27,1712124687343750
-30.3,1712124687359375
-20.28,1712124687375000
-10.26,1712124687390625
-1.07,1712124687406250
6.72,1712124687421875
12.84,1712124687437500
17.28,1712124687453125
20.27,1712124687468750
22.14,1712124687484375
23.26,1712124687500000
23.9,1712124687515625
24.16,1712124687531250
24.03,1712124687546875
23.49,1712124687562500
22.66,1712124687578125
21.79,1712124687593750
21.19,1712124687609375
21.05,1712124687625000
21.31,1712124687640625
21.69,1712124687656250
21.86,1712124687671875
21.59,1712124687687500
20.84,1712124687703125
19.73,1712124687718750
18.42,1712124687734375
16.9,1712124687750000
14.99,1712124687765625
12.43,1712124687781250
9.05,1712124687796875
4.85,1712124687812500
0.09,1712124687828125
-4.81,1712124687843750
-9.44,1712124687859375
-13.51,1712124687875000
-16.91,1712124687890625
-19.74,1712124687906250
-22.17,1712124687921875
-24.47,1712124687937500
-26.88,1712124687953125
-29.72,1712124687968750
-33.21,1712124687984375
-37.44,1712124688000000
-42.23,1712124688015625
-47.04,1712124688031250
-51.09,1712124688046875
-53.45,1712124688062500
-53.43,1712124688078125
-50.63,1712124688093750
-45.22,1712124688109375
-37.75,1712124688125000
-29.07,1712124688140625
-20.1,1712124688156250
-11.66,1712124688171875
-4.38,1712124688187500
1.35,1712124688203125
5.4,1712124688218750
7.77,1712124688234375
8.63,1712124688250000
8.18,1712124688265625
6.7,1712124688281250
4.43,1712124688296875
1.66,1712124688312500
-1.38,1712124688328125
-4.51,1712124688343750
-7.62,1712124688359375
-10.64,1712124688375000
-13.57,1712124688390625
-16.38,1712124688406250
-19.1,1712124688421875
-21.79,1712124688437500
-24.62,1712124688453125
-27.85,1712124688468750
-31.79,1712124688484375
-36.67,1712124688500000
-42.57,1712124688515625
-49.42,1712124688531250
-56.95,1712124688546875
-64.74,1712124688562500
-72.43,1712124688578125
-79.76,1712124688593750
-86.8,1712124688609375
-93.83,1712124688625000
-101.23,1712124688640625
-109.01,1712124688656250
-116.63,1712124688671875
-123.05,1712124688687500
-127.06,1712124688703125
-127.84,1712124688718750
-125.31,1712124688734375
-120.12,1712124688750000
-113.17,1712124688765625
-105.17,1712124688781250
-96.33,1712124688796875
-86.5,1712124688812500
-75.47,1712124688828125
-63.13,1712124688843750
-49.51,1712124688859375
-34.55,1712124688875000
-18.13,1712124688890625
-0.37,1712124688906250
18.16,1712124688921875
36.35,1712124688937500
52.76,1712124688953125
66.11,1712124688968750
75.86,1712124688984375
82.22,1712124689000000
86.1,1712124689015625
88.64,1712124689031250
91.02,1712124689046875
94.33,1712124689062500
99.57,1712124689078125
107.58,1712124689093750
118.98,1712124689109375
133.98,1712124689125000
152.26,1712124689140625
172.96,1712124689156250
194.66,1712124689171875
215.47,1712124689187500
233.22,1712124689203125
245.95,1712124689218750
252.39,1712124689234375
252.34,1712124689250000
246.49,1712124689265625
235.94,1712124689281250
221.58,1712124689296875
203.78,1712124689312500
182.55,1712124689328125
157.99,1712124689343750
130.78,1712124689359375
102.31,1712124689375000
74.38,1712124689390625
48.67,1712124689406250
26.28,1712124689421875
7.94,1712124689437500
-5.86,1712124689453125
-14.63,1712124689468750
-18.22,1712124689484375
-17.24,1712124689500000
-13.31,1712124689515625
-8.7,1712124689531250
-5.46,1712124689546875
-4.35,1712124689562500
-4.51,1712124689578125
-3.94,1712124689593750
-0.69,1712124689609375
6.01,1712124689625000
15.37,1712124689640625
25.54,1712124689656250
34.72,1712124689671875
41.93,1712124689687500
47.16,1712124689703125
50.69,1712124689718750
52.47,1712124689734375
51.98,1712124689750000
48.74,1712124689765625
43.22,1712124689781250
37.05,1712124689796875
32.45,1712124689812500
30.93,1712124689828125
32.25,1712124689843750
34.24,1712124689859375
33.64,1712124689875000
27.65,1712124689890625
15.16,1712124689906250
-2.85,1712124689921875
-23.83,1712124689937500
-44.62,1712124689953125
-62.44,1712124689968750
-75.46,1712124689984375
-82.87,1712124690000000
-84.95,1712124690015625
-82.96,1712124690031250
-78.98,1712124690046875
-75.46,1712124690062500
-74.3,1712124690078125
-76.06,1712124690093750
-79.67,1712124690109375
-82.8,1712124690125000
-82.88,1712124690140625
-77.92,1712124690156250
-66.81,1712124690171875
-48.99,1712124690187500
-24.09,1712124690203125
8.01,1712124690218750
46.63,1712124690234375
89.43,1712124690250000
132.15,1712124690265625
169.33,1712124690281250
195.81,1712124690296875
208.41,1712124690312500
206.91,1712124690328125
193.84,1712124690343750
173.22,1712124690359375
149.05,1712124690375000
124.21,1712124690390625
100.11,1712124690406250
77.19,1712124690421875
55.5,1712124690437500
35.2,1712124690453125
16.69,1712124690468750
0.39,1712124690484375
-13.58,1712124690500000
-25.52,1712124690515625
-35.75,1712124690531250
-43.96,1712124690546875
-48.9,1712124690562500
-48.86,1712124690578125
-42.89,1712124690593750
-32.13,1712124690609375
-20.09,1712124690625000
-11.66,1712124690640625
-10.92,1712124690656250
-19.16,1712124690671875
-34.26,1712124690687500
-51.79,1712124690703125
-67.17,1712124690718750
-77.71,1712124690734375
-83.29,1712124690750000
-85.67,1712124690765625
-86.99,1712124690781250
-88.69,1712124690796875
-91.21,1712124690812500
-94.57,1712124690828125
-98.9,1712124690843750
-104.62,1712124690859375
-111.97,1712124690875000
-120.52,1712124690890625
-129.12,1712124690906250
-136.33,1712124690921875
-140.95,1712124690937500
-142.49,1712124690953125
-141.4,1712124690968750
-138.69,1712124690984375
-135.6,1712124691000000
-133.14,1712124691015625
-131.78,1712124691031250
-131.36,1712124691046875
-131.0,1712124691062500
-129.41,1712124691078125
-125.3,1712124691093750
-117.79,1712124691109375
-106.74,1712124691125000
-92.76,1712124691140625
-77.03,1712124691156250
-60.86,1712124691171875
-45.32,1712124691187500
-31.04,1712124691203125
-18.28,1712124691218750
-7.09,1712124691234375
2.41,1712124691250000
10.05,1712124691265625
15.59,1712124691281250
18.97,1712124691296875
20.44,1712124691312500
20.56,1712124691328125
20.17,1712124691343750
20.09,1712124691359375
20.93,1712124691375000
22.95,1712124691390625
26.03,1712124691406250
29.87,1712124691421875
34.05,1712124691437500
38.27,1712124691453125
42.25,1712124691468750
45.7,1712124691484375
48.29,1712124691500000
49.61,1712124691515625
49.35,1712124691531250
47.35,1712124691546875
43.74,1712124691562500
38.86,1712124691578125
33.14,1712124691593750
26.92,1712124691609375
20.4,1712124691625000
13.65,1712124691640625
6.76,1712124691656250
-0.15,1712124691671875
-6.82,1712124691687500
-12.91,1712124691703125
-18.17,1712124691718750
-22.48,1712124691734375
-25.98,1712124691750000
-29.07,1712124691765625
-32.31,1712124691781250
-36.19,1712124691796875
-40.94,1712124691812500
-46.25,1712124691828125
-51.37,1712124691843750
-55.18,1712124691859375
-56.62,1712124691875000
-55.07,1712124691890625
-50.54,1712124691906250
-43.66,1712124691921875
-35.44,1712124691937500
-26.94,1712124691953125
-18.95,1712124691968750
-11.87,1712124691984375
-5.76,1712124692000000
-0.55,1712124692015625
3.86,1712124692031250
7.45,1712124692046875
10.12,1712124692062500
11.83,1712124692078125
12.68,1712124692093750
13.03,1712124692109375
13.32,1712124692125000
13.96,1712124692140625
15.15,1712124692156250
16.73,1712124692171875
18.28,1712124692187500
19.39,1712124692203125
19.82,1712124692218750
19.71,1712124692234375
19.52,1712124692250000
19.79,1712124692265625
20.88,1712124692281250
22.75,1712124692296875
24.96,1712124692312500
26.85,1712124692328125
27.77,1712124692343750
27.3,1712124692359375
25.39,1712124692375000
22.31,1712124692390625
18.5,1712124692406250
14.45,1712124692421875
10.52,1712124692437500
6.87,1712124692453125
3.44,1712124692468750
-0.09,1712124692484375
-4.18,1712124692500000
-9.35,1712124692515625
-16.0,1712124692531250
-24.12,1712124692546875
-33.24,1712124692562500
-42.32,1712124692578125
-50.04,1712124692593750
-55.05,1712124692609375
-56.36,1712124692625000
-53.58,1712124692640625
-47.0,1712124692656250
-37.52,1712124692671875
-26.36,1712124692687500
-14.79,1712124692703125
-3.84,1712124692718750
5.76,1712124692734375
13.68,1712124692750000
19.81,1712124692765625
24.25,1712124692781250
27.16,1712124692796875
28.74,1712124692812500
29.24,1712124692828125
28.92,1712124692843750
28.07,1712124692859375
26.96,1712124692875000
25.85,1712124692890625
24.94,1712124692906250
24.38,1712124692921875
24.24,1712124692937500
24.51,1712124692953125
25.08,1712124692968750
25.83,1712124692984375
26.63,1712124693000000
27.38,1712124693015625
28.01,1712124693031250
28.39,1712124693046875
28.35,1712124693062500
27.64,1712124693078125
26.09,1712124693093750
23.69,1712124693109375
20.61,1712124693125000
17.14,1712124693140625
13.57,1712124693156250
10.08,1712124693171875
6.73,1712124693187500
3.52,1712124693203125
0.37,1712124693218750
-2.69,1712124693234375
-5.7,1712124693250000
-8.77,1712124693265625
-12.09,1712124693281250
-15.97,1712124693296875
-20.66,1712124693312500
-26.1,1712124693328125
-31.83,1712124693343750
-36.91,1712124693359375
-40.16,1712124693375000
-40.48,1712124693390625
-37.24,1712124693406250
-30.53,1712124693421875
-21.15,1712124693437500
-10.32,1712124693453125
0.65,1712124693468750
10.68,1712124693484375
19.16,1712124693500000
25.82,1712124693515625
30.65,1712124693531250
33.72,1712124693546875
35.17,1712124693562500
35.11,1712124693578125
33.69,1712124693593750
31.17,1712124693609375
27.93,1712124693625000
24.39,1712124693640625
21.0,1712124693656250
18.16,1712124693671875
16.07,1712124693687500
14.8,1712124693703125
14.22,1712124693718750
14.13,1712124693734375
14.33,1712124693750000
14.67,1712124693765625
15.04,1712124693781250
15.32,1712124693796875
15.39,1712124693812500
15.11,1712124693828125
14.34,1712124693843750
12.98,1712124693859375
11.0,1712124693875000
8.47,1712124693890625
5.55,1712124693906250
2.49,1712124693921875
-0.43,1712124693937500
-2.99,1712124693953125
-5.15,1712124693968750
-7.08,1712124693984375
-9.06,1712124694000000
-11.42,1712124694015625
-14.41,1712124694031250
-18.13,1712124694046875
-22.54,1712124694062500
-27.4,1712124694078125
-32.37,1712124694093750
-36.91,1712124694109375
-40.31,1712124694125000
-41.81,1712124694140625
-40.79,1712124694156250
-36.97,1712124694171875
-30.55,1712124694187500
-22.21,1712124694203125
-12.98,1712124694218750
-3.88,1712124694234375
4.24,1712124694250000
10.8,1712124694265625
15.51,1712124694281250
18.25,1712124694296875
18.95,1712124694312500
17.66,1712124694328125
14.55,1712124694343750
10.06,1712124694359375
4.95,1712124694375000
0.2,1712124694390625
-3.14,1712124694406250
-4.36,1712124694421875
-3.21,1712124694437500
-0.0,1712124694453125
4.57,1712124694468750
9.75,1712124694484375
14.97,1712124694500000
19.98,1712124694515625
24.66,1712124694531250
28.9,1712124694546875
32.39,1712124694562500
34.72,1712124694578125
35.49,1712124694593750
34.54,1712124694609375
32.01,1712124694625000
28.22,1712124694640625
23.57,1712124694656250
18.4,1712124694671875
13.0,1712124694687500
7.67,1712124694703125
2.66,1712124694718750
-1.8,1712124694734375
-5.59,1712124694750000
-8.74,1712124694765625
-11.36,1712124694781250
-13.65,1712124694796875
-15.87,1712124694812500
-18.4,1712124694828125
-21.69,1712124694843750
-26.03,1712124694859375
-31.25,1712124694875000
-36.55,1712124694890625
-40.6,1712124694906250
-41.97,1712124694921875
-39.68,1712124694937500
-33.56,1712124694953125
-24.36,1712124694968750
-13.39,1712124694984375
-2.04,1712124695000000
8.61,1712124695015625
17.92,1712124695031250
25.58,1712124695046875
31.47,1712124695062500
35.51,1712124695078125
37.66,1712124695093750
38.03,1712124695109375
36.86,1712124695125000
34.55,1712124695140625
31.62,1712124695156250
28.63,1712124695171875
26.06,1712124695187500
24.31,1712124695203125
23.54,1712124695218750
23.66,1712124695234375
24.39,1712124695250000
25.35,1712124695265625
26.22,1712124695281250
26.81,1712124695296875
27.13,1712124695312500
27.24,1712124695328125
27.17,1712124695343750
26.87,1712124695359375
26.13,1712124695375000
24.78,1712124695390625
22.67,1712124695406250
19.83,1712124695421875
16.43,1712124695437500
12.73,1712124695453125
9.03,1712124695468750
5.52,1712124695484375
2.31,1712124695500000
-0.67,1712124695515625
-3.56,1712124695531250
-6.59,1712124695546875
-10.02,1712124695562500
-14.01,1712124695578125
-18.66,1712124695593750
-23.93,1712124695609375
-29.64,1712124695625000
-35.47,1712124695640625
-40.85,1712124695656250
-44.99,1712124695671875
-47.06,1712124695687500
-46.36,1712124695703125
-42.62,1712124695718750
-36.14,1712124695734375
-27.71,1712124695750000
-18.41,1712124695765625
-9.24,1712124695781250
-0.89,1712124695796875
6.31,1712124695812500
12.23,1712124695828125
16.83,1712124695843750
20.0,1712124695859375
21.57,1712124695875000
21.5,1712124695890625
19.98,1712124695906250
17.52,1712124695921875
14.76,1712124695937500
12.34,1712124695953125
10.67,1712124695968750
9.9,1712124695984375
9.85,1712124696000000
10.24,1712124696015625
10.84,1712124696031250
11.51,1712124696046875
12.25,1712124696062500
13.08,1712124696078125
13.9,1712124696093750
14.52,1712124696109375
14.69,1712124696125000
14.26,1712124696140625
13.26,1712124696156250
11.92,1712124696171875
10.5,1712124696187500
9.19,1712124696203125
7.95,1712124696218750
6.54,1712124696234375
4.64,1712124696250000
2.03,1712124696265625
-1.28,1712124696281250
-5.05,1712124696296875
-9.0,1712124696312500
-12.92,1712124696328125
-16.79,1712124696343750
-20.76,1712124696359375
-25.04,1712124696375000
-29.74,1712124696390625
-34.76,1712124696406250
-39.69,1712124696421875
-43.85,1712124696437500
-46.39,1712124696453125
-46.52,1712124696468750
-43.75,1712124696484375
-38.1,1712124696500000
-30.16,1712124696515625
-20.95,1712124696531250
-11.58,1712124696546875
-2.93,1712124696562500
4.5,1712124696578125
10.6,1712124696593750
15.37,1712124696609375
18.77,1712124696625000
20.68,1712124696640625
20.97,1712124696656250
19.74,1712124696671875
17.37,1712124696687500
14.49,1712124696703125
11.8,1712124696718750
9.84,1712124696734375
8.85,1712124696750000
8.82,1712124696765625
9.47,1712124696781250
10.45,1712124696796875
11.41,1712124696812500
12.1,1712124696828125
12.4,1712124696843750
12.34,1712124696859375
11.97,1712124696875000
11.33,1712124696890625
10.38,1712124696906250
9.02,1712124696921875
7.16,1712124696937500
4.81,1712124696953125
2.07,1712124696968750
-0.9,1712124696984375
-3.94,1712124697000000
-6.91,1712124697015625
-9.75,1712124697031250
-12.42,1712124697046875
-14.96,1712124697062500
-17.43,1712124697078125
-20.0,1712124697093750
-22.85,1712124697109375
-26.18,1712124697125000
-30.06,1712124697140625
-34.42,1712124697156250
-38.92,1712124697171875
-42.96,1712124697187500
-45.78,1712124697203125
-46.59,1712124697218750
-44.79,1712124697234375
-40.18,1712124697250000
-33.07,1712124697265625
-24.18,1712124697281250
-14.51,1712124697296875
-5.0,1712124697312500
3.57,1712124697328125
10.68,1712124697343750
16.03,1712124697359375
19.48,1712124697375000
21.03,1712124697390625
20.85,1712124697406250
19.33,1712124697421875
17.02,1712124697437500
14.5,1712124697453125
12.26,1712124697468750
10.63,1712124697484375
9.72,1712124697500000
9.48,1712124697515625
9.74,1712124697531250
10.28,1712124697546875
10.87,1712124697562500
11.36,1712124697578125
11.67,1712124697593750
11.81,1712124697609375
11.8,1712124697625000
11.64,1712124697640625
11.18,1712124697656250
10.21,1712124697671875
8.51,1712124697687500
6.03,1712124697703125
2.91,1712124697718750
-0.55,1712124697734375
-3.98,1712124697750000
-7.14,1712124697765625
-9.94,1712124697781250
-12.49,1712124697796875
-14.99,1712124697812500
-17.7,1712124697828125
-20.86,1712124697843750
-24.68,1712124697859375
-29.19,1712124697875000
-34.16,1712124697890625
-39.03,1712124697906250
-42.95,1712124697921875
-44.97,1712124697937500
-44.32,1712124697953125
-40.66,1712124697968750
-34.15,1712124697984375
-25.42,1712124698000000
-15.37,1712124698015625
-4.96,1712124698031250
4.93,1712124698046875
13.58,1712124698062500
20.48,1712124698078125
25.39,1712124698093750
28.28,1712124698109375
29.39,1712124698125000
29.11,1712124698140625
27.9,1712124698156250
26.2,1712124698171875
24.33,1712124698187500
22.59,1712124698203125
21.11,1712124698218750
20.0,1712124698234375
19.21,1712124698250000
18.62,1712124698265625
18.07,1712124698281250
17.45,1712124698296875
16.73,1712124698312500
15.96,1712124698328125
15.14,1712124698343750
14.15,1712124698359375
12.73,1712124698375000
10.57,1712124698390625
7.52,1712124698406250
3.65,1712124698421875
-0.66,1712124698437500
-4.97,1712124698453125
-8.91,1712124698468750
-12.38,1712124698484375
-15.58,1712124698500000
-18.83,1712124698515625
-22.54,1712124698531250
-26.98,1712124698546875
-32.31,1712124698562500
-38.47,1712124698578125
-45.12,1712124698593750
-51.59,1712124698609375
-56.82,1712124698625000
-59.64,1712124698640625
-58.97,1712124698656250
-54.3,1712124698671875
-45.85,1712124698687500
-34.58,1712124698703125
-21.89,1712124698718750
-9.18,1712124698734375
2.49,1712124698750000
12.51,1712124698765625
20.6,1712124698781250
26.68,1712124698796875
30.7,1712124698812500
32.61,1712124698828125
32.47,1712124698843750
30.62,1712124698859375
27.66,1712124698875000
24.36,1712124698890625
21.41,1712124698906250
19.22,1712124698921875
17.78,1712124698937500
16.73,1712124698953125
15.58,1712124698968750
13.98,1712124698984375
11.79,1712124699000000
9.2,1712124699015625
6.48,1712124699031250
3.92,1712124699046875
1.67,1712124699062500
-0.32,1712124699078125
-2.15,1712124699093750
-4.01,1712124699109375
-6.0,1712124699125000
-8.16,1712124699140625
-10.43,1712124699156250
-12.72,1712124699171875
-14.89,1712124699187500
-16.82,1712124699203125
-18.46,1712124699218750
-19.89,1712124699234375
-21.34,1712124699250000
-23.2,1712124699265625
-25.96,1712124699281250
-30.04,1712124699296875
-35.57,1712124699312500
-42.21,1712124699328125
-49.07,1712124699343750
-54.91,1712124699359375
-58.37,1712124699375000
-58.39,1712124699390625
-54.54,1712124699406250
-47.11,1712124699421875
-36.98,1712124699437500
-25.38,1712124699453125
-13.53,1712124699468750
-2.46,1712124699484375
7.12,1712124699500000
14.84,1712124699515625
20.65,1712124699531250
24.67,1712124699546875
27.21,1712124699562500
28.67,1712124699578125
29.42,1712124699593750
29.88,1712124699609375
30.32,1712124699625000
30.99,1712124699640625
32.0,1712124699656250
33.38,1712124699671875
35.04,1712124699687500
36.74,1712124699703125
38.15,1712124699718750
38.88,1712124699734375
38.6,1712124699750000
37.15,1712124699765625
34.6,1712124699781250
31.22,1712124699796875
27.39,1712124699812500
23.42,1712124699828125
19.47,1712124699843750
15.58,1712124699859375
11.69,1712124699875000
7.79,1712124699890625
3.93,1712124699906250
0.29,1712124699921875
-2.97,1712124699937500
-5.77,1712124699953125
-8.18,1712124699968750
-10.44,1712124699984375
-12.93,1712124700000000
-16.06,1712124700015625
-20.13,1712124700031250
-25.28,1712124700046875
-31.27,1712124700062500
-37.49,1712124700078125
-42.97,1712124700093750
-46.64,1712124700109375
-47.51,1712124700125000
-45.0,1712124700140625
-39.02,1712124700156250
-30.02,1712124700171875
-18.83,1712124700187500
-6.5,1712124700203125
5.88,1712124700218750
17.35,1712124700234375
27.17,1712124700250000
34.93,1712124700265625
40.52,1712124700281250
44.03,1712124700296875
45.7,1712124700312500
45.82,1712124700328125
44.77,1712124700343750
43.01,1712124700359375
41.08,1712124700375000
39.48,1712124700390625
38.52,1712124700406250
38.2,1712124700421875
38.18,1712124700437500
38.06,1712124700453125
37.48,1712124700468750
36.44,1712124700484375
35.17,1712124700500000
33.97,1712124700515625
32.99,1712124700531250
32.06,1712124700546875
30.82,1712124700562500
28.78,1712124700578125
25.71,1712124700593750
21.62,1712124700609375
16.79,1712124700625000
11.58,1712124700640625
6.41,1712124700656250
1.53,1712124700671875
-2.9,1712124700687500
-6.95,1712124700703125
-10.81,1712124700718750
-14.78,1712124700734375
-19.21,1712124700750000
-24.3,1712124700765625
-30.01,1712124700781250
-35.9,1712124700796875
-41.16,1712124700812500
-44.8,1712124700828125
-45.87,1712124700843750
-43.76,1712124700859375
-38.33,1712124700875000
-30.0,1712124700890625
-19.59,1712124700906250
-8.16,1712124700921875
3.3,1712124700937500
13.93,1712124700953125
23.15,1712124700968750
30.58,1712124700984375
36.03,1712124701000000
39.46,1712124701015625
40.93,1712124701031250
40.69,1712124701046875
39.21,1712124701062500
37.05,1712124701078125
34.8,1712124701093750
32.92,1712124701109375
31.62,1712124701125000
30.88,1712124701140625
30.53,1712124701156250
30.33,1712124701171875
30.07,1712124701187500
29.64,1712124701203125
28.99,1712124701218750
28.09,1712124701234375
26.96,1712124701250000
25.53,1712124701265625
23.71,1712124701281250
21.37,1712124701296875
18.39,1712124701312500
14.77,1712124701328125
10.65,1712124701343750
6.29,1712124701359375
2.03,1712124701375000
-1.89,1712124701390625
-5.46,1712124701406250
-8.93,1712124701421875
-12.65,1712124701437500
-17.0,1712124701453125
-22.18,1712124701468750
-28.11,1712124701484375
-34.44,1712124701500000
-40.49,1712124701515625
-45.4,1712124701531250
-48.28,1712124701546875
-48.39,1712124701562500
-45.28,1712124701578125
-39.0,1712124701593750
-30.03,1712124701609375
-19.2,1712124701625000
-7.51,1712124701640625
4.01,1712124701656250
14.47,1712124701671875
23.18,1712124701687500
29.69,1712124701703125
33.85,1712124701718750
35.78,1712124701734375
35.86,1712124701750000
34.59,1712124701765625
32.55,1712124701781250
30.19,1712124701796875
27.88,1712124701812500
25.86,1712124701828125
24.25,1712124701843750
23.07,1712124701859375
22.25,1712124701875000
21.72,1712124701890625
21.41,1712124701906250
21.22,1712124701921875
21.08,1712124701937500
20.87,1712124701953125
20.43,1712124701968750
19.49,1712124701984375
17.77,1712124702000000
15.03,1712124702015625
11.22,1712124702031250
6.5,1712124702046875
1.29,1712124702062500
-3.92,1712124702078125
-8.64,1712124702093750
-12.6,1712124702109375
-15.82,1712124702125000
-18.6,1712124702140625
-21.5,1712124702156250
-25.09,1712124702171875
-29.77,1712124702187500
-35.57,1712124702203125
-42.15,1712124702218750
-48.72,1712124702234375
-54.24,1712124702250000
-57.66,1712124702265625
-58.17,1712124702281250
-55.41,1712124702296875
-49.6,1712124702312500
-41.44,1712124702328125
-31.98,1712124702343750
-22.31,1712124702359375
-13.34,1712124702375000
-5.72,1712124702390625
0.11,1712124702406250
3.89,1712124702421875
5.4,1712124702437500
4.63,1712124702453125
1.81,1712124702468750
-2.54,1712124702484375
-7.65,1712124702500000
-12.74,1712124702515625
-17.26,1712124702531250
-21.14,1712124702546875
-24.71,1712124702562500
-28.51,1712124702578125
-32.92,1712124702593750
-38.03,1712124702609375
-43.58,1712124702625000
-49.27,1712124702640625
-55.0,1712124702656250
-60.99,1712124702671875
-67.66,1712124702687500
-75.29,1712124702703125
-83.63,1712124702718750
-91.74,1712124702734375
-98.1,1712124702750000
-101.11,1712124702765625
-99.64,1712124702781250
-93.61,1712124702796875
-84.17,1712124702812500
-73.51,1712124702828125
-64.29,1712124702843750
-58.85,1712124702859375
-58.65,1712124702875000
-64.03,1712124702890625
-74.45,1712124702906250
-88.7,1712124702921875
-104.95,1712124702937500
-120.9,1712124702953125
-133.89,1712124702968750
-141.74,1712124702984375
-143.69,1712124703000000
-141.05,1712124703015625
-136.95,1712124703031250
-134.98,1712124703046875
-137.16,1712124703062500
-142.55,1712124703078125
-147.21,1712124703093750
-145.92,1712124703109375
-134.63,1712124703125000
-112.31,1712124703140625
-81.02,1712124703156250
-44.37,1712124703171875
-5.41,1712124703187500
34.71,1712124703203125
76.46,1712124703218750
120.57,1712124703234375
166.53,1712124703250000
211.99,1712124703265625
253.58,1712124703281250
288.39,1712124703296875
315.18,1712124703312500
334.61,1712124703328125
348.27,1712124703343750
357.28,1712124703359375
361.56,1712124703375000
360.15,1712124703390625
352.49,1712124703406250
339.6,1712124703421875
324.23,1712124703437500
309.82,1712124703453125
298.91,1712124703468750
291.87,1712124703484375
286.9,1712124703500000
281.26,1712124703515625
272.99,1712124703531250
261.87,1712124703546875
249.01,1712124703562500
235.4,1712124703578125
220.45,1712124703593750
201.94,1712124703609375
177.29,1712124703625000
145.68,1712124703640625
109.4,1712124703656250
73.15,1712124703671875
41.86,1712124703687500
18.04,1712124703703125
0.49,1712124703718750
-14.62,1712124703734375
-30.96,1712124703750000
-49.4,1712124703765625
-67.24,1712124703781250
-79.87,1712124703796875
-83.73,1712124703812500
-78.46,1712124703828125
-66.67,1712124703843750
-51.82,1712124703859375
-35.55,1712124703875000
-16.6,1712124703890625
7.85,1712124703906250
39.19,1712124703921875
75.16,1712124703937500
109.58,1712124703953125
134.79,1712124703968750
145.12,1712124703984375
139.37,1712124704000000
121.1,1712124704015625
96.59,1712124704031250
71.74,1712124704046875
49.66,1712124704062500
29.91,1712124704078125
9.64,1712124704093750
-14.4,1712124704109375
-44.06,1712124704125000
-78.87,1712124704140625
-116.42,1712124704156250
-153.54,1712124704171875
-187.53,1712124704187500
-216.88,1712124704203125
-240.9,1712124704218750
-259.1,1712124704234375
-270.45,1712124704250000
-273.34,1712124704265625
-266.44,1712124704281250
-249.72,1712124704296875
-225.29,1712124704312500
-197.27,1712124704328125
-170.47,1712124704343750
-148.58,1712124704359375
-132.88,1712124704375000
-121.92,1712124704390625
-112.65,1712124704406250
-102.11,1712124704421875
-88.94,1712124704437500
-73.86,1712124704453125
-58.95,1712124704468750
-46.28,1712124704484375
-36.76,1712124704500000
-29.81,1712124704515625
-23.91,1712124704531250
-17.63,1712124704546875
-10.36,1712124704562500
-2.57,1712124704578125
4.51,1712124704593750
9.21,1712124704609375
9.63,1712124704625000
3.56,1712124704640625
-11.43,1712124704656250
-37.38,1712124704671875
-74.94,1712124704687500
-122.35,1712124704703125
-175.23,1712124704718750
-227.53,1712124704734375
-273.21,1712124704750000
-307.79,1712124704765625
-329.24,1712124704781250
-337.62,1712124704796875
-333.95,1712124704812500
-319.23,1712124704828125
-293.95,1712124704843750
-258.49,1712124704859375
-213.84,1712124704875000
-162.33,1712124704890625
-107.64,1712124704906250
-54.23,1712124704921875
-6.16,1712124704937500
34.0,1712124704953125
65.71,1712124704968750
90.11,1712124704984375
109.09,1712124705000000
124.19,1712124705015625
135.9,1712124705031250
143.75,1712124705046875
147.04,1712124705062500
145.84,1712124705078125
141.47,1712124705093750
136.23,1712124705109375
132.36,1712124705125000
131.01,1712124705140625
131.68,1712124705156250
132.45,1712124705171875
130.9,1712124705187500
124.99,1712124705203125
113.79,1712124705218750
97.71,1712124705234375
78.42,1712124705250000
58.49,1712124705265625
40.85,1712124705281250
27.92,1712124705296875
20.91,1712124705312500
19.41,1712124705328125
21.61,1712124705343750
25.09,1712124705359375
27.8,1712124705375000
28.88,1712124705390625
28.68,1712124705406250
28.3,1712124705421875
28.74,1712124705437500
30.18,1712124705453125
31.89,1712124705468750
32.51,1712124705484375
30.81,1712124705500000
26.31,1712124705515625
19.7,1712124705531250
12.62,1712124705546875
7.06,1712124705562500
4.62,1712124705578125
5.91,1712124705593750
10.17,1712124705609375
15.5,1712124705625000
19.37,1712124705640625
19.34,1712124705656250
13.77,1712124705671875
2.42,1712124705687500
-13.29,1712124705703125
-30.45,1712124705718750
-45.35,1712124705734375
-54.72,1712124705750000
-57.06,1712124705765625
-53.82,1712124705781250
-49.29,1712124705796875
-49.21,1712124705812500
-58.41,1712124705828125
-78.24,1712124705843750
-105.5,1712124705859375
-133.09,1712124705875000
-152.86,1712124705890625
-158.78,1712124705906250
-149.36,1712124705921875
-127.92,1712124705937500
-100.77,1712124705953125
-74.37,1712124705968750
-52.86,1712124705984375
-37.3,1712124706000000
-26.45,1712124706015625
-18.43,1712124706031250
-12.03,1712124706046875
-6.98,1712124706062500
-3.27,1712124706078125
-0.25,1712124706093750
3.73,1712124706109375
10.64,1712124706125000
21.7,1712124706140625
36.39,1712124706156250
52.35,1712124706171875
66.47,1712124706187500
76.18,1712124706203125
80.67,1712124706218750
81.0,1712124706234375
79.26,1712124706250000
77.54,1712124706265625
76.87,1712124706281250
77.31,1712124706296875
78.5,1712124706312500
80.37,1712124706328125
83.43,1712124706343750
88.43,1712124706359375
95.74,1712124706375000
104.89,1712124706390625
114.55,1712124706406250
123.06,1712124706421875
129.07,1712124706437500
131.82,1712124706453125
131.1,1712124706468750
126.83,1712124706484375
118.95,1712124706500000
107.53,1712124706515625
93.18,1712124706531250
77.11,1712124706546875
60.86,1712124706562500
45.74,1712124706578125
32.2,1712124706593750
19.59,1712124706609375
6.43,1712124706625000
-8.77,1712124706640625
-26.68,1712124706656250
-46.54,1712124706671875
-66.84,1712124706687500
-86.04,1712124706703125
-103.32,1712124706718750
-118.7,1712124706734375
-132.62,1712124706750000
-145.38,1712124706765625
-156.5,1712124706781250
-164.48,1712124706796875
-166.68,1712124706812500
-161.15,1712124706828125
-147.59,1712124706843750
-127.35,1712124706859375
-102.68,1712124706875000
-75.22,1712124706890625
-45.64,1712124706906250
-13.6,1712124706921875
21.51,1712124706937500
60.81,1712124706953125
103.47,1712124706968750
146.78,1712124706984375
187.29,1712124707000000
222.07,1712124707015625
250.05,1712124707031250
271.07,1712124707046875
285.41,1712124707062500
293.57,1712124707078125
298.51,1712124707093750
302.99,1712124707109375
309.06,1712124707125000
317.89,1712124707140625
329.29,1712124707156250
342.65,1712124707171875
355.94,1712124707187500
366.62,1712124707203125
372.04,1712124707218750
372.43,1712124707234375
366.71,1712124707250000
352.19,1712124707265625
325.94,1712124707281250
286.77,1712124707296875
237.76,1712124707312500
184.28,1712124707328125
131.95,1712124707343750
70.2,1712124707359375
-1.06,1712124707375000
-75.0,1712124707390625
-142.83,1712124707406250
-197.71,1712124707421875
-244.25,1712124707437500
-285.32,1712124707453125
-322.59,1712124707468750
-353.49,1712124707484375
-376.96,1712124707500000
-391.14,1712124707515625
-396.88,1712124707531250
-396.87,1712124707546875
-394.06,1712124707562500
-390.4,1712124707578125
-385.14,1712124707593750
-377.19,1712124707609375
-365.84,1712124707625000
-351.74,1712124707640625
-334.14,1712124707656250
-313.39,1712124707671875
-290.46,1712124707687500
-265.86,1712124707703125
-239.24,1712124707718750
-208.72,1712124707734375
-173.32,1712124707750000
-133.89,1712124707765625
-93.68,1712124707781250
-55.78,1712124707796875
-23.49,1712124707812500
0.9,1712124707828125
17.13,1712124707843750
26.85,1712124707859375
33.05,1712124707875000
37.92,1712124707890625
42.35,1712124707906250
46.36,1712124707921875
50.9,1712124707937500
57.27,1712124707953125
66.36,1712124707968750
77.68,1712124707984375
88.88,1712124708000000
96.97,1712124708015625
99.59,1712124708031250
96.6,1712124708046875
90.26,1712124708062500
84.29,1712124708078125
81.5,1712124708093750
82.25,1712124708109375
84.55,1712124708125000
85.48,1712124708140625
82.99,1712124708156250
76.64,1712124708171875
67.23,1712124708187500
55.73,1712124708203125
42.64,1712124708218750
28.03,1712124708234375
12.2,1712124708250000
-3.73,1712124708265625
-17.93,1712124708281250
-28.28,1712124708296875
-33.22,1712124708312500
-32.42,1712124708328125
-26.81,1712124708343750
-18.23,1712124708359375
-8.93,1712124708375000
-0.9,1712124708390625
4.49,1712124708406250
6.7,1712124708421875
6.07,1712124708437500
3.63,1712124708453125
0.84,1712124708468750
-0.76,1712124708484375
-0.02,1712124708500000
3.48,1712124708515625
9.39,1712124708531250
16.82,1712124708546875
24.78,1712124708562500
32.67,1712124708578125
40.31,1712124708593750
47.76,1712124708609375
54.79,1712124708625000
60.58,1712124708640625
63.74,1712124708656250
62.78,1712124708671875
56.83,1712124708687500
46.2,1712124708703125
32.51,1712124708718750
18.36,1712124708734375
6.59,1712124708750000
-0.59,1712124708765625
-2.2,1712124708781250
1.4,1712124708796875
8.68,1712124708812500
17.6,1712124708828125
26.17,1712124708843750
32.99,1712124708859375
37.37,1712124708875000
39.31,1712124708890625
39.2,1712124708906250
37.56,1712124708921875
34.82,1712124708937500
31.17,1712124708953125
26.52,1712124708968750
20.62,1712124708984375
13.39,1712124709000000
5.1,1712124709015625
-3.53,1712124709031250
-11.61,1712124709046875
-18.48,1712124709062500
-24.06,1712124709078125
-28.86,1712124709093750
-33.68,1712124709109375
-39.15,1712124709125000
-45.46,1712124709140625
-52.4,1712124709156250
-59.73,1712124709171875
-67.36,1712124709187500
-75.32,1712124709203125
-83.45,1712124709218750
-91.11,1712124709234375
-97.09,1712124709250000
-100.05,1712124709265625
-98.99,1712124709281250
-93.77,1712124709296875
-85.16,1712124709312500
-74.49,1712124709328125
-63.13,1712124709343750
-52.13,1712124709359375
-42.12,1712124709375000
-33.41,1712124709390625
-26.22,1712124709406250
-20.74,1712124709421875
-17.07,1712124709437500
-15.18,1712124709453125
-14.78,1712124709468750
-15.51,1712124709484375
-17.04,1712124709500000
-19.13,1712124709515625
-21.59,1712124709531250
-24.14,1712124709546875
-26.3,1712124709562500
-27.5,1712124709578125
-27.28,1712124709593750
-25.49,1712124709609375
-22.44,1712124709625000
-18.68,1712124709640625
-14.76,1712124709656250
-10.94,1712124709671875
-7.04,1712124709687500
-2.61,1712124709703125
2.82,1712124709718750
9.48,1712124709734375
17.25,1712124709750000
25.78,1712124709765625
34.72,1712124709781250
43.81,1712124709796875
52.85,1712124709812500
61.52,1712124709828125
69.17,1712124709843750
74.76,1712124709859375
77.22,1712124709875000
75.66,1712124709890625
69.69,1712124709906250
59.57,1712124709921875
45.81,1712124709937500
28.94,1712124709953125
9.32,1712124709968750
-12.4,1712124709984375
-34.81,1712124710000000
-55.36,1712124710015625
-70.9,1712124710031250
-78.72,1712124710046875
-77.89,1712124710062500
-69.79,1712124710078125
-57.57,1712124710093750
-44.85,1712124710109375
-34.17,1712124710125000
-26.25,1712124710140625
-20.37,1712124710156250
-15.4,1712124710171875
-10.82,1712124710187500
-7.1,1712124710203125
-5.24,1712124710218750
-5.94,1712124710234375
-9.06,1712124710250000
-13.68,1712124710265625
-18.63,1712124710281250
-23.05,1712124710296875
-26.68,1712124710312500
-29.64,1712124710328125
-32.2,1712124710343750
-34.53,1712124710359375
-36.45,1712124710375000
-37.62,1712124710390625
-37.7,1712124710406250
-36.48,1712124710421875
-34.11,1712124710437500
-31.1,1712124710453125
-28.35,1712124710468750
-26.85,1712124710484375
-27.23,1712124710500000
-29.35,1712124710515625
-32.1,1712124710531250
-33.53,1712124710546875
-31.54,1712124710562500
-24.54,1712124710578125
-11.99,1712124710593750
5.44,1712124710609375
26.13,1712124710625000
47.94,1712124710640625
68.73,1712124710656250
86.6,1712124710671875
99.97,1712124710687500
107.72,1712124710703125
109.23,1712124710718750
104.63,1712124710734375
94.88,1712124710750000
81.86,1712124710765625
68.04,1712124710781250
56.01,1712124710796875
47.88,1712124710812500
44.8,1712124710828125
46.78,1712124710843750
52.76,1712124710859375
61.0,1712124710875000
69.6,1712124710890625
76.86,1712124710906250
81.57,1712124710921875
82.98,1712124710937500
80.72,1712124710953125
74.73,1712124710968750
65.33,1712124710984375
53.25,1712124711000000
39.66,1712124711015625
26.03,1712124711031250
13.78,1712124711046875
3.93,1712124711062500
-3.12,1712124711078125
-7.66,1712124711093750
-10.45,1712124711109375
-12.38,1712124711125000
-14.19,1712124711140625
-16.22,1712124711156250
-18.51,1712124711171875
-20.86,1712124711187500
-23.12,1712124711203125
-25.23,1712124711218750
-27.29,1712124711234375
-29.47,1712124711250000
-31.94,1712124711265625
-34.77,1712124711281250
-37.96,1712124711296875
-41.41,1712124711312500
-44.98,1712124711328125
-48.51,1712124711343750
-51.8,1712124711359375
-54.71,1712124711375000
-57.16,1712124711390625
-59.24,1712124711406250
-61.2,1712124711421875
-63.43,1712124711437500
-66.27,1712124711453125
-69.73,1712124711468750
-73.31,1712124711484375
-76.04,1712124711500000
-76.72,1712124711515625
-74.36,1712124711531250
-68.53,1712124711546875
-59.57,1712124711562500
-48.45,1712124711578125
-36.33,1712124711593750
-24.29,1712124711609375
-13.05,1712124711625000
-2.95,1712124711640625
5.88,1712124711656250
13.5,1712124711671875
20.13,1712124711687500
26.22,1712124711703125
32.3,1712124711718750
38.84,1712124711734375
45.95,1712124711750000
53.19,1712124711765625
59.81,1712124711781250
65.04,1712124711796875
68.61,1712124711812500
70.87,1712124711828125
72.66,1712124711843750
74.73,1712124711859375
77.33,1712124711875000
80.01,1712124711890625
81.82,1712124711906250
81.89,1712124711921875
79.75,1712124711937500
75.54,1712124711953125
69.72,1712124711968750
62.79,1712124711984375
55.05,1712124712000000
46.6,1712124712015625
37.55,1712124712031250
28.15,1712124712046875
18.82,1712124712062500
9.97,1712124712078125
1.9,1712124712093750
-5.41,1712124712109375
-12.13,1712124712125000
-18.54,1712124712140625
-24.93,1712124712156250
-31.57,1712124712171875
-38.65,1712124712187500
-46.21,1712124712203125
-54.04,1712124712218750
-61.61,1712124712234375
-68.04,1712124712250000
-72.35,1712124712265625
-73.68,1712124712281250
-71.63,1712124712296875
-66.38,1712124712312500
-58.63,1712124712328125
-49.34,1712124712343750
-39.45,1712124712359375
-29.74,1712124712375000
-20.72,1712124712390625
-12.75,1712124712406250
-6.03,1712124712421875
-0.66,1712124712437500
3.57,1712124712453125
7.11,1712124712468750
10.6,1712124712484375
14.58,1712124712500000
19.24,1712124712515625
24.31,1712124712531250
29.16,1712124712546875
33.07,1712124712562500
35.54,1712124712578125
36.43,1712124712593750
35.91,1712124712609375
34.23,1712124712625000
31.62,1712124712640625
28.25,1712124712656250
24.31,1712124712671875
20.13,1712124712687500
16.16,1712124712703125
12.75,1712124712718750
10.13,1712124712734375
8.2,1712124712750000
6.73,1712124712765625
5.38,1712124712781250
3.92,1712124712796875
2.19,1712124712812500
0.14,1712124712828125
-2.29,1712124712843750
-5.16,1712124712859375
-8.56,1712124712875000
-12.58,1712124712890625
-17.31,1712124712906250
-22.84,1712124712921875
-29.31,1712124712937500
-36.76,1712124712953125
-45.01,1712124712968750
-53.42,1712124712984375
-60.86,1712124713000000
-65.92,1712124713015625
-67.33,1712124713031250
-64.42,1712124713046875
-57.45,1712124713062500
-47.49,1712124713078125
-36.02,1712124713093750
-24.38,1712124713109375
-13.41,1712124713125000
-3.38,1712124713140625
5.78,1712124713156250
14.04,1712124713171875
21.19,1712124713187500
26.76,1712124713203125
30.33,1712124713218750
31.75,1712124713234375
31.23,1712124713250000
29.18,1712124713265625
26.04,1712124713281250
22.27,1712124713296875
18.38,1712124713312500
15.16,1712124713328125
13.54,1712124713343750
14.49,1712124713359375
18.47,1712124713375000
25.19,1712124713390625
33.48,1712124713406250
41.61,1712124713421875
47.92,1712124713437500
51.25,1712124713453125
51.3,1712124713468750
48.51,1712124713484375
43.72,1712124713500000
37.83,1712124713515625
31.52,1712124713531250
25.17,1712124713546875
18.99,1712124713562500
13.04,1712124713578125
7.28,1712124713593750
1.59,1712124713609375
-4.29,1712124713625000
-10.74,1712124713640625
-18.21,1712124713656250
-27.04,1712124713671875
-37.25,1712124713687500
-48.31,1712124713703125
-59.12,1712124713718750
-68.13,1712124713734375
-73.79,1712124713750000
-74.99,1712124713765625
-71.41,1712124713781250
-63.58,1712124713796875
-52.66,1712124713812500
-39.98,1712124713828125
-26.82,1712124713843750
-14.12,1712124713859375
-2.59,1712124713875000
7.27,1712124713890625
15.03,1712124713906250
20.45,1712124713921875
23.52,1712124713937500
24.54,1712124713953125
24.1,1712124713968750
22.85,1712124713984375
21.36,1712124714000000
19.92,1712124714015625
18.58,1712124714031250
17.19,1712124714046875
15.56,1712124714062500
13.61,1712124714078125
11.43,1712124714093750
9.25,1712124714109375
7.34,1712124714125000
5.88,1712124714140625
4.97,1712124714156250
4.62,1712124714171875
4.83,1712124714187500
5.53,1712124714203125
6.64,1712124714218750
7.96,1712124714234375
9.15,1712124714250000
9.79,1712124714265625
9.51,1712124714281250
8.01,1712124714296875
5.24,1712124714312500
1.4,1712124714328125
-3.09,1712124714343750
-7.7,1712124714359375
-12.01,1712124714375000
-15.94,1712124714390625
-19.82,1712124714406250
-24.3,1712124714421875
-29.94,1712124714437500
-36.77,1712124714453125
-44.0,1712124714468750
-50.09,1712124714484375
-53.17,1712124714500000
-51.56,1712124714515625
-44.25,1712124714531250
-31.15,1712124714546875
-13.09,1712124714562500
8.36,1712124714578125
31.12,1712124714593750
52.78,1712124714609375
70.95,1712124714625000
83.63,1712124714640625
89.7,1712124714656250
89.29,1712124714671875
83.77,1712124714687500
75.35,1712124714703125
66.17,1712124714718750
57.52,1712124714734375
49.47,1712124714750000
41.09,1712124714765625
31.32,1712124714781250
19.79,1712124714796875
7.3,1712124714812500
-4.44,1712124714828125
-13.55,1712124714843750
-18.88,1712124714859375
-20.44,1712124714875000
-19.18,1712124714890625
-16.33,1712124714906250
-12.87,1712124714921875
-9.23,1712124714937500
-5.62,1712124714953125
-2.36,1712124714968750
0.0,1712124714984375
0.79,1712124715000000
-0.37,1712124715015625
-3.28,1712124715031250
-7.18,1712124715046875
-11.15,1712124715062500
-14.49,1712124715078125
-17.07,1712124715093750
-19.41,1712124715109375
-22.34,1712124715125000
-26.69,1712124715140625
-32.8,1712124715156250
-40.29,1712124715171875
-48.04,1712124715187500
-54.48,1712124715203125
-58.1,1712124715218750
-58.03,1712124715234375
-54.29,1712124715250000
-47.72,1712124715265625
-39.61,1712124715281250
-31.13,1712124715296875
-22.92,1712124715312500
-14.99,1712124715328125
-7.07,1712124715343750
1.12,1712124715359375
9.54,1712124715375000
17.82,1712124715390625
25.31,1712124715406250
31.38,1712124715421875
35.58,1712124715437500
37.85,1712124715453125
38.7,1712124715468750
39.07,1712124715484375
40.15,1712124715500000
42.85,1712124715515625
47.38,1712124715531250
53.05,1712124715546875
58.48,1712124715562500
62.15,1712124715578125
62.98,1712124715593750
60.74,1712124715609375
55.93,1712124715625000
49.44,1712124715640625
42.14,1712124715656250
34.59,1712124715671875
27.08,1712124715687500
19.75,1712124715703125
12.74,1712124715718750
6.17,1712124715734375
0.08,1712124715750000
-5.69,1712124715765625
-11.37,1712124715781250
-17.3,1712124715796875
-23.77,1712124715812500
-30.99,1712124715828125
-39.08,1712124715843750
-47.98,1712124715859375
-57.34,1712124715875000
-66.48,1712124715890625
-74.35,1712124715906250
-79.79,1712124715921875
-81.8,1712124715937500
-79.88,1712124715953125
-74.14,1712124715968750
-65.34,1712124715984375
-54.55,1712124716000000
-42.9,1712124716015625
-31.36,1712124716031250
-20.63,1712124716046875
-11.23,1712124716062500
-3.55,1712124716078125
2.13,1712124716093750
5.67,1712124716109375
7.19,1712124716125000
7.11,1712124716140625
6.06,1712124716156250
4.84,1712124716171875
4.1,1712124716187500
4.25,1712124716203125
5.34,1712124716218750
7.06,1712124716234375
8.93,1712124716250000
10.42,1712124716265625
11.25,1712124716281250
11.46,1712124716296875
11.4,1712124716312500
11.64,1712124716328125
12.59,1712124716343750
14.35,1712124716359375
16.51,1712124716375000
18.34,1712124716390625
19.07,1712124716406250
18.29,1712124716421875
16.14,1712124716437500
13.29,1712124716453125
10.69,1712124716468750
9.27,1712124716484375
9.72,1712124716500000
12.26,1712124716515625
16.64,1712124716531250
21.98,1712124716546875
26.89,1712124716562500
29.74,1712124716578125
29.18,1712124716593750
24.8,1712124716609375
17.49,1712124716625000
9.27,1712124716640625
2.62,1712124716656250
-0.59,1712124716671875
0.28,1712124716687500
4.48,1712124716703125
10.4,1712124716718750
16.35,1712124716734375
21.09,1712124716750000
24.01,1712124716765625
24.82,1712124716781250
23.24,1712124716796875
18.92,1712124716812500
11.66,1712124716828125
1.73,1712124716843750
-9.87,1712124716859375
-21.59,1712124716875000
-31.69,1712124716890625
-38.79,1712124716906250
-42.32,1712124716921875
-42.57,1712124716937500
-40.5,1712124716953125
-37.36,1712124716968750
-34.22,1712124716984375
-31.67,1712124717000000
-29.79,1712124717015625
-28.31,1712124717031250
-26.82,1712124717046875
-25.01,1712124717062500
-22.77,1712124717078125
-20.08,1712124717093750
-17.06,1712124717109375
-13.85,1712124717125000
-10.66,1712124717140625
-7.74,1712124717156250
-5.43,1712124717171875
-3.96,1712124717187500
-3.38,1712124717203125
-3.51,1712124717218750
-3.95,1712124717234375
-4.32,1712124717250000
-4.47,1712124717265625
-4.64,1712124717281250
-5.31,1712124717296875
-7.04,1712124717312500
-10.03,1712124717328125
-13.89,1712124717343750
-17.68,1712124717359375
-20.19,1712124717375000
-20.41,1712124717390625
-17.85,1712124717406250
-12.72,1712124717421875
-5.65,1712124717437500
2.53,1712124717453125
11.05,1712124717468750
19.32,1712124717484375
26.8,1712124717500000
33.02,1712124717515625
37.53,1712124717531250
40.06,1712124717546875
40.55,1712124717562500
39.26,1712124717578125
36.63,1712124717593750
33.19,1712124717609375
29.38,1712124717625000
25.54,1712124717640625
21.89,1712124717656250
18.52,1712124717671875
15.47,1712124717687500
12.69,1712124717703125
10.13,1712124717718750
7.79,1712124717734375
5.7,1712124717750000
3.98,1712124717765625
2.71,1712124717781250
1.87,1712124717796875
1.34,1712124717812500
0.9,1712124717828125
0.27,1712124717843750
-0.73,1712124717859375
-2.12,1712124717875000
-3.81,1712124717890625
-5.64,1712124717906250
-7.46,1712124717921875
-9.25,1712124717937500
-11.07,1712124717953125
-13.05,1712124717968750
-15.33,1712124717984375
-17.99,1712124718000000
-21.08,1712124718015625
-24.65,1712124718031250
-28.77,1712124718046875
-33.48,1712124718062500
-38.61,1712124718078125
-43.72,1712124718093750
-48.08,1712124718109375
-50.81,1712124718125000
-51.15,1712124718140625
-48.71,1712124718156250
-43.59,1712124718171875
-36.25,1712124718187500
-27.35,1712124718203125
-17.56,1712124718218750
-7.54,1712124718234375
2.09,1712124718250000
10.67,1712124718265625
17.6,1712124718281250
22.44,1712124718296875
25.11,1712124718312500
25.91,1712124718328125
25.39,1712124718343750
24.26,1712124718359375
23.05,1712124718375000
22.12,1712124718390625
21.57,1712124718406250
21.33,1712124718421875
21.25,1712124718437500
21.13,1712124718453125
20.79,1712124718468750
20.09,1712124718484375
19.0,1712124718500000
17.56,1712124718515625
15.87,1712124718531250
13.95,1712124718546875
11.75,1712124718562500
9.18,1712124718578125
6.18,1712124718593750
2.79,1712124718609375
-0.81,1712124718625000
-4.37,1712124718640625
-7.68,1712124718656250
-10.67,1712124718671875
-13.42,1712124718687500
-16.13,1712124718703125
-19.08,1712124718718750
-22.47,1712124718734375
-26.52,1712124718750000
-31.26,1712124718765625
-36.57,1712124718781250
-42.03,1712124718796875
-46.9,1712124718812500
-50.25,1712124718828125
-51.15,1712124718843750
-48.97,1712124718859375
-43.6,1712124718875000
-35.48,1712124718890625
-25.5,1712124718906250
-14.71,1712124718921875
-4.08,1712124718937500
5.64,1712124718953125
13.92,1712124718968750
20.44,1712124718984375
25.0,1712124719000000
27.54,1712124719015625
28.25,1712124719031250
27.52,1712124719046875
25.93,1712124719062500
24.11,1712124719078125
22.53,1712124719093750
21.44,1712124719109375
20.86,1712124719125000
20.66,1712124719140625
20.69,1712124719156250
20.83,1712124719171875
21.01,1712124719187500
21.12,1712124719203125
21.02,1712124719218750
20.58,1712124719234375
19.7,1712124719250000
18.32,1712124719265625
16.49,1712124719281250
14.21,1712124719296875
11.51,1712124719312500
8.43,1712124719328125
5.03,1712124719343750
1.44,1712124719359375
-2.19,1712124719375000
-5.77,1712124719390625
-9.25,1712124719406250
-12.71,1712124719421875
-16.29,1712124719437500
-20.18,1712124719453125
-24.53,1712124719468750
-29.47,1712124719484375
-34.97,1712124719500000
-40.68,1712124719515625
-46.0,1712124719531250
-49.97,1712124719546875
-51.6,1712124719562500
-50.07,1712124719578125
-45.11,1712124719593750
-37.09,1712124719609375
-26.96,1712124719625000
-15.97,1712124719640625
-5.29,1712124719656250
4.2,1712124719671875
12.13,1712124719687500
18.5,1712124719703125
23.52,1712124719718750
27.38,1712124719734375
30.13,1712124719750000
31.73,1712124719765625
32.17,1712124719781250
31.6,1712124719796875
30.34,1712124719812500
28.85,1712124719828125
27.55,1712124719843750
26.7,1712124719859375
26.41,1712124719875000
26.63,1712124719890625
27.25,1712124719906250
28.05,1712124719921875
28.76,1712124719937500
28.95,1712124719953125
28.26,1712124719968750
26.45,1712124719984375
23.61,1712124720000000
20.07,1712124720015625
16.3,1712124720031250
12.62,1712124720046875
9.1,1712124720062500
5.65,1712124720078125
2.18,1712124720093750
-1.25,1712124720109375
-4.41,1712124720125000
-7.07,1712124720140625
-9.2,1712124720156250
-11.03,1712124720171875
-12.96,1712124720187500
-15.45,1712124720203125
-18.72,1712124720218750
-22.76,1712124720234375
-27.33,1712124720250000
-32.02,1712124720265625
-36.37,1712124720281250
-39.84,1712124720296875
-41.9,1712124720312500
-42.08,1712124720328125
-40.13,1712124720343750
-36.13,1712124720359375
-30.52,1712124720375000
-23.98,1712124720390625
-17.19,1712124720406250
-10.63,1712124720421875
-4.5,1712124720437500
1.22,1712124720453125
6.63,1712124720468750
11.63,1712124720484375
15.98,1712124720500000
19.36,1712124720515625
21.61,1712124720531250
22.85,1712124720546875
23.53,1712124720562500
24.21,1712124720578125
25.35,1712124720593750
27.1,1712124720609375
29.24,1712124720625000
31.44,1712124720640625
33.28,1712124720656250
34.48,1712124720671875
34.96,1712124720687500
34.76,1712124720703125
34.02,1712124720718750
32.89,1712124720734375
31.49,1712124720750000
29.8,1712124720765625
27.73,1712124720781250
25.11,1712124720796875
21.85,1712124720812500
17.96,1712124720828125
13.7,1712124720843750
9.39,1712124720859375
5.31,1712124720875000
1.57,1712124720890625
-2.0,1712124720906250
-5.71,1712124720921875
-9.92,1712124720937500
-14.82,1712124720953125
-20.38,1712124720968750
-26.3,1712124720984375
-32.05,1712124721000000
-36.93,1712124721015625
-40.18,1712124721031250
-41.17,1712124721046875
-39.55,1712124721062500
-35.41,1712124721078125
-29.19,1712124721093750
-21.56,1712124721109375
-13.2,1712124721125000
-4.61,1712124721140625
3.88,1712124721156250
12.01,1712124721171875
19.42,1712124721187500
25.63,1712124721203125
30.04,1712124721218750
32.25,1712124721234375
32.19,1712124721250000
30.24,1712124721265625
27.18,1712124721281250
24.0,1712124721296875
21.8,1712124721312500
21.52,1712124721328125
23.85,1712124721343750
28.95,1712124721359375
36.35,1712124721375000
44.83,1712124721390625
52.71,1712124721406250
58.28,1712124721421875
60.31,1712124721437500
58.46,1712124721453125
53.18,1712124721468750
45.46,1712124721484375
36.26,1712124721500000
26.15,1712124721515625
15.34,1712124721531250
3.97,1712124721546875
-7.54,1712124721562500
-18.4,1712124721578125
-27.6,1712124721593750
-34.44,1712124721609375
-38.79,1712124721625000
-41.27,1712124721640625
-42.91,1712124721656250
-44.7,1712124721671875
-47.19,1712124721687500
-50.35,1712124721703125
-53.73,1712124721718750
-56.64,1712124721734375
-58.44,1712124721750000
-58.61,1712124721765625
-56.76,1712124721781250
-52.66,1712124721796875
-46.29,1712124721812500
-37.87,1712124721828125
-27.91,1712124721843750
-17.18,1712124721859375
-6.53,1712124721875000
3.26,1712124721890625
11.62,1712124721906250
18.26,1712124721921875
23.08,1712124721937500
26.15,1712124721953125
27.66,1712124721968750
27.89,1712124721984375
27.16,1712124722000000
25.83,1712124722015625
24.25,1712124722031250
22.77,1712124722046875
21.6,1712124722062500
20.83,1712124722078125
20.38,1712124722093750
20.1,1712124722109375
19.83,1712124722125000
19.55,1712124722140625
19.3,1712124722156250
19.16,1712124722171875
19.03,1712124722187500
18.7,1712124722203125
17.79,1712124722218750
15.98,1712124722234375
13.16,1712124722250000
9.48,1712124722265625
5.33,1712124722281250
1.15,1712124722296875
-2.74,1712124722312500
-6.19,1712124722328125
-9.26,1712124722343750
-12.15,1712124722359375
-15.1,1712124722375000
-18.44,1712124722390625
-22.44,1712124722406250
-27.35,1712124722421875
-33.14,1712124722437500
-39.5,1712124722453125
-45.64,1712124722468750
-50.47,1712124722484375
-52.81,1712124722500000
-51.73,1712124722515625
-46.83,1712124722531250
-38.45,1712124722546875
-27.55,1712124722562500
-15.48,1712124722578125
-3.6,1712124722593750
7.01,1712124722609375
15.73,1712124722625000
22.33,1712124722640625
26.87,1712124722656250
29.55,1712124722671875
30.59,1712124722687500
30.27,1712124722703125
28.95,1712124722718750
27.02,1712124722734375
24.9,1712124722750000
22.96,1712124722765625
21.48,1712124722781250
20.57,1712124722796875
20.2,1712124722812500
20.28,1712124722828125
20.62,1712124722843750
21.06,1712124722859375
21.43,1712124722875000
21.61,1712124722890625
21.47,1712124722906250
20.88,1712124722921875
19.71,1712124722937500
17.88,1712124722953125
15.36,1712124722968750
12.2,1712124722984375
8.53,1712124723000000
4.45,1712124723015625
0.08,1712124723031250
-4.49,1712124723046875
-9.13,1712124723062500
-13.65,1712124723078125
-17.81,1712124723093750
-21.41,1712124723109375
-24.48,1712124723125000
-27.35,1712124723140625
-30.6,1712124723156250
-34.82,1712124723171875
-40.38,1712124723187500
-47.01,1712124723203125
-53.87,1712124723218750
-59.63,1712124723234375
-62.94,1712124723250000
-62.84,1712124723265625
-59.05,1712124723281250
-52.07,1712124723296875
-42.93,1712124723312500
-32.89,1712124723328125
-23.02,1712124723343750
-14.1,1712124723359375
-6.58,1712124723375000
-0.66,1712124723390625
3.68,1712124723406250
6.75,1712124723421875
9.19,1712124723437500
11.92,1712124723453125
15.7,1712124723468750
20.83,1712124723484375
26.94,1712124723500000
33.2,1712124723515625
38.84,1712124723531250
43.62,1712124723546875
47.94,1712124723562500
52.43,1712124723578125
57.26,1712124723593750
61.78,1712124723609375
64.76,1712124723625000
65.05,1712124723640625
62.3,1712124723656250
57.1,1712124723671875
50.52,1712124723687500
43.21,1712124723703125
34.9,1712124723718750
24.58,1712124723734375
11.39,1712124723750000
-4.42,1712124723765625
-21.15,1712124723781250
-36.29,1712124723796875
-47.64,1712124723812500
-54.32,1712124723828125
-56.95,1712124723843750
-57.05,1712124723859375
-55.99,1712124723875000
-54.45,1712124723890625
-52.27,1712124723906250
-49.18,1712124723921875
-45.25,1712124723937500
-41.12,1712124723953125
-37.48,1712124723968750
-34.59,1712124723984375
-31.86,1712124724000000
-28.12,1712124724015625
-22.29,1712124724031250
-14.1,1712124724046875
-4.34,1712124724062500
5.48,1712124724078125
13.84,1712124724093750
19.95,1712124724109375
23.96,1712124724125000
26.71,1712124724140625
29.2,1712124724156250
32.0,1712124724171875
35.2,1712124724187500
38.74,1712124724203125
42.74,1712124724218750
47.7,1712124724234375
54.12,1712124724250000
62.05,1712124724265625
70.77,1712124724281250
79.0,1712124724296875
85.41,1712124724312500
89.21,1712124724328125
90.35,1712124724343750
89.16,1712124724359375
85.85,1712124724375000
80.17,1712124724390625
71.63,1712124724406250
60.12,1712124724421875
46.34,1712124724437500
31.76,1712124724453125
18.04,1712124724468750
6.3,1712124724484375
-3.26,1712124724500000
-11.15,1712124724515625
-18.02,1712124724531250
-24.18,1712124724546875
-29.54,1712124724562500
-33.94,1712124724578125
-37.52,1712124724593750
-40.79,1712124724609375
-44.16,1712124724625000
-47.44,1712124724640625
-49.7,1712124724656250
-49.69,1712124724671875
-46.6,1712124724687500
-40.6,1712124724703125
-32.81,1712124724718750
-24.61,1712124724734375
-16.87,1712124724750000
-9.54,1712124724765625
-2.02,1712124724781250
6.23,1712124724796875
15.3,1712124724812500
25.06,1712124724828125
35.65,1712124724843750
47.99,1712124724859375
63.58,1712124724875000
83.68,1712124724890625
108.5,1712124724906250
136.84,1712124724921875
166.42,1712124724937500
194.78,1712124724953125
219.94,1712124724968750
240.58,1712124724984375
255.76,1712124725000000
264.53,1712124725015625
265.97,1712124725031250
259.52,1712124725046875
245.55,1712124725062500
225.49,1712124725078125
201.29,1712124725093750
174.64,1712124725109375
146.04,1712124725125000
114.76,1712124725140625
79.54,1712124725156250
39.73,1712124725171875
-3.75,1712124725187500
-48.32,1712124725203125
-90.72,1712124725218750
-128.54,1712124725234375
-161.3,1712124725250000
-190.51,1712124725265625
-218.5,1712124725281250
-246.83,1712124725296875
-275.16,1712124725312500
-301.22,1712124725328125
-321.76,1712124725343750
-333.85,1712124725359375
-335.84,1712124725375000
-327.46,1712124725390625
-309.39,1712124725406250
-282.77,1712124725421875
-248.99,1712124725437500
-209.96,1712124725453125
-168.43,1712124725468750
-127.96,1712124725484375
-92.39,1712124725500000
-65.05,1712124725515625
-47.63,1712124725531250
-39.79,1712124725546875
-39.23,1712124725562500
-42.43,1712124725578125
-45.92,1712124725593750
-47.35,1712124725609375
-46.06,1712124725625000
-42.55,1712124725640625
-37.67,1712124725656250
-31.9,1712124725671875
-25.39,1712124725687500
-18.58,1712124725703125
-12.7,1712124725718750
-9.61,1712124725734375
-10.77,1712124725750000
-16.08,1712124725765625
-23.39,1712124725781250
-29.24,1712124725796875
-30.41,1712124725812500
-25.42,1712124725828125
-15.05,1712124725843750
-1.64,1712124725859375
12.24,1712124725875000
24.96,1712124725890625
36.08,1712124725906250
45.84,1712124725921875
54.34,1712124725937500
61.18,1712124725953125
65.56,1712124725968750
66.82,1712124725984375
64.89,1712124726000000
60.24,1712124726015625
53.86,1712124726031250
46.83,1712124726046875
39.95,1712124726062500
33.62,1712124726078125
27.77,1712124726093750
22.05,1712124726109375
16.08,1712124726125000
9.61,1712124726140625
2.76,1712124726156250
-4.13,1712124726171875
-10.61,1712124726187500
-16.31,1712124726203125
-21.06,1712124726218750
-24.76,1712124726234375
-27.42,1712124726250000
-28.94,1712124726265625
-29.14,1712124726281250
-27.9,1712124726296875
-25.18,1712124726312500
-21.2,1712124726328125
-16.33,1712124726343750
-10.99,1712124726359375
-5.47,1712124726375000
0.12,1712124726390625
5.83,1712124726406250
11.73,1712124726421875
17.83,1712124726437500
24.02,1712124726453125
30.12,1712124726468750
35.8,1712124726484375
40.7,1712124726500000
44.42,1712124726515625
46.63,1712124726531250
47.22,1712124726546875
46.3,1712124726562500
44.29,1712124726578125
41.72,1712124726593750
39.13,1712124726609375
37.03,1712124726625000
35.93,1712124726640625
36.35,1712124726656250
38.61,1712124726671875
42.58,1712124726687500
47.44,1712124726703125
51.69,1712124726718750
53.77,1712124726734375
52.57,1712124726750000
48.13,1712124726765625
41.54,1712124726781250
34.56,1712124726796875
28.77,1712124726812500
24.85,1712124726828125
22.34,1712124726843750
19.96,1712124726859375
16.27,1712124726875000
10.25,1712124726890625
1.71,1712124726906250
-8.87,1712124726921875
-20.52,1712124726937500
-32.13,1712124726953125
-42.54,1712124726968750
-50.6,1712124726984375
-55.19,1712124727000000
-55.62,1712124727015625
-51.91,1712124727031250
-45.14,1712124727046875
-37.28,1712124727062500
-30.64,1712124727078125
-27.14,1712124727093750
-27.58,1712124727109375
-31.49,1712124727125000
-37.39,1712124727140625
-43.37,1712124727156250
-47.79,1712124727171875
-49.67,1712124727187500
-48.84,1712124727203125
-45.71,1712124727218750
-40.97,1712124727234375
-35.26,1712124727250000
-29.01,1712124727265625
-22.4,1712124727281250
-15.52,1712124727296875
-8.42,1712124727312500
-1.22,1712124727328125
5.91,1712124727343750
12.8,1712124727359375
19.3,1712124727375000
25.21,1712124727390625
30.05,1712124727406250
32.99,1712124727421875
33.0,1712124727437500
29.07,1712124727453125
20.76,1712124727468750
8.41,1712124727484375
-6.64,1712124727500000
-22.47,1712124727515625
-36.88,1712124727531250
-47.91,1712124727546875
-54.02,1712124727562500
-54.27,1712124727578125
-48.27,1712124727593750
-36.29,1712124727609375
-19.33,1712124727625000
0.93,1712124727640625
22.27,1712124727656250
42.48,1712124727671875
59.9,1712124727687500
73.97,1712124727703125
85.22,1712124727718750
94.93,1712124727734375
104.3,1712124727750000
113.78,1712124727765625
122.73,1712124727781250
129.57,1712124727796875
132.43,1712124727812500
129.75,1712124727828125
120.92,1712124727843750
106.41,1712124727859375
87.68,1712124727875000
66.86,1712124727890625
46.24,1712124727906250
27.71,1712124727921875
12.48,1712124727937500
0.94,1712124727953125
-7.22,1712124727968750
-12.76,1712124727984375
-16.65,1712124728000000
-19.8,1712124728015625
-23.0,1712124728031250
-26.75,1712124728046875
-31.23,1712124728062500
-36.27,1712124728078125
-41.33,1712124728093750
-45.8,1712124728109375
-49.11,1712124728125000
-50.96,1712124728140625
-51.36,1712124728156250
-50.61,1712124728171875
-49.15,1712124728187500
-47.45,1712124728203125
-45.98,1712124728218750
-45.11,1712124728234375
-45.11,1712124728250000
-46.05,1712124728265625
-47.79,1712124728281250
-49.96,1712124728296875
-52.12,1712124728312500
-53.91,1712124728328125
-55.23,1712124728343750
-56.32,1712124728359375
-57.63,1712124728375000
-59.68,1712124728390625
-62.78,1712124728406250
-66.95,1712124728421875
-71.8,1712124728437500
-76.62,1712124728453125
-80.52,1712124728468750
-82.58,1712124728484375
-82.04,1712124728500000
-78.43,1712124728515625
-71.63,1712124728531250
-61.97,1712124728546875
-50.12,1712124728562500
-37.08,1712124728578125
-23.92,1712124728593750
-11.62,1712124728609375
-0.95,1712124728625000
7.65,1712124728640625
13.98,1712124728656250
18.11,1712124728671875
20.31,1712124728687500
20.98,1712124728703125
20.68,1712124728718750
19.97,1712124728734375
19.34,1712124728750000
19.09,1712124728765625
19.21,1712124728781250
19.51,1712124728796875
19.68,1712124728812500
19.58,1712124728828125
19.26,1712124728843750
18.92,1712124728859375
18.77,1712124728875000
18.84,1712124728890625
18.85,1712124728906250
18.33,1712124728921875
16.82,1712124728937500
14.11,1712124728953125
10.4,1712124728968750
6.19,1712124728984375
2.07,1712124729000000
-1.53,1712124729015625
-4.59,1712124729031250
-7.42,1712124729046875
-10.57,1712124729062500
-14.53,1712124729078125
-19.54,1712124729093750
-25.47,1712124729109375
-31.87,1712124729125000
-38.03,1712124729140625
-43.07,1712124729156250
-46.12,1712124729171875
-46.41,1712124729187500
-43.47,1712124729203125
-37.27,1712124729218750
-28.26,1712124729234375
-17.34,1712124729250000
-5.68,1712124729265625
5.55,1712124729281250
15.4,1712124729296875
23.29,1712124729312500
28.97,1712124729328125
32.5,1712124729343750
34.09,1712124729359375
34.09,1712124729375000
32.88,1712124729390625
30.91,1712124729406250
28.64,1712124729421875
26.45,1712124729437500
24.59,1712124729453125
23.1,1712124729468750
21.88,1712124729484375
20.8,1712124729500000
19.78,1712124729515625
18.9,1712124729531250
18.31,1712124729546875
18.1,1712124729562500
18.21,1712124729578125
18.32,1712124729593750
18.01,1712124729609375
16.87,1712124729625000
14.71,1712124729640625
11.59,1712124729656250
7.83,1712124729671875
3.85,1712124729687500
-0.01,1712124729703125
-3.57,1712124729718750
-6.97,1712124729734375
-10.57,1712124729750000
-14.89,1712124729765625
-20.32,1712124729781250
-26.89,1712124729796875
-34.12,1712124729812500
-41.0,1712124729828125
-46.3,1712124729843750
-48.8,1712124729859375
-47.71,1712124729875000
-42.86,1712124729890625
-34.73,1712124729906250
-24.25,1712124729921875
-12.6,1712124729937500
-0.92,1712124729953125
9.83,1712124729968750
18.95,1712124729984375
26.02,1712124730000000
30.89,1712124730015625
33.62,1712124730031250
34.49,1712124730046875
33.91,1712124730062500
32.35,1712124730078125
30.26,1712124730093750
28.02,1712124730109375
25.89,1712124730125000
23.98,1712124730140625
22.38,1712124730156250
21.12,1712124730171875
20.26,1712124730187500
19.88,1712124730203125
19.93,1712124730218750
20.27,1712124730234375
20.58,1712124730250000
20.45,1712124730265625
19.51,1712124730281250
17.58,1712124730296875
14.69,1712124730312500
11.07,1712124730328125
7.01,1712124730343750
2.78,1712124730359375
-1.47,1712124730375000
-5.7,1712124730390625
-9.99,1712124730406250
-14.49,1712124730421875
-19.42,1712124730437500
-24.99,1712124730453125
-31.19,1712124730468750
-37.62,1712124730484375
-43.38,1712124730500000
-47.19,1712124730515625
-47.77,1712124730531250
-44.34,1712124730546875
-36.96,1712124730562500
-26.63,1712124730578125
-14.9,1712124730593750
-3.32,1712124730609375
6.99,1712124730625000
15.52,1712124730640625
22.28,1712124730656250
27.42,1712124730671875
31.03,1712124730687500
33.09,1712124730703125
33.56,1712124730718750
32.63,1712124730734375
30.72,1712124730750000
28.39,1712124730765625
26.15,1712124730781250
24.3,1712124730796875
22.9,1712124730812500
21.85,1712124730828125
21.03,1712124730843750
20.39,1712124730859375
19.94,1712124730875000
19.63,1712124730890625
19.34,1712124730906250
18.81,1712124730921875
17.71,1712124730937500
15.74,1712124730953125
12.71,1712124730968750
8.66,1712124730984375
3.85,1712124731000000
-1.25,1712124731015625
-6.18,1712124731031250
-10.61,1712124731046875
-14.44,1712124731062500
-17.85,1712124731078125
-21.2,1712124731093750
-24.93,1712124731109375
-29.34,1712124731125000
-34.57,1712124731140625
-40.39,1712124731156250
-46.16,1712124731171875
-50.87,1712124731187500
-53.34,1712124731203125
-52.54,1712124731218750
-47.92,1712124731234375
-39.7,1712124731250000
-28.79,1712124731265625
-16.56,1712124731281250
-4.4,1712124731296875
6.61,1712124731312500
15.8,1712124731328125
22.91,1712124731343750
27.9,1712124731359375
30.83,1712124731375000
31.86,1712124731390625
31.27,1712124731406250
29.52,1712124731421875
27.15,1712124731437500
24.75,1712124731453125
22.8,1712124731468750
21.57,1712124731484375
21.12,1712124731500000
21.29,1712124731515625
21.78,1712124731531250
22.31,1712124731546875
22.63,1712124731562500
22.61,1712124731578125
22.2,1712124731593750
21.33,1712124731609375
19.92,1712124731625000
17.87,1712124731640625
15.11,1712124731656250
11.73,1712124731671875
7.91,1712124731687500
3.93,1712124731703125
0.04,1712124731718750
-3.65,1712124731734375
-7.19,1712124731750000
-10.84,1712124731765625
-14.96,1712124731781250
-19.89,1712124731796875
-25.77,1712124731812500
-32.38,1712124731828125
-39.1,1712124731843750
-44.87,1712124731859375
-48.52,1712124731875000
-49.0,1712124731890625
-45.78,1712124731906250
-38.97,1712124731921875
-29.29,1712124731937500
-17.84,1712124731953125
-5.79,1712124731968750
5.78,1712124731984375
16.04,1712124732000000
24.46,1712124732015625
30.71,1712124732031250
34.7,1712124732046875
36.52,1712124732062500
36.47,1712124732078125
34.97,1712124732093750
32.59,1712124732109375
29.94,1712124732125000
27.57,1712124732140625
25.81,1712124732156250
24.76,1712124732171875
24.3,1712124732187500
24.17,1712124732203125
24.18,1712124732218750
24.18,1712124732234375
24.11,1712124732250000
23.84,1712124732265625
23.2,1712124732281250
21.97,1712124732296875
20.0,1712124732312500
17.28,1712124732328125
13.96,1712124732343750
10.25,1712124732359375
6.32,1712124732375000
2.33,1712124732390625
-1.67,1712124732406250
-5.6,1712124732421875
-9.37,1712124732437500
-13.0,1712124732453125
-16.64,1712124732468750
-20.6,1712124732484375
-25.21,1712124732500000
-30.57,1712124732515625
-36.34,1712124732531250
-41.68,1712124732546875
-45.43,1712124732562500
-46.42,1712124732578125
-43.89,1712124732593750
-37.75,1712124732609375
-28.61,1712124732625000
-17.6,1712124732640625
-6.05,1712124732656250
4.91,1712124732671875
14.5,1712124732687500
22.32,1712124732703125
28.25,1712124732718750
32.26,1712124732734375
34.4,1712124732750000
34.83,1712124732765625
33.91,1712124732781250
32.14,1712124732796875
30.13,1712124732812500
28.26,1712124732828125
26.74,1712124732843750
25.53,1712124732859375
24.54,1712124732875000
23.7,1712124732890625
23.09,1712124732906250
22.83,1712124732921875
22.94,1712124732937500
23.24,1712124732953125
23.43,1712124732968750
23.16,1712124732984375
22.19,1712124733000000
20.42,1712124733015625
17.87,1712124733031250
14.63,1712124733046875
10.91,1712124733062500
6.9,1712124733078125
2.89,1712124733093750
-0.91,1712124733109375
-4.42,1712124733125000
-7.74,1712124733140625
-11.13,1712124733156250
-14.94,1712124733171875
-19.52,1712124733187500
-25.0,1712124733203125
-31.22,1712124733218750
-37.66,1712124733234375
-43.41,1712124733250000
-47.44,1712124733265625
-48.74,1712124733281250
-46.74,1712124733296875
-41.4,1712124733312500
-33.2,1712124733328125
-23.01,1712124733343750
-11.79,1712124733359375
-0.4,1712124733375000
10.36,1712124733390625
19.77,1712124733406250
27.23,1712124733421875
32.29,1712124733437500
34.88,1712124733453125
35.33,1712124733468750
34.29,1712124733484375
32.54,1712124733500000
30.67,1712124733515625
29.03,1712124733531250
27.72,1712124733546875
26.69,1712124733562500
25.87,1712124733578125
25.19,1712124733593750
24.59,1712124733609375
24.0,1712124733625000
23.3,1712124733640625
22.43,1712124733656250
21.36,1712124733671875
20.09,1712124733687500
18.55,1712124733703125
16.66,1712124733718750
14.31,1712124733734375
11.38,1712124733750000
7.87,1712124733765625
3.91,1712124733781250
-0.24,1712124733796875
-4.29,1712124733812500
-8.0,1712124733828125
-11.24,1712124733843750
-14.11,1712124733859375
-16.94,1712124733875000
-20.13,1712124733890625
-24.09,1712124733906250
-29.01,1712124733921875
-34.7,1712124733937500
-40.62,1712124733953125
-45.88,1712124733968750
-49.5,1712124733984375
-50.58,1712124734000000
-48.55,1712124734015625
-43.34,1712124734031250
-35.38,1712124734046875
-25.47,1712124734062500
-14.65,1712124734078125
-3.88,1712124734093750
6.01,1712124734109375
14.43,1712124734125000
20.92,1712124734140625
25.2,1712124734156250
27.12,1712124734171875
26.82,1712124734187500
24.78,1712124734203125
21.8,1712124734218750
18.77,1712124734234375
16.44,1712124734250000
15.24,1712124734265625
15.14,1712124734281250
15.85,1712124734296875
16.97,1712124734312500
18.14,1712124734328125
19.13,1712124734343750
19.82,1712124734359375
20.14,1712124734375000
20.03,1712124734390625
19.46,1712124734406250
18.46,1712124734421875
17.08,1712124734437500
15.36,1712124734453125
13.34,1712124734468750
10.98,1712124734484375
8.24,1712124734500000
5.07,1712124734515625
1.44,1712124734531250
-2.55,1712124734546875
-6.74,1712124734562500
-11.01,1712124734578125
-15.29,1712124734593750
-19.66,1712124734609375
-24.26,1712124734625000
-29.11,1712124734640625
-33.87,1712124734656250
-37.83,1712124734671875
-40.01,1712124734687500
-39.55,1712124734703125
-36.06,1712124734718750
-29.77,1712124734734375
-21.37,1712124734750000
-11.81,1712124734765625
-1.98,1712124734781250
7.47,1712124734796875
16.03,1712124734812500
23.28,1712124734828125
28.78,1712124734843750
32.14,1712124734859375
33.16,1712124734875000
31.99,1712124734890625
29.12,1712124734906250
25.34,1712124734921875
21.53,1712124734937500
18.46,1712124734953125
16.66,1712124734968750
16.22,1712124734984375
16.85,1712124735000000
18.03,1712124735015625
19.21,1712124735031250
20.0,1712124735046875
20.26,1712124735062500
20.01,1712124735078125
19.27,1712124735093750
17.98,1712124735109375
15.94,1712124735125000
12.97,1712124735140625
9.04,1712124735156250
4.38,1712124735171875
-0.55,1712124735187500
-5.24,1712124735203125
-9.35,1712124735218750
-12.86,1712124735234375
-16.07,1712124735250000
-19.52,1712124735265625
-23.8,1712124735281250
-29.3,1712124735296875
-36.0,1712124735312500
-43.45,1712124735328125
-50.72,1712124735343750
-56.65,1712124735359375
-60.11,1712124735375000
-60.23,1712124735390625
-56.66,1712124735406250
-49.66,1712124735421875
-39.96,1712124735437500
-28.67,1712124735453125
-16.95,1712124735468750
-5.76,1712124735484375
4.28,1712124735500000
12.92,1712124735515625
20.09,1712124735531250
25.77,1712124735546875
29.88,1712124735562500
32.29,1712124735578125
33.04,1712124735593750
32.39,1712124735609375
30.87,1712124735625000
29.1,1712124735640625
27.61,1712124735656250
26.61,1712124735671875
26.02,1712124735687500
25.57,1712124735703125
24.97,1712124735718750
24.1,1712124735734375
23.04,1712124735750000
21.99,1712124735765625
21.11,1712124735781250
20.43,1712124735796875
19.75,1712124735812500
18.69,1712124735828125
16.79,1712124735843750
13.72,1712124735859375
9.43,1712124735875000
4.21,1712124735890625
-1.34,1712124735906250
-6.61,1712124735921875
-11.17,1712124735937500
-14.93,1712124735953125
-18.19,1712124735968750
-21.45,1712124735984375
-25.24,1712124736000000
-29.93,1712124736015625
-35.62,1712124736031250
-42.03,1712124736046875
-48.53,1712124736062500
-54.16,1712124736078125
-57.78,1712124736093750
-58.39,1712124736109375
-55.4,1712124736125000
-48.84,1712124736140625
-39.42,1712124736156250
-28.21,1712124736171875
-16.41,1712124736187500
-5.03,1712124736203125
5.26,1712124736218750
14.06,1712124736234375
21.1,1712124736250000
26.2,1712124736265625
29.23,1712124736281250
30.31,1712124736296875
29.8,1712124736312500
28.34,1712124736328125
26.7,1712124736343750
25.52,1712124736359375
25.15,1712124736375000
25.51,1712124736390625
26.23,1712124736406250
26.83,1712124736421875
26.96,1712124736437500
26.56,1712124736453125
25.85,1712124736468750
25.18,1712124736484375
24.79,1712124736500000
24.63,1712124736515625
24.39,1712124736531250
23.65,1712124736546875
22.07,1712124736562500
19.54,1712124736578125
16.18,1712124736593750
12.24,1712124736609375
8.0,1712124736625000
3.63,1712124736640625
-0.69,1712124736656250
-4.87,1712124736671875
-8.81,1712124736687500
-12.55,1712124736703125
-16.25,1712124736718750
-20.21,1712124736734375
-24.81,1712124736750000
-30.27,1712124736765625
-36.5,1712124736781250
-42.96,1712124736796875
-48.72,1712124736812500
-52.62,1712124736828125
-53.61,1712124736843750
-51.09,1712124736859375
-45.05,1712124736875000
-36.17,1712124736890625
-25.53,1712124736906250
-14.39,1712124736921875
-3.84,1712124736937500
5.37,1712124736953125
12.85,1712124736968750
18.48,1712124736984375
22.28,1712124737000000
24.39,1712124737015625
25.05,1712124737031250
24.61,1712124737046875
23.5,1712124737062500
22.16,1712124737078125
20.98,1712124737093750
20.18,1712124737109375
19.86,1712124737125000
19.97,1712124737140625
20.4,1712124737156250
20.97,1712124737171875
21.52,1712124737187500
21.93,1712124737203125
22.14,1712124737218750
22.12,1712124737234375
21.87,1712124737250000
21.3,1712124737265625
20.28,1712124737281250
18.63,1712124737296875
16.21,1712124737312500
13.06,1712124737328125
9.37,1712124737343750
5.45,1712124737359375
1.59,1712124737375000
-2.03,1712124737390625
-5.33,1712124737406250
-8.42,1712124737421875
-11.41,1712124737437500
-14.49,1712124737453125
-17.84,1712124737468750
-21.62,1712124737484375
-25.95,1712124737500000
-30.74,1712124737515625
-35.6,1712124737531250
-39.79,1712124737546875
-42.36,1712124737562500
-42.46,1712124737578125
-39.58,1712124737593750
-33.75,1712124737609375
-25.58,1712124737625000
-15.96,1712124737640625
-5.9,1712124737656250
3.8,1712124737671875
12.55,1712124737687500
19.92,1712124737703125
25.6,1712124737718750
29.31,1712124737734375
30.95,1712124737750000
30.65,1712124737765625
28.87,1712124737781250
26.34,1712124737796875
23.87,1712124737812500
22.14,1712124737828125
21.44,1712124737843750
21.68,1712124737859375
22.44,1712124737875000
23.24,1712124737890625
23.66,1712124737906250
23.51,1712124737921875
22.82,1712124737937500
21.74,1712124737953125
20.45,1712124737968750
19.05,1712124737984375
17.56,1712124738000000
15.83,1712124738015625
13.69,1712124738031250
10.92,1712124738046875
7.42,1712124738062500
3.22,1712124738078125
-1.45,1712124738093750
-6.24,1712124738109375
-10.8,1712124738125000
-14.88,1712124738140625
-18.49,1712124738156250
-21.85,1712124738171875
-25.42,1712124738187500
-29.63,1712124738203125
-34.77,1712124738218750
-40.8,1712124738234375
-47.22,1712124738250000
-53.16,1712124738265625
-57.51,1712124738281250
-59.26,1712124738296875
-57.73,1712124738312500
-52.79,1712124738328125
-44.85,1712124738343750
-34.68,1712124738359375
-23.25,1712124738375000
-11.53,1712124738390625
-0.35,1712124738406250
9.6,1712124738421875
17.78,1712124738437500
23.87,1712124738453125
27.76,1712124738468750
29.61,1712124738484375
29.8,1712124738500000
28.87,1712124738515625
27.39,1712124738531250
25.85,1712124738546875
24.6,1712124738562500
23.8,1712124738578125
23.47,1712124738593750
23.49,1712124738609375
23.69,1712124738625000
23.92,1712124738640625
24.07,1712124738656250
24.08,1712124738671875
23.95,1712124738687500
23.63,1712124738703125
23.05,1712124738718750
22.12,1712124738734375
20.72,1712124738750000
18.77,1712124738765625
16.21,1712124738781250
13.04,1712124738796875
9.31,1712124738812500
5.13,1712124738828125
0.7,1712124738843750
-3.77,1712124738859375
-8.08,1712124738875000
-12.17,1712124738890625
-16.03,1712124738906250
-19.81,1712124738921875
-23.66,1712124738937500
-27.78,1712124738953125
-32.3,1712124738968750
-37.28,1712124738984375
-42.57,1712124739000000
-47.74,1712124739015625
-52.11,1712124739031250
-54.75,1712124739046875
-54.8,1712124739062500
-51.67,1712124739078125
-45.27,1712124739093750
-36.1,1712124739109375
-25.09,1712124739125000
-13.42,1712124739140625
-2.21,1712124739156250
7.67,1712124739171875
15.73,1712124739187500
21.81,1712124739203125
26.06,1712124739218750
28.78,1712124739234375
30.29,1712124739250000
30.83,1712124739265625
30.6,1712124739281250
29.78,1712124739296875
28.59,1712124739312500
27.39,1712124739328125
26.5,1712124739343750
26.12,1712124739359375
26.26,1712124739375000
26.69,1712124739390625
27.11,1712124739406250
27.22,1712124739421875
26.9,1712124739437500
26.13,1712124739453125
25.02,1712124739468750
23.6,1712124739484375
21.86,1712124739500000
19.76,1712124739515625
17.23,1712124739531250
14.28,1712124739546875
10.93,1712124739562500
7.26,1712124739578125
3.39,1712124739593750
-0.6,1712124739609375
-4.59,1712124739625000
-8.54,1712124739640625
-12.41,1712124739656250
-16.24,1712124739671875
-20.1,1712124739687500
-24.12,1712124739703125
-28.42,1712124739718750
-33.14,1712124739734375
-38.26,1712124739750000
-43.53,1712124739765625
-48.38,1712124739781250
-51.96,1712124739796875
-53.35,1712124739812500
-51.85,1712124739828125
-47.25,1712124739843750
-39.9,1712124739859375
-30.63,1712124739875000
-20.47,1712124739890625
-10.35,1712124739906250
-0.93,1712124739921875
7.36,1712124739937500
14.26,1712124739953125
19.57,1712124739968750
23.14,1712124739984375
24.93,1712124740000000
25.14,1712124740015625
24.19,1712124740031250
22.64,1712124740046875
21.07,1712124740062500
19.89,1712124740078125
19.31,1712124740093750
19.35,1712124740109375
19.86,1712124740125000
20.64,1712124740140625
21.46,1712124740156250
22.08,1712124740171875
22.35,1712124740187500
22.18,1712124740203125
21.6,1712124740218750
20.68,1712124740234375
19.5,1712124740250000
18.1,1712124740265625
16.43,1712124740281250
14.42,1712124740296875
12.04,1712124740312500
9.34,1712124740328125
6.37,1712124740343750
3.25,1712124740359375
0.02,1712124740375000
-3.31,1712124740390625
-6.68,1712124740406250
-9.99,1712124740421875
-13.1,1712124740437500
-15.95,1712124740453125
-18.61,1712124740468750
-21.4,1712124740484375
-24.71,1712124740500000
-28.8,1712124740515625
-33.52,1712124740531250
-38.24,1712124740546875
-41.93,1712124740562500
-43.46,1712124740578125
-42.01,1712124740593750
-37.29,1712124740609375
-29.74,1712124740625000
-20.24,1712124740640625
-9.9,1712124740656250
0.28,1712124740671875
9.51,1712124740687500
17.36,1712124740703125
23.53,1712124740718750
27.84,1712124740734375
30.25,1712124740750000
30.79,1712124740765625
29.74,1712124740781250
27.58,1712124740796875
24.96,1712124740812500
22.45,1712124740828125
20.53,1712124740843750
19.39,1712124740859375
19.0,1712124740875000
19.15,1712124740890625
19.57,1712124740906250
19.97,1712124740921875
20.14,1712124740937500
19.95,1712124740953125
19.33,1712124740968750
18.3,1712124740984375
16.92,1712124741000000
15.22,1712124741015625
13.22,1712124741031250
10.84,1712124741046875
8.0,1712124741062500
4.61,1712124741078125
0.74,1712124741093750
-3.45,1712124741109375
-7.65,1712124741125000
-11.57,1712124741140625
-15.06,1712124741156250
-18.11,1712124741171875
-20.94,1712124741187500
-23.81,1712124741203125
-27.05,1712124741218750
-30.9,1712124741234375
-35.5,1712124741250000
-40.78,1712124741265625
-46.39,1712124741281250
-51.75,1712124741296875
-55.99,1712124741312500
-58.16,1712124741328125
-57.47,1712124741343750
-53.53,1712124741359375
-46.47,1712124741375000
-36.9,1712124741390625
-25.77,1712124741406250
-14.12,1712124741421875
-2.9,1712124741437500
7.13,1712124741453125
15.4,1712124741468750
21.64,1712124741484375
25.77,1712124741500000
28.02,1712124741515625
28.78,1712124741531250
28.51,1712124741546875
27.66,1712124741562500
26.57,1712124741578125
25.48,1712124741593750
24.55,1712124741609375
23.9,1712124741625000
23.61,1712124741640625
23.64,1712124741656250
23.88,1712124741671875
24.17,1712124741687500
24.31,1712124741703125
24.18,1712124741718750
23.73,1712124741734375
22.95,1712124741750000
21.83,1712124741765625
20.36,1712124741781250
18.54,1712124741796875
16.36,1712124741812500
13.83,1712124741828125
10.93,1712124741843750
7.59,1712124741859375
3.77,1712124741875000
-0.49,1712124741890625
-4.98,1712124741906250
-9.4,1712124741921875
-13.46,1712124741937500
-17.04,1712124741953125
-20.25,1712124741968750
-23.42,1712124741984375
-26.97,1712124742000000
-31.25,1712124742015625
-36.4,1712124742031250
-42.22,1712124742046875
-48.13,1712124742062500
-53.2,1712124742078125
-56.34,1712124742093750
-56.61,1712124742109375
-53.45,1712124742125000
-46.96,1712124742140625
-37.8,1712124742156250
-27.1,1712124742171875
-16.04,1712124742187500
-5.65,1712124742203125
3.44,1712124742218750
10.93,1712124742234375
16.73,1712124742250000
20.91,1712124742265625
23.61,1712124742281250
25.04,1712124742296875
25.49,1712124742312500
25.3,1712124742328125
24.79,1712124742343750
24.21,1712124742359375
23.69,1712124742375000
23.28,1712124742390625
22.96,1712124742406250
22.7,1712124742421875
22.45,1712124742437500
22.17,1712124742453125
21.9,1712124742468750
21.65,1712124742484375
21.48,1712124742500000
21.37,1712124742515625
21.18,1712124742531250
20.66,1712124742546875
19.52,1712124742562500
17.55,1712124742578125
14.73,1712124742593750
11.25,1712124742609375
7.46,1712124742625000
3.7,1712124742640625
0.22,1712124742656250
-2.95,1712124742671875
-5.84,1712124742687500
-8.57,1712124742703125
-11.18,1712124742718750
-13.71,1712124742734375
-16.19,1712124742750000
-18.8,1712124742765625
-21.83,1712124742781250
-25.57,1712124742796875
-30.14,1712124742812500
-35.28,1712124742828125
-40.34,1712124742843750
-44.35,1712124742859375
-46.31,1712124742875000
-45.49,1712124742890625
-41.63,1712124742906250
-35.01,1712124742921875
-26.3,1712124742937500
-16.4,1712124742953125
-6.19,1712124742968750
3.52,1712124742984375
12.09,1712124743000000
19.08,1712124743015625
24.25,1712124743031250
27.59,1712124743046875
29.24,1712124743062500
29.46,1712124743078125
28.57,1712124743093750
26.9,1712124743109375
24.82,1712124743125000
22.74,1712124743140625
20.99,1712124743156250
19.82,1712124743171875
19.32,1712124743187500
19.37,1712124743203125
19.75,1712124743218750
20.19,1712124743234375
20.45,1712124743250000
20.34,1712124743265625
19.79,1712124743281250
18.82,1712124743296875
17.46,1712124743312500
15.79,1712124743328125
13.85,1712124743343750
11.6,1712124743359375
8.98,1712124743375000
5.91,1712124743390625
2.37,1712124743406250
-1.52,1712124743421875
-5.56,1712124743437500
-9.51,1712124743453125
-13.21,1712124743468750
-16.66,1712124743484375
-19.96,1712124743500000
-23.35,1712124743515625
-27.0,1712124743531250
-31.12,1712124743546875
-35.81,1712124743562500
-41.03,1712124743578125
-46.51,1712124743593750
-51.66,1712124743609375
-55.59,1712124743625000
-57.31,1712124743640625
-56.06,1712124743656250
-51.5,1712124743671875
-43.94,1712124743687500
-34.2,1712124743703125
-23.35,1712124743718750
-12.45,1712124743734375
-2.29,1712124743750000
6.62,1712124743765625
14.05,1712124743781250
19.88,1712124743796875
24.1,1712124743812500
26.75,1712124743828125
28.01,1712124743843750
28.17,1712124743859375
27.59,1712124743875000
26.66,1712124743890625
25.68,1712124743906250
24.88,1712124743921875
24.31,1712124743937500
23.95,1712124743953125
23.7,1712124743968750
23.47,1712124743984375
23.24,1712124744000000
22.99,1712124744015625
22.75,1712124744031250
22.46,1712124744046875
21.97,1712124744062500
21.06,1712124744078125
19.52,1712124744093750
17.24,1712124744109375
14.3,1712124744125000
10.93,1712124744140625
7.44,1712124744156250
4.06,1712124744171875
0.9,1712124744187500
-2.13,1712124744203125
-5.17,1712124744218750
-8.37,1712124744234375
-11.76,1712124744250000
-15.3,1712124744265625
-18.89,1712124744281250
-22.52,1712124744296875
-26.31,1712124744312500
-30.49,1712124744328125
-35.33,1712124744343750
-40.93,1712124744359375
-47.06,1712124744375000
-53.1,1712124744390625
-58.05,1712124744406250
-60.8,1712124744421875
-60.46,1712124744437500
-56.68,1712124744453125
-49.75,1712124744468750
-40.53,1712124744484375
-30.12,1712124744500000
-19.54,1712124744515625
-9.52,1712124744531250
-0.44,1712124744546875
7.46,1712124744562500
14.02,1712124744578125
19.04,1712124744593750
22.36,1712124744609375
23.99,1712124744625000
24.14,1712124744640625
23.25,1712124744656250
21.83,1712124744671875
20.37,1712124744687500
19.26,1712124744703125
18.78,1712124744718750
19.03,1712124744734375
19.97,1712124744750000
21.36,1712124744765625
22.86,1712124744781250
24.08,1712124744796875
24.78,1712124744812500
24.87,1712124744828125
24.43,1712124744843750
23.62,1712124744859375
22.55,1712124744875000
21.21,1712124744890625
19.53,1712124744906250
17.45,1712124744921875
15.01,1712124744937500
12.29,1712124744953125
9.41,1712124744968750
6.43,1712124744984375
3.31,1712124745000000
0.02,1712124745015625
-3.43,1712124745031250
-6.92,1712124745046875
-10.29,1712124745062500
-13.5,1712124745078125
-16.62,1712124745093750
-19.95,1712124745109375
-23.76,1712124745125000
-28.22,1712124745140625
-33.16,1712124745156250
-38.05,1712124745171875
-42.07,1712124745187500
-44.33,1712124745203125
-44.1,1712124745218750
-41.02,1712124745234375
-35.13,1712124745250000
-26.88,1712124745265625
-17.09,1712124745281250
-6.73,1712124745296875
3.19,1712124745312500
11.85,1712124745328125
18.73,1712124745343750
23.7,1712124745359375
26.93,1712124745375000
28.7,1712124745390625
29.32,1712124745406250
28.94,1712124745421875
27.74,1712124745437500
25.93,1712124745453125
23.91,1712124745468750
22.15,1712124745484375
21.07,1712124745500000
20.86,1712124745515625
21.39,1712124745531250
22.3,1712124745546875
23.18,1712124745562500
23.69,1712124745578125
23.72,1712124745593750
23.28,1712124745609375
22.45,1712124745625000
21.2,1712124745640625
19.5,1712124745656250
17.27,1712124745671875
14.53,1712124745687500
11.41,1712124745703125
8.08,1712124745718750
4.7,1712124745734375
1.33,1712124745750000
-2.08,1712124745765625
-5.64,1712124745781250
-9.38,1712124745796875
-13.23,1712124745812500
-17.04,1712124745828125
-20.68,1712124745843750
-24.23,1712124745859375
-27.95,1712124745875000
-32.27,1712124745890625
-37.48,1712124745906250
-43.52,1712124745921875
-49.82,1712124745937500
-55.37,1712124745953125
-59.03,1712124745968750
-59.87,1712124745984375
-57.44,1712124746000000
-51.89,1712124746015625
-43.81,1712124746031250
-34.03,1712124746046875
-23.41,1712124746062500
-12.67,1712124746078125
-2.42,1712124746093750
6.81,1712124746109375
14.58,1712124746125000
20.55,1712124746140625
24.6,1712124746156250
26.83,1712124746171875
27.56,1712124746187500
27.27,1712124746203125
26.46,1712124746218750
25.55,1712124746234375
24.83,1712124746250000
24.42,1712124746265625
24.36,1712124746281250
24.6,1712124746296875
25.1,1712124746312500
25.82,1712124746328125
26.72,1712124746343750
27.67,1712124746359375
28.43,1712124746375000
28.77,1712124746390625
28.45,1712124746406250
27.37,1712124746421875
25.56,1712124746437500
23.16,1712124746453125
20.32,1712124746468750
17.2,1712124746484375
13.88,1712124746500000
10.41,1712124746515625
6.84,1712124746531250
3.2,1712124746546875
-0.45,1712124746562500
-4.09,1712124746578125
-7.67,1712124746593750
-11.18,1712124746609375
-14.63,1712124746625000
-18.08,1712124746640625
-21.71,1712124746656250
-25.77,1712124746671875
-30.53,1712124746687500
-36.05,1712124746703125
-42.09,1712124746718750
-47.95,1712124746734375
-52.59,1712124746750000
-54.9,1712124746765625
-53.97,1712124746781250
-49.43,1712124746796875
-41.54,1712124746812500
-31.2,1712124746828125
-19.61,1712124746843750
-8.04,1712124746859375
2.48,1712124746875000
11.36,1712124746890625
18.34,1712124746906250
23.49,1712124746921875
26.96,1712124746937500
28.97,1712124746953125
29.77,1712124746968750
29.67,1712124746984375
29.03,1712124747000000
28.22,1712124747015625
27.54,1712124747031250
27.12,1712124747046875
26.97,1712124747062500
27.01,1712124747078125
27.14,1712124747093750
27.32,1712124747109375
27.5,1712124747125000
27.6,1712124747140625
27.5,1712124747156250
27.05,1712124747171875
26.14,1712124747187500
24.76,1712124747203125
22.95,1712124747218750
20.79,1712124747234375
18.29,1712124747250000
15.44,1712124747265625
12.2,1712124747281250
8.61,1712124747296875
4.8,1712124747312500
0.93,1712124747328125
-2.81,1712124747343750
-6.33,1712124747359375
-9.62,1712124747375000
-12.8,1712124747390625
-16.0,1712124747406250
-19.42,1712124747421875
-23.24,1712124747437500
-27.6,1712124747453125
-32.54,1712124747468750
-37.9,1712124747484375
-43.27,1712124747500000
-47.96,1712124747515625
-51.16,1712124747531250
-52.03,1712124747546875
-50.03,1712124747562500
-45.01,1712124747578125
-37.31,1712124747593750
-27.68,1712124747609375
-17.04,1712124747625000
-6.36,1712124747640625
3.54,1712124747656250
12.03,1712124747671875
18.75,1712124747687500
23.54,1712124747703125
26.41,1712124747718750
27.51,1712124747734375
27.1,1712124747750000
25.61,1712124747765625
23.51,1712124747781250
21.33,1712124747796875
19.58,1712124747812500
18.57,1712124747828125
18.46,1712124747843750
19.09,1712124747859375
20.21,1712124747875000
21.44,1712124747890625
22.49,1712124747906250
23.18,1712124747921875
23.48,1712124747937500
23.39,1712124747953125
22.97,1712124747968750
22.2,1712124747984375
21.03,1712124748000000
19.38,1712124748015625
17.19,1712124748031250
14.49,1712124748046875
11.4,1712124748062500
8.12,1712124748078125
4.83,1712124748093750
1.69,1712124748109375
-1.29,1712124748125000
-4.21,1712124748140625
-7.2,1712124748156250
-10.41,1712124748171875
-13.96,1712124748187500
-17.95,1712124748203125
-22.39,1712124748218750
-27.26,1712124748234375
-32.32,1712124748250000
-37.06,1712124748265625
-40.74,1712124748281250
-42.5,1712124748296875
-41.63,1712124748312500
-37.79,1712124748328125
-31.18,1712124748343750
-22.45,1712124748359375
-12.57,1712124748375000
-2.52,1712124748390625
6.87,1712124748406250
15.04,1712124748421875
21.64,1712124748437500
26.5,1712124748453125
29.55,1712124748468750
30.78,1712124748484375
30.36,1712124748500000
28.56,1712124748515625
25.86,1712124748531250
22.83,1712124748546875
20.05,1712124748562500
17.99,1712124748578125
16.88,1712124748593750
16.67,1712124748609375
17.1,1712124748625000
17.78,1712124748640625
18.34,1712124748656250
18.58,1712124748671875
18.45,1712124748687500
18.01,1712124748703125
17.32,1712124748718750
16.39,1712124748734375
15.1,1712124748750000
13.29,1712124748765625
10.82,1712124748781250
7.69,1712124748796875
4.0,1712124748812500
0.02,1712124748828125
-4.01,1712124748843750
-7.88,1712124748859375
-11.54,1712124748875000
-15.01,1712124748890625
-18.41,1712124748906250
-21.82,1712124748921875
-25.39,1712124748937500
-29.28,1712124748953125
-33.7,1712124748968750
-38.86,1712124748984375
-44.7,1712124749000000
-50.78,1712124749015625
-56.19,1712124749031250
-59.73,1712124749046875
-60.25,1712124749062500
-57.09,1712124749078125
-50.31,1712124749093750
-40.62,1712124749109375
-29.17,1712124749125000
-17.17,1712124749140625
-5.68,1712124749156250
4.54,1712124749171875
13.02,1712124749187500
19.48,1712124749203125
23.88,1712124749218750
26.33,1712124749234375
27.12,1712124749250000
26.65,1712124749265625
25.33,1712124749281250
23.55,1712124749296875
21.66,1712124749312500
20.03,1712124749328125
19.01,1712124749343750
18.87,1712124749359375
19.69,1712124749375000
21.31,1712124749390625
23.34,1712124749406250
25.34,1712124749421875
26.9,1712124749437500
27.81,1712124749453125
28.13,1712124749468750
28.18,1712124749484375
28.44,1712124749500000
29.41,1712124749515625
31.48,1712124749531250
34.68,1712124749546875
38.67,1712124749562500
42.67,1712124749578125
45.71,1712124749593750
46.81,1712124749609375
45.32,1712124749625000
41.05,1712124749640625
34.28,1712124749656250
25.62,1712124749671875
15.7,1712124749687500
5.05,1712124749703125
-6.0,1712124749718750
-17.29,1712124749734375
-28.68,1712124749750000
-39.88,1712124749765625
-50.43,1712124749781250
-59.67,1712124749796875
-66.81,1712124749812500
-71.17,1712124749828125
-72.33,1712124749843750
-70.21,1712124749859375
-65.1,1712124749875000
-57.69,1712124749890625
-48.8,1712124749906250
-39.38,1712124749921875
-30.29,1712124749937500
-22.18,1712124749953125
-15.54,1712124749968750
-10.61,1712124749984375
-7.46,1712124750000000
-5.95,1712124750015625
-5.84,1712124750031250
-6.71,1712124750046875
-8.03,1712124750062500
-9.25,1712124750078125
-9.89,1712124750093750
-9.69,1712124750109375
-8.64,1712124750125000
-6.99,1712124750140625
-5.08,1712124750156250
-3.22,1712124750171875
-1.58,1712124750187500
-0.18,1712124750203125
0.99,1712124750218750
1.97,1712124750234375
2.66,1712124750250000
2.86,1712124750265625
2.37,1712124750281250
1.04,1712124750296875
-1.14,1712124750312500
-3.97,1712124750328125
-7.17,1712124750343750
-10.42,1712124750359375
-13.53,1712124750375000
-16.48,1712124750390625
-19.35,1712124750406250
-22.2,1712124750421875
-25.02,1712124750437500
-27.74,1712124750453125
-30.3,1712124750468750
-32.74,1712124750484375
-35.19,1712124750500000
-37.62,1712124750515625
-39.74,1712124750531250
-40.91,1712124750546875
-40.34,1712124750562500
-37.46,1712124750578125
-32.22,1712124750593750
-25.2,1712124750609375
-17.37,1712124750625000
-9.73,1712124750640625
-2.95,1712124750656250
2.81,1712124750671875
7.69,1712124750687500
11.9,1712124750703125
15.37,1712124750718750
17.79,1712124750734375
18.67,1712124750750000
17.67,1712124750765625
14.84,1712124750781250
10.71,1712124750796875
6.05,1712124750812500
1.69,1712124750828125
-1.88,1712124750843750
-4.58,1712124750859375
-6.64,1712124750875000
-8.4,1712124750890625
-10.01,1712124750906250
-11.32,1712124750921875
-11.87,1712124750937500
-11.14,1712124750953125
-8.73,1712124750968750
-4.47,1712124750984375
1.67,1712124751000000
9.64,1712124751015625
19.41,1712124751031250
30.86,1712124751046875
43.55,1712124751062500
56.63,1712124751078125
68.83,1712124751093750
78.79,1712124751109375
85.34,1712124751125000
87.83,1712124751140625
86.07,1712124751156250
80.1,1712124751171875
70.01,1712124751187500
55.81,1712124751203125
37.8,1712124751218750
16.9,1712124751234375
-5.21,1712124751250000
-26.3,1712124751265625
-44.2,1712124751281250
-57.19,1712124751296875
-64.4,1712124751312500
-65.7,1712124751328125
-61.56,1712124751343750
-52.85,1712124751359375
-40.71,1712124751375000
-26.38,1712124751390625
-11.08,1712124751406250
4.15,1712124751421875
18.6,1712124751437500
31.84,1712124751453125
43.62,1712124751468750
53.81,1712124751484375
62.3,1712124751500000
68.98,1712124751515625
73.71,1712124751531250
76.26,1712124751546875
76.29,1712124751562500
73.56,1712124751578125
68.38,1712124751593750
61.88,1712124751609375
56.18,1712124751625000
53.69,1712124751640625
56.07,1712124751656250
63.33,1712124751671875
73.57,1712124751687500
83.63,1712124751703125
90.41,1712124751718750
92.1,1712124751734375
88.88,1712124751750000
82.65,1712124751765625
76.18,1712124751781250
71.86,1712124751796875
70.74,1712124751812500
72.16,1712124751828125
74.04,1712124751843750
73.82,1712124751859375
69.69,1712124751875000
61.74,1712124751890625
52.33,1712124751906250
45.52,1712124751921875
45.56,1712124751937500
55.12,1712124751953125
74.11,1712124751968750
99.63,1712124751984375
127.13,1712124752000000
152.05,1712124752015625
171.11,1712124752031250
182.48,1712124752046875
185.4,1712124752062500
179.4,1712124752078125
164.08,1712124752093750
139.56,1712124752109375
107.11,1712124752125000
69.54,1712124752140625
30.83,1712124752156250
-4.93,1712124752171875
-34.72,1712124752187500
-57.43,1712124752203125
-73.86,1712124752218750
-86.16,1712124752234375
-96.97,1712124752250000
-108.53,1712124752265625
-122.16,1712124752281250
-138.05,1712124752296875
-155.53,1712124752312500
-173.38,1712124752328125
-190.33,1712124752343750
-205.41,1712124752359375
-218.08,1712124752375000
-228.2,1712124752390625
-235.85,1712124752406250
-241.16,1712124752421875
-244.25,1712124752437500
-245.24,1712124752453125
-244.32,1712124752468750
-241.6,1712124752484375
-237.04,1712124752500000
-230.16,1712124752515625
-220.27,1712124752531250
-206.75,1712124752546875
-189.61,1712124752562500
-169.72,1712124752578125
-148.73,1712124752593750
-128.48,1712124752609375
-110.19,1712124752625000
-93.89,1712124752640625
-78.5,1712124752656250
-62.22,1712124752671875
-43.47,1712124752687500
-21.59,1712124752703125
2.71,1712124752718750
