phoneTimestamp,sensorTimestamp,ecg
1711037375607,599616057729745604,20064
1711037375614,599616057737410290,20064
1711037375622,599616057745074976,20064
1711037375629,599616057752739662,20064
1711037375637,599616057760404348,20064
1711037375645,599616057768069034,20064
1711037375652,599616057775733720,20064
1711037375660,599616057783398406,20064
1711037375668,599616057791063092,20064
1711037375675,599616057798727778,20064
1711037375683,599616057806392464,20064
1711037375691,599616057814057150,20064
1711037375697,599616057821721836,20064
1711037375705,599616057829386522,20064
1711037375713,599616057837051208,20064
1711037375721,599616057844715894,20064
1711037375729,599616057852380580,20064
1711037375737,599616057860045266,20064
1711037375744,599616057867709952,20064
1711037375752,599616057875374638,20064
1711037375760,599616057883039324,20064
1711037375767,599616057890704010,20064
1711037375775,599616057898368696,20064
1711037375783,599616057906033382,20064
1711037375790,599616057913698068,20064
1711037375798,599616057921362754,20064
1711037375806,599616057929027440,20064
1711037375813,599616057936692126,20064
1711037375821,599616057944356812,20064
1711037375829,599616057952021498,20064
1711037375836,599616057959686184,20064
1711037375844,599616057967350870,20064
1711037375852,599616057975015556,20064
1711037375859,599616057982680242,20064
1711037375867,599616057990344928,20064
1711037375875,599616057998009614,20064
1711037375881,599616058005674300,20064
1711037375889,599616058013338986,20064
1711037375897,599616058021003672,20064
1711037375905,599616058028668358,20064
1711037375913,599616058036333044,20064
1711037375921,599616058043997730,20064
1711037375928,599616058051662416,20064
1711037375936,599616058059327102,20064
1711037375944,599616058066991788,20064
1711037375951,599616058074656474,20064
1711037375959,599616058082321160,20064
1711037375967,599616058089985846,20064
1711037375974,599616058097650532,20064
1711037375982,599616058105315218,20064
1711037375990,599616058112979904,20064
1711037375997,599616058120644590,20064
1711037376005,599616058128309276,20064
1711037376013,599616058135973962,20064
1711037376020,599616058143638648,20064
1711037376028,599616058151303334,20064
1711037376036,599616058158968020,20064
1711037376043,599616058166632706,20064
1711037376051,599616058174297392,20064
1711037376059,599616058181962078,20064
1711037376065,599616058189626764,20064
1711037376073,599616058197291450,20064
1711037376081,599616058204956136,20064
1711037376089,599616058212620822,20064
1711037376097,599616058220285508,20064
1711037376105,599616058227950194,20064
1711037376112,599616058235614880,20064
1711037376120,599616058243279566,20064
1711037376128,599616058250944252,20064
1711037376135,599616058258608938,20064
1711037376143,599616058266273624,20064
1711037376151,599616058273938310,20064
1711037376158,599616058281602996,20064
1711037376166,599616058289297798,20064
1711037376174,599616058296962066,20064
1711037376181,599616058304626334,20064
1711037376189,599616058312290602,20064
1711037376197,599616058319954870,20064
1711037376204,599616058327619138,20064
1711037376212,599616058335283406,20064
1711037376220,599616058342947674,20064
1711037376227,599616058350611942,20064
1711037376235,599616058358276210,20064
1711037376243,599616058365940478,20064
1711037376249,599616058373604746,20064
1711037376257,599616058381269014,20064
1711037376265,599616058388933282,20064
1711037376273,599616058396597550,20064
1711037376281,599616058404261818,20064
1711037376289,599616058411926086,20064
1711037376296,599616058419590354,20064
1711037376304,599616058427254622,20064
1711037376312,599616058434918890,20064
1711037376319,599616058442583158,20064
1711037376327,599616058450247426,20064
1711037376335,599616058457911694,20064
1711037376342,599616058465575962,20064
1711037376350,599616058473240230,20064
1711037376358,599616058480904498,20064
1711037376365,599616058488568766,20064
1711037376373,599616058496233034,20064
1711037376381,599616058503897302,20064
1711037376388,599616058511561570,20064
1711037376396,599616058519225838,20064
1711037376404,599616058526890106,20064
1711037376411,599616058534554374,20064
1711037376419,599616058542218642,20064
1711037376427,599616058549882910,20064
1711037376433,599616058557547178,20064
1711037376441,599616058565211446,20064
1711037376449,599616058572875714,20064
1711037376457,599616058580539982,20064
1711037376465,599616058588204250,20064
1711037376473,599616058595868518,20064
1711037376480,599616058603532786,20064
1711037376488,599616058611197054,20064
1711037376496,599616058618861322,20064
1711037376503,599616058626525590,20064
1711037376511,599616058634189858,20064
1711037376519,599616058641854126,20064
1711037376526,599616058649518394,20064
1711037376534,599616058657182662,20064
1711037376542,599616058664846930,20064
1711037376549,599616058672511198,20064
1711037376557,599616058680175466,20064
1711037376565,599616058687839734,20064
1711037376572,599616058695504002,20064
1711037376580,599616058703168270,20064
1711037376588,599616058710832538,20064
1711037376595,599616058718496806,20064
1711037376603,599616058726161074,20064
1711037376611,599616058733825342,20064
1711037376617,599616058741489610,20064
1711037376625,599616058749153878,20064
1711037376633,599616058756818146,20064
1711037376641,599616058764482414,20064
1711037376649,599616058772146682,20064
1711037376657,599616058779810950,20064
1711037376664,599616058787475218,20064
1711037376672,599616058795139486,20064
1711037376680,599616058802803754,20064
1711037376687,599616058810468022,20064
1711037376695,599616058818132290,20064
1711037376703,599616058825796558,20064
1711037376710,599616058833460826,20064
1711037376718,599616058841125094,20064
1711037376726,599616058848759282,20064
1711037376733,599616058856423968,20064
1711037376741,599616058864088654,20064
1711037376749,599616058871753340,20064
1711037376756,599616058879418026,20064
1711037376764,599616058887082712,20064
1711037376772,599616058894747398,20064
1711037376779,599616058902412084,20064
1711037376787,599616058910076770,20064
1711037376793,599616058917741456,20064
1711037376801,599616058925406142,20064
1711037376809,599616058933070828,20064
1711037376817,599616058940735514,20064
1711037376825,599616058948400200,20064
1711037376833,599616058956064886,20064
1711037376840,599616058963729572,20064
1711037376848,599616058971394258,20064
1711037376856,599616058979058944,20064
1711037376863,599616058986723630,20064
1711037376871,599616058994388316,20064
1711037376879,599616059002053002,20064
1711037376886,599616059009717688,20064
1711037376894,599616059017382374,20064
1711037376902,599616059025047060,20064
1711037376909,599616059032711746,20064
1711037376917,599616059040376432,20064
1711037376925,599616059048041118,20064
1711037376932,599616059055705804,20064
1711037376940,599616059063370490,20064
1711037376948,599616059071035176,20064
1711037376955,599616059078699862,20064
1711037376963,599616059086364548,20064
1711037376971,599616059094029234,20064
1711037376977,599616059101693920,20064
1711037376985,599616059109358606,20064
1711037376993,599616059117023292,20064
1711037377001,599616059124687978,20064
1711037377009,599616059132352664,20064
1711037377017,599616059140017350,20064
1711037377024,599616059147682036,20064
1711037377032,599616059155346722,20064
1711037377040,599616059163011408,20064
1711037377047,599616059170676094,20064
1711037377055,599616059178340780,20064
1711037377063,599616059186005466,20064
1711037377070,599616059193670152,20064
1711037377078,599616059201334838,20064
1711037377086,599616059208999524,20064
1711037377093,599616059216664210,20064
1711037377101,599616059224328896,20064
1711037377109,599616059231993582,20064
1711037377116,599616059239658268,20064
1711037377124,599616059247322954,20056
1711037377132,599616059254987640,20064
1711037377139,599616059262652326,20064
1711037377147,599616059270317012,20064
1711037377155,599616059277981698,20064
1711037377161,599616059285646384,20022
1711037377169,599616059293311070,19777
1711037377177,599616059300975756,19831
1711037377185,599616059308640442,19902
1711037377193,599616059316305128,19787
1711037377201,599616059323969814,19728
1711037377208,599616059331634500,19760
1711037377216,599616059339299186,19699
1711037377224,599616059346963872,19625
1711037377231,599616059354628558,19669
1711037377239,599616059362293244,19657
1711037377247,599616059369957930,19576
1711037377254,599616059377622616,19598
1711037377262,599616059385287302,19601
1711037377270,599616059392951988,19508
1711037377277,599616059400616674,19513
1711037377285,599616059408281380,19517
1711037377293,599616059415946066,19417
1711037377300,599616059423610752,19405
1711037377308,599616059431275438,19422
1711037377316,599616059438940124,19317
1711037377323,599616059446604810,19287
1711037377331,599616059454269496,19324
1711037377339,599616059461934182,19270
1711037377345,599616059469598868,19336
1711037377353,599616059477263554,19439
1711037377361,599616059484928240,19199
1711037377369,599616059492592926,19003
1711037377377,599616059500257612,19231
1711037377385,599616059507922298,19282
1711037377392,599616059515586984,19042
1711037377400,599616059523251670,19067
1711037377408,599616059530916356,19152
1711037377415,599616059538581042,19028
1711037377423,599616059546245728,18971
1711037377431,599616059553910414,18971
1711037377438,599616059561575100,18927
1711037377446,599616059569239786,18947
1711037377454,599616059576904472,18971
1711037377461,599616059584569158,18922
1711037377469,599616059592233844,18873
1711037377477,599616059599898530,18832
1711037377484,599616059607563216,18795
1711037377492,599616059615227902,18844
1711037377500,599616059622892588,19013
1711037377507,599616059630557274,18998
1711037377515,599616059638221960,18704
1711037377523,599616059645886646,18626
1711037377529,599616059653551332,18753
1711037377537,599616059661216018,18734
1711037377545,599616059668880704,18746
1711037377553,599616059676545390,18795
1711037377561,599616059684210076,18648
1711037377569,599616059691874762,18528
1711037377576,599616059699539448,18577
1711037377584,599616059707204134,18574
1711037377592,599616059714868820,18567
1711037377599,599616059722533506,18618
1711037377607,599616059730198192,18533
1711037377615,599616059737862878,18413
1711037377622,599616059745527564,18503
1711037377630,599616059753192250,18533
1711037377638,599616059760856936,18364
1711037377645,599616059768521622,18378
1711037377653,599616059776186308,18550
1711037377661,599616059783850994,18513
1711037377668,599616059791515680,18285
1711037377676,599616059799180366,18200
1711037377684,599616059806845052,18290
1711037377691,599616059814509738,18320
1711037377699,599616059822174424,18227
1711037377707,599616059829839110,18111
1711037377713,599616059837503796,18082
1711037377721,599616059845168482,18077
1711037377729,599616059852833168,18040
1711037377737,599616059860497854,18082
1711037377745,599616059868162540,18109
1711037377753,599616059875827226,17994
1711037377760,599616059883491912,17942
1711037377768,599616059891156598,17994
1711037377776,599616059898821284,17989
1711037377783,599616059906485970,18004
1711037377791,599616059914150656,18038
1711037377799,599616059921815342,17947
1711037377806,599616059929480028,17844
1711037377814,599616059937144714,17852
1711037377822,599616059944809400,17854
1711037377829,599616059952474086,17835
1711037377837,599616059960138772,17837
1711037377845,599616059967803478,17783
1711037377852,599616059975468164,17707
1711037377860,599616059983132850,17732
1711037377868,599616059990797536,17822
1711037377875,599616059998462222,17832
1711037377883,599616060006126908,17832
1711037377891,599616060013791594,17957
1711037377897,599616060021456280,17830
1711037377905,599616060029120966,17484
1711037377913,599616060036785652,17519
1711037377921,599616060044450338,17671
1711037377929,599616060052115024,17573
1711037377937,599616060059779710,17524
1711037377944,599616060067444396,17553
1711037377952,599616060075109082,17477
1711037377960,599616060082773768,17448
1711037377967,599616060090438454,17516
1711037377975,599616060098103140,17492
1711037377983,599616060105767826,17435
1711037377990,599616060113432512,17438
1711037377998,599616060121097198,17377
1711037378006,599616060128761884,17323
1711037378013,599616060136426570,17374
1711037378021,599616060144091256,17374
1711037378029,599616060151755942,17332
1711037378036,599616060159420628,17367
1711037378044,599616060167085314,17342
1711037378052,599616060174750000,17252
1711037378059,599616060182414686,17298
1711037378067,599616060190079372,17330
1711037378073,599616060197744058,17210
1711037378081,599616060205408744,17232
1711037378089,599616060213073430,17259
1711037378097,599616060220738116,17073
1711037378105,599616060228402802,17085
1711037378113,599616060236067488,17264
1711037378120,599616060243732174,17222
1711037378128,599616060251396860,17102
1711037378136,599616060259061546,17095
1711037378143,599616060266726232,17088
1711037378151,599616060274390918,17088
1711037378159,599616060282055604,17217
1711037378166,599616060289720290,17215
1711037378174,599616060297384976,16977
1711037378182,599616060305049662,16928
1711037378189,599616060312714348,17007
1711037378197,599616060320379034,16933
1711037378205,599616060328043720,16879
1711037378212,599616060335708406,16894
1711037378220,599616060343373092,16914
1711037378228,599616060351037778,16994
1711037378235,599616060358702464,17002
1711037378243,599616060366367150,16840
1711037378251,599616060374031836,16796
1711037378257,599616060381696522,16840
1711037378265,599616060389361208,16803
1711037378273,599616060397025894,16811
1711037378281,599616060404690580,16840
1711037378289,599616060412355266,16781
1711037378297,599616060420019952,16710
1711037378304,599616060427684638,16683
1711037378312,599616060435349324,16678
1711037378320,599616060443014010,16700
1711037378327,599616060450678696,16747
1711037378335,599616060458343382,16754
1711037378343,599616060466008068,16693
1711037378350,599616060473672754,16652
1711037378358,599616060481337440,16725
1711037378366,599616060489002126,16803
1711037378373,599616060496666812,16747
1711037378381,599616060504331498,16669
1711037378389,599616060511996184,16649
1711037378396,599616060519660870,16615
1711037378404,599616060527355672,16561
1711037378412,599616060535019940,16527
1711037378419,599616060542684208,16612
1711037378427,599616060550348476,16723
1711037378435,599616060558012744,16536
1711037378441,599616060565677012,16294
1711037378449,599616060573341280,16370
1711037378457,599616060581005548,16458
1711037378465,599616060588669816,16443
1711037378473,599616060596334084,16605
1711037378481,599616060603998352,16612
1711037378488,599616060611662620,16313
1711037378496,599616060619326888,16299
1711037378504,599616060626991156,16456
1711037378511,599616060634655424,16402
1711037378519,599616060642319692,16411
1711037378527,599616060649983960,16453
1711037378534,599616060657648228,16311
1711037378542,599616060665312496,16242
1711037378550,599616060672976764,16304
1711037378557,599616060680641032,16291
1711037378565,599616060688305300,16311
1711037378573,599616060695969568,16370
1711037378580,599616060703633836,16282
1711037378588,599616060711298104,16189
1711037378596,599616060718962372,16240
1711037378603,599616060726626640,16299
1711037378611,599616060734290908,16370
1711037378619,599616060741955176,16438
1711037378625,599616060749619444,16296
1711037378633,599616060757283712,16078
1711037378641,599616060764947980,16100
1711037378649,599616060772612248,16184
1711037378657,599616060780276516,16255
1711037378665,599616060787940784,16426
1711037378672,599616060795605052,16340
1711037378680,599616060803269320,16078
1711037378688,599616060810933588,16115
1711037378695,599616060818597856,16220
1711037378703,599616060826262124,16171
1711037378711,599616060833926392,16154
1711037378718,599616060841590660,16147
1711037378726,599616060849254928,16076
1711037378734,599616060856919196,16027
1711037378741,599616060864583464,16049
1711037378749,599616060872247732,16103
1711037378757,599616060879912000,16095
1711037378764,599616060887576268,16120
1711037378772,599616060895240536,16130
1711037378780,599616060902904804,15931
1711037378787,599616060910569072,15853
1711037378795,599616060918233340,15980
1711037378803,599616060925897608,15956
1711037378809,599616060933561876,15907
1711037378817,599616060941226144,15973
1711037378825,599616060948890412,15912
1711037378833,599616060956554680,15755
1711037378841,599616060964218948,15733
1711037378849,599616060971883216,15809
1711037378856,599616060979547484,15887
1711037378864,599616060987211752,15892
1711037378872,599616060994876020,15760
1711037378879,599616061002540288,15706
1711037378887,599616061010204556,15797
1711037378895,599616061017868824,15804
1711037378902,599616061025533092,15762
1711037378910,599616061033197360,15819
1711037378918,599616061040861628,15836
1711037378925,599616061048525896,15762
1711037378933,599616061056190164,15772
1711037378941,599616061063854432,15748
1711037378948,599616061071518700,15632
1711037378956,599616061079182968,15696
1711037378964,599616061086817158,15811
1711037378971,599616061094481844,15642
1711037378979,599616061102146530,15515
1711037378987,599616061109811216,15596
1711037378993,599616061117475902,15574
1711037379001,599616061125140588,15579
1711037379009,599616061132805274,15797
1711037379017,599616061140469960,15806
1711037379025,599616061148134646,15576
1711037379033,599616061155799332,15574
1711037379040,599616061163464018,15625
1711037379048,599616061171128704,15525
1711037379056,599616061178793390,15522
1711037379063,599616061186458076,15557
1711037379071,599616061194122762,15503
1711037379079,599616061201787448,15476
1711037379086,599616061209452134,15471
1711037379094,599616061217116820,15483
1711037379102,599616061224781506,15610
1711037379109,599616061232446192,15664
1711037379117,599616061240110878,15500
1711037379125,599616061247775564,15424
1711037379132,599616061255440250,15481
1711037379140,599616061263104936,15459
1711037379148,599616061270769622,15459
1711037379155,599616061278434308,15593
1711037379163,599616061286098994,15674
1711037379171,599616061293763680,15549
1711037379177,599616061301428366,15370
1711037379185,599616061309093052,15270
1711037379193,599616061316757738,15280
1711037379201,599616061324422424,15334
1711037379209,599616061332087110,15343
1711037379217,599616061339751796,15268
1711037379224,599616061347416482,15189
1711037379232,599616061355081168,15201
1711037379240,599616061362745854,15221
1711037379247,599616061370410540,15226
1711037379255,599616061378075226,15280
1711037379262,599616061385739912,15245
1711037379270,599616061393404598,15130
1711037379278,599616061401069284,15121
1711037379285,599616061408733970,15140
1711037379293,599616061416398656,15091
1711037379301,599616061424063342,15172
1711037379308,599616061431728028,15189
1711037379316,599616061439392714,14912
1711037379324,599616061447057400,14836
1711037379331,599616061454722086,14966
1711037379339,599616061462386772,14925
1711037379347,599616061470051458,14942
1711037379353,599616061477716144,14974
1711037379361,599616061485380830,14780
1711037379369,599616061493045516,14687
1711037379377,599616061500710202,14748
1711037379385,599616061508374888,14699
1711037379393,599616061516039574,14662
1711037379400,599616061523704260,14685
1711037379408,599616061531368946,14574
1711037379416,599616061539033632,14457
1711037379423,599616061546698318,14459
1711037379431,599616061554363004,14447
1711037379439,599616061562027690,14410
1711037379446,599616061569692376,14400
1711037379454,599616061577357062,14327
1711037379462,599616061585021748,14239
1711037379469,599616061592686434,14207
1711037379477,599616061600351120,14158
1711037379485,599616061608015806,14121
1711037379492,599616061615680492,14151
1711037379500,599616061623345178,14092
1711037379508,599616061631009864,13879
1711037379515,599616061638674550,13768
1711037379523,599616061646369352,13825
1711037379531,599616061654033620,13812
1711037379537,599616061661697888,13737
1711037379545,599616061669362156,13695
1711037379553,599616061677026424,13641
1711037379561,599616061684690692,13550
1711037379569,599616061692354960,13528
1711037379577,599616061700019228,13560
1711037379584,599616061707683496,13521
1711037379592,599616061715347764,13519
1711037379600,599616061723012032,13585
1711037379607,599616061730676300,13509
1711037379615,599616061738340568,13389
1711037379623,599616061746004836,13369
1711037379630,599616061753669104,13318
1711037379638,599616061761333372,13403
1711037379646,599616061768997640,13614
1711037379653,599616061776661908,13396
1711037379661,599616061784326176,13026
1711037379669,599616061791990444,13227
1711037379676,599616061799654712,13384
1711037379684,599616061807318980,13041
1711037379692,599616061814983248,12955
1711037379699,599616061822647516,13095
1711037379707,599616061830311784,12967
1711037379715,599616061837976052,12862
1711037379721,599616061845640320,12865
1711037379729,599616061853304588,12762
1711037379737,599616061860968856,12732
1711037379745,599616061868633124,12781
1711037379753,599616061876297392,12732
1711037379761,599616061883961660,12715
1711037379768,599616061891625928,12737
1711037379776,599616061899290196,12664
1711037379784,599616061906954464,12627
1711037379791,599616061914618732,12646
1711037379799,599616061922283000,12578
1711037379807,599616061929947268,12504
1711037379814,599616061937611536,12502
1711037379822,599616061945275804,12441
1711037379830,599616061952940072,12328
1711037379837,599616061960604340,12316
1711037379845,599616061968268608,12308
1711037379853,599616061975932876,12154
1711037379860,599616061983597144,11997
1711037379868,599616061991261412,11934
1711037379876,599616061998925680,11858
1711037379883,599616062006589948,11841
1711037379891,599616062014254216,11848
1711037379899,599616062021918484,11676
1711037379905,599616062029582752,11517
1711037379913,599616062037247020,11510
1711037379921,599616062044911288,11473
1711037379929,599616062052575556,11405
1711037379937,599616062060239824,11385
1711037379945,599616062067904092,11321
1711037379952,599616062075568360,11196
1711037379960,599616062083232628,11120
1711037379968,599616062090896896,11081
1711037379975,599616062098561164,11010
1711037379983,599616062106225432,10959
1711037379991,599616062113889700,10937
1711037379998,599616062121553968,10858
1711037380006,599616062129218236,10758
1711037380014,599616062136882504,10743
1711037380021,599616062144546772,10763
1711037380029,599616062152211040,10814
1711037380037,599616062159875308,10856
1711037380044,599616062167539576,10706
1711037380052,599616062175203844,10537
1711037380060,599616062182868112,10559
1711037380067,599616062190532380,10545
1711037380075,599616062198196648,10442
1711037380083,599616062205830836,10454
1711037380089,599616062213495522,10464
1711037380097,599616062221160208,10319
1711037380105,599616062228824894,10226
1711037380113,599616062236489580,10258
1711037380121,599616062244154266,10256
1711037380129,599616062251818952,10327
1711037380136,599616062259483638,10339
1711037380144,599616062267148324,10087
1711037380152,599616062274813010,9972
1711037380159,599616062282477696,10033
1711037380167,599616062290142382,9952
1711037380175,599616062297807068,9935
1711037380182,599616062305471754,9950
1711037380190,599616062313136440,9697
1711037380198,599616062320801126,9526
1711037380205,599616062328465812,9597
1711037380213,599616062336130498,9572
1711037380221,599616062343795184,9511
1711037380228,599616062351459870,9555
1711037380236,599616062359124556,9469
1711037380244,599616062366789242,9269
1711037380251,599616062374453928,9244
1711037380259,599616062382118614,9266
1711037380267,599616062389783300,9195
1711037380273,599616062397447986,9161
1711037380281,599616062405112672,9107
1711037380289,599616062412777358,8989
1711037380297,599616062420442044,8933
1711037380305,599616062428106730,8931
1711037380313,599616062435771416,8908
1711037380320,599616062443436102,8852
1711037380328,599616062451100788,8815
1711037380336,599616062458765474,8840
1711037380343,599616062466430160,8815
1711037380351,599616062474094846,8747
1711037380359,599616062481759532,8717
1711037380366,599616062489424218,8610
1711037380374,599616062497088904,8541
1711037380382,599616062504753590,8580
1711037380389,599616062512418276,8512
1711037380397,599616062520082962,8465
1711037380405,599616062527747648,8524
1711037380412,599616062535412334,8485
1711037380420,599616062543077020,8411
1711037380427,599616062550741706,8401
1711037380435,599616062558406392,8352
1711037380443,599616062566071078,8313
1711037380449,599616062573735764,8348
1711037380457,599616062581400450,8330
1711037380465,599616062589065136,8286
1711037380473,599616062596729822,8321
1711037380481,599616062604394508,8333
1711037380489,599616062612059194,8316
1711037380496,599616062619723880,8377
1711037380504,599616062627388566,8414
1711037380512,599616062635053252,8362
1711037380519,599616062642717938,8348
1711037380527,599616062650382624,8348
1711037380535,599616062658047310,8296
1711037380542,599616062665711996,8272
1711037380550,599616062673376682,8279
1711037380558,599616062681041368,8254
1711037380565,599616062688706054,8303
1711037380573,599616062696370740,8387
1711037380581,599616062704035426,8333
1711037380588,599616062711700112,8272
1711037380596,599616062719364798,8301
1711037380604,599616062727029484,8328
1711037380611,599616062734694170,8362
1711037380619,599616062742358856,8406
1711037380627,599616062750023542,8397
1711037380633,599616062757688228,8382
1711037380641,599616062765383030,8401
1711037380649,599616062773047298,8392
1711037380657,599616062780711566,8387
1711037380665,599616062788375834,8421
1711037380673,599616062796040102,8446
1711037380680,599616062803704370,8492
1711037380688,599616062811368638,8455
1711037380696,599616062819032906,8299
1711037380703,599616062826697174,8303
1711037380711,599616062834361442,8485
1711037380719,599616062842025710,8534
1711037380726,599616062849689978,8348
1711037380734,599616062857354246,8208
1711037380742,599616062865018514,8284
1711037380749,599616062872682782,8330
1711037380757,599616062880347050,8306
1711037380765,599616062888011318,8352
1711037380772,599616062895675586,8387
1711037380780,599616062903339854,8335
1711037380788,599616062911004122,8318
1711037380795,599616062918668390,8357
1711037380803,599616062926332658,8372
1711037380811,599616062933996926,8389
1711037380817,599616062941661194,8433
1711037380825,599616062949325462,8436
1711037380833,599616062956989730,8374
1711037380841,599616062964653998,8318
1711037380849,599616062972318266,8340
1711037380857,599616062979982534,8384
1711037380864,599616062987646802,8392
1711037380872,599616062995311070,8352
1711037380880,599616063002975338,8311
1711037380887,599616063010639606,8338
1711037380895,599616063018303874,8348
1711037380903,599616063025968142,8335
1711037380910,599616063033632410,8423
1711037380918,599616063041296678,8406
1711037380926,599616063048960946,8218
1711037380933,599616063056625214,8213
1711037380941,599616063064289482,8306
1711037380949,599616063071953750,8267
1711037380956,599616063079618018,8279
1711037380964,599616063087282286,8311
1711037380972,599616063094946554,8213
1711037380979,599616063102610822,8152
1711037380987,599616063110275090,8176
1711037380995,599616063117939358,8164
1711037381001,599616063125603626,8174
1711037381009,599616063133267894,8203
1711037381017,599616063140932162,8169
1711037381025,599616063148596430,8161
1711037381033,599616063156260698,8220
1711037381041,599616063163924966,8257
1711037381048,599616063171589234,8284
1711037381056,599616063179253502,8313
1711037381064,599616063186917770,8321
1711037381071,599616063194582038,8374
1711037381079,599616063202246306,8414
1711037381087,599616063209910574,8340
1711037381094,599616063217574842,8281
1711037381102,599616063225239110,8321
1711037381110,599616063232903378,8374
1711037381117,599616063240567646,8333
1711037381125,599616063248231914,8301
1711037381133,599616063255896182,8372
1711037381140,599616063263560450,8406
1711037381148,599616063271224718,8384
1711037381156,599616063278888986,8389
1711037381163,599616063286553254,8367
1711037381171,599616063294217522,8299
1711037381179,599616063301881790,8352
1711037381185,599616063309546058,8414
1711037381193,599616063317210326,8250
1711037381201,599616063324874610,8152
1711037381209,599616063332538878,8247
1711037381217,599616063340203146,8250
1711037381225,599616063347867414,8223
1711037381232,599616063355531682,8303
1711037381240,599616063363195950,8333
1711037381248,599616063370860218,8365
1711037381255,599616063378524486,8448
1711037381263,599616063386188754,8313
1711037381271,599616063393853022,8152
1711037381278,599616063401517290,8281
1711037381286,599616063409181558,8357
1711037381294,599616063416845826,8289
1711037381301,599616063424510094,8330
1711037381309,599616063432174362,8355
1711037381317,599616063439838630,8299
1711037381324,599616063447502898,8272
1711037381332,599616063455167166,8156
1711037381340,599616063462831434,8027
1711037381347,599616063470495702,8036
1711037381355,599616063478159970,8036
1711037381363,599616063485824238,7983
1711037381369,599616063493488506,8012
1711037381377,599616063501152774,8061
1711037381385,599616063508817042,8041
1711037381393,599616063516481310,8059
1711037381401,599616063524145578,8085
1711037381409,599616063531809846,8027
1711037381416,599616063539474114,7990
1711037381424,599616063547138382,7978
1711037381432,599616063554802650,7892
1711037381439,599616063562466918,7865
1711037381447,599616063570131186,7958
1711037381455,599616063577795454,7946
1711037381462,599616063585459722,7840
1711037381470,599616063593123990,7882
1711037381478,599616063600788258,7958
1711037381485,599616063608452526,7948
1711037381493,599616063616116794,7975
1711037381501,599616063623781062,7997
1711037381508,599616063631445330,7958
1711037381516,599616063639109598,7948
1711037381524,599616063646773866,7983
1711037381531,599616063654438134,8027
1711037381539,599616063662102402,8098
1711037381547,599616063669766670,8169
1711037381553,599616063677430938,8191
1711037381561,599616063685095206,8218
1711037381569,599616063692759474,8230
1711037381577,599616063700423742,8181
1711037381585,599616063708088010,8183
1711037381593,599616063715752278,8284
1711037381600,599616063723416546,8340
1711037381608,599616063731080814,8291
1711037381615,599616063738745082,8264
1711037381623,599616063746409350,8294
1711037381631,599616063754073618,8291
1711037381638,599616063761737886,8323
1711037381646,599616063769402154,8360
1711037381654,599616063777066422,8198
1711037381661,599616063784730690,8054
1711037381669,599616063792394958,8125
1711037381677,599616063800059226,8166
1711037381684,599616063807723494,8210
1711037381692,599616063815387762,8269
1711037381700,599616063823052030,8112
1711037381707,599616063830716298,7990
1711037381715,599616063838380566,8076
1711037381723,599616063846044834,8068
1711037381729,599616063853709102,7990
1711037381737,599616063861373370,8024
1711037381745,599616063869037638,8027
1711037381753,599616063876701906,7931
1711037381761,599616063884336096,7938
1711037381769,599616063892000782,8024
1711037381776,599616063899665468,8068
1711037381784,599616063907330154,8213
1711037381792,599616063914994840,8343
1711037381799,599616063922659526,8152
1711037381807,599616063930324212,8010
1711037381815,599616063937988898,8125
1711037381822,599616063945653584,8056
1711037381830,599616063953318270,7929
1711037381838,599616063960982956,7965
1711037381845,599616063968647642,7853
1711037381853,599616063976312328,7635
1711037381861,599616063983977014,7637
1711037381868,599616063991641700,7792
1711037381876,599616063999306386,7887
1711037381884,599616064006971072,7924
1711037381891,599616064014635758,7914
1711037381899,599616064022300444,7860
1711037381907,599616064029965130,7801
1711037381913,599616064037629816,7752
1711037381921,599616064045294502,7743
1711037381929,599616064052959188,7745
1711037381937,599616064060623874,7713
1711037381945,599616064068288560,7701
1711037381953,599616064075953246,7760
1711037381960,599616064083617932,7823
1711037381968,599616064091282618,7845
1711037381976,599616064098947304,7936
1711037381983,599616064106611990,8095
1711037381991,599616064114276676,8110
1711037381999,599616064121941362,7980
1711037382006,599616064129606048,7963
1711037382014,599616064137270734,7983
1711037382022,599616064144935420,7867
1711037382029,599616064152600106,7757
1711037382037,599616064160264792,7681
1711037382045,599616064167929478,7525
1711037382052,599616064175594164,7431
1711037382060,599616064183258850,7471
1711037382068,599616064190923536,7427
1711037382075,599616064198588222,7370
1711037382083,599616064206252908,7456
1711037382091,599616064213917594,7456
1711037382097,599616064221582280,7331
1711037382105,599616064229246966,7302
1711037382113,599616064236911652,7297
1711037382121,599616064244576338,7223
1711037382129,599616064252241024,7179
1711037382137,599616064259905710,7113
1711037382144,599616064267570396,6971
1711037382152,599616064275235082,6922
1711037382160,599616064282899768,6939
1711037382167,599616064290564454,6848
1711037382175,599616064298229140,6760
1711037382183,599616064305893826,6809
1711037382190,599616064313558512,6868
1711037382198,599616064321223198,6787
1711037382206,599616064328887884,6692
1711037382213,599616064336552570,6657
1711037382221,599616064344217256,6630
1711037382229,599616064351881942,6586
1711037382236,599616064359546628,6430
1711037382244,599616064367211314,6302
1711037382252,599616064374876000,6439
1711037382259,599616064382540686,6606
1711037382267,599616064390205372,6672
1711037382275,599616064397870058,6895
1711037382281,599616064405534744,7240
1711037382289,599616064413199430,7451
1711037382297,599616064420864116,7588
1711037382305,599616064428528802,7772
1711037382313,599616064436193488,7882
1711037382321,599616064443888290,7980
1711037382328,599616064451552558,8127
1711037382336,599616064459216826,8174
1711037382344,599616064466881094,8213
1711037382351,599616064474545362,8299
1711037382359,599616064482209630,8073
1711037382367,599616064489873898,7694
1711037382374,599616064497538166,7816
1711037382382,599616064505202434,8171
1711037382390,599616064512866702,8333
1711037382397,599616064520530970,8639
1711037382405,599616064528195238,8955
1711037382413,599616064535859506,9036
1711037382420,599616064543523774,9139
1711037382428,599616064551188042,9261
1711037382436,599616064558852310,9227
1711037382443,599616064566516578,9146
1711037382451,599616064574180846,9109
1711037382459,599616064581845114,9065
1711037382465,599616064589509382,9033
1711037382473,599616064597173650,8980
1711037382481,599616064604837918,8945
1711037382489,599616064612502186,9004
1711037382497,599616064620166454,8989
1711037382505,599616064627830722,8923
1711037382512,599616064635494990,9043
1711037382520,599616064643159258,9212
1711037382528,599616064650823526,9100
1711037382535,599616064658487794,8864
1711037382543,599616064666152062,8877
1711037382551,599616064673816330,8953
1711037382558,599616064681480598,8754
1711037382566,599616064689144866,8453
1711037382574,599616064696809134,8259
1711037382581,599616064704473402,8039
1711037382589,599616064712137670,7848
1711037382597,599616064719801938,7750
1711037382604,599616064727466206,7596
1711037382612,599616064735130474,7544
1711037382620,599616064742794742,7723
1711037382627,599616064750459010,7858
1711037382635,599616064758123278,7875
1711037382643,599616064765787546,7941
1711037382649,599616064773451814,8081
1711037382657,599616064781116082,8198
1711037382665,599616064788780350,8245
1711037382673,599616064796444618,8213
1711037382681,599616064804108886,8012
1711037382689,599616064811773154,7686
1711037382696,599616064819437422,7517
1711037382704,599616064827101690,7640
1711037382712,599616064834765958,7970
1711037382719,599616064842430226,8181
1711037382727,599616064850094494,7924
1711037382735,599616064857758762,7358
1711037382742,599616064865423030,6799
1711037382750,599616064873087298,6452
1711037382758,599616064880751566,6476
1711037382765,599616064888415834,6878
1711037382773,599616064896080102,7358
1711037382780,599616064903744370,7542
1711037382788,599616064911408638,7564
1711037382796,599616064919072906,7689
1711037382803,599616064926737174,7610
1711037382811,599616064934401442,7206
1711037382819,599616064942065710,6929
1711037382825,599616064949729978,6912
1711037382833,599616064957394246,6922
1711037382841,599616064965058514,6870
1711037382849,599616064972722782,6701
1711037382857,599616064980387050,6498
1711037382865,599616064988051318,6283
1711037382872,599616064995715586,5829
1711037382880,599616065003349774,5352
1711037382888,599616065011014460,5129
1711037382895,599616065018679146,4881
1711037382903,599616065026343832,4502
1711037382911,599616065034008518,4460
1711037382918,599616065041673204,4862
1711037382926,599616065049337890,5178
1711037382934,599616065057002576,5371
1711037382941,599616065064667262,5734
1711037382949,599616065072331948,6060
1711037382957,599616065079996634,6346
1711037382964,599616065087661320,6694
1711037382972,599616065095326006,6829
1711037382980,599616065102990692,6812
1711037382987,599616065110655378,6777
1711037382995,599616065118320064,6621
1711037383003,599616065125984750,6410
1711037383009,599616065133649436,6180
1711037383017,599616065141314122,5891
1711037383025,599616065148978808,5607
1711037383033,599616065156643494,5352
1711037383041,599616065164308180,5156
1711037383049,599616065171972866,5075
1711037383056,599616065179637552,5024
1711037383064,599616065187302238,4923
1711037383072,599616065194966924,4881
1711037383079,599616065202631610,4891
1711037383087,599616065210296296,4433
1711037383095,599616065217960982,3382
1711037383102,599616065225625668,2721
1711037383110,599616065233290354,2726
1711037383118,599616065240955040,2297
1711037383125,599616065248619726,1415
1711037383133,599616065256284412,271
1711037383141,599616065263949098,-1643
1711037383148,599616065271613784,-1807
1711037383156,599616065279278470,1251
1711037383164,599616065286943156,3573
1711037383171,599616065294607842,4134
1711037383179,599616065302272528,5450
1711037383187,599616065309937214,6870
1711037383193,599616065317601900,7343
1711037383201,599616065325266586,7674
1711037383209,599616065332931272,8134
1711037383217,599616065340595958,8428
1711037383225,599616065348260644,8688
1711037383233,599616065355925330,9009
1711037383240,599616065363590016,9237
1711037383248,599616065371254702,9460
1711037383256,599616065378919388,9678
1711037383263,599616065386584074,9651
1711037383271,599616065394248760,9592
1711037383279,599616065401913446,9661
1711037383286,599616065409578132,9621
1711037383294,599616065417242818,9484
1711037383302,599616065424907504,9340
1711037383309,599616065432572190,9134
1711037383317,599616065440236876,8845
1711037383325,599616065447901562,8519
1711037383332,599616065455566248,8205
1711037383340,599616065463230934,8027
1711037383348,599616065470895620,8022
1711037383355,599616065478560306,7978
1711037383363,599616065486224992,7926
1711037383371,599616065493889678,8183
1711037383377,599616065501554364,8641
1711037383385,599616065509219050,8908
1711037383393,599616065516883736,9070
1711037383401,599616065524548422,9244
1711037383409,599616065532213108,9205
1711037383417,599616065539877794,9166
1711037383424,599616065547542480,9291
1711037383432,599616065555207166,9330
1711037383440,599616065562901968,9322
1711037383447,599616065570566236,9298
1711037383455,599616065578230504,9107
1711037383463,599616065585894772,8889
1711037383470,599616065593559040,8752
1711037383478,599616065601223308,8573
1711037383486,599616065608887576,8463
1711037383493,599616065616551844,8531
1711037383501,599616065624216112,8539
1711037383509,599616065631880380,8443
1711037383516,599616065639544648,8509
1711037383524,599616065647208916,8641
1711037383532,599616065654873184,8705
1711037383539,599616065662537452,8791
1711037383547,599616065670201720,8779
1711037383555,599616065677865988,8695
1711037383561,599616065685530256,8700
1711037383569,599616065693194524,8688
1711037383577,599616065700858792,8607
1711037383585,599616065708523060,8551
1711037383593,599616065716187328,8514
1711037383601,599616065723851596,8348
1711037383608,599616065731515864,8105
1711037383616,599616065739180132,8066
1711037383624,599616065746844400,8159
1711037383631,599616065754508668,8186
1711037383639,599616065762172936,8264
1711037383647,599616065769837204,8414
1711037383654,599616065777501472,8534
1711037383662,599616065785165740,8764
1711037383670,599616065792830008,9149
1711037383677,599616065800494276,9479
1711037383685,599616065808158544,9702
1711037383693,599616065815822812,10003
1711037383700,599616065823487080,10300
1711037383708,599616065831151348,10349
1711037383716,599616065838815616,10408
1711037383723,599616065846479884,10606
1711037383731,599616065854144152,10768
1711037383739,599616065861808420,11005
1711037383745,599616065869472688,11177
1711037383753,599616065877136956,11167
1711037383761,599616065884801224,11378
1711037383769,599616065892465492,11652
1711037383777,599616065900129760,11743
1711037383785,599616065907794028,11953
1711037383792,599616065915458296,12117
1711037383800,599616065923122564,11990
1711037383808,599616065930786832,11809
1711037383815,599616065938451100,11493
1711037383823,599616065946115368,10846
1711037383831,599616065953779636,10116
1711037383838,599616065961443904,9406
1711037383846,599616065969108172,8619
1711037383854,599616065976772440,7958
1711037383861,599616065984436708,7559
1711037383869,599616065992100976,7363
1711037383877,599616065999765244,7463
1711037383884,599616066007429512,7943
1711037383892,599616066015093780,8617
1711037383900,599616066022758048,9227
1711037383907,599616066030422316,9781
1711037383915,599616066038086584,10150
1711037383923,599616066045750852,10121
1711037383929,599616066053415120,10008
1711037383937,599616066061079388,9923
1711037383945,599616066068743656,9540
1711037383953,599616066076407924,9087
1711037383961,599616066084072192,8759
1711037383968,599616066091736460,8313
1711037383976,599616066099400728,7892
1711037383984,599616066107064996,7711
1711037383991,599616066114729264,7652
1711037383999,599616066122388580,7728
1711037384007,599616066130052917,7965
1711037384014,599616066137717254,8127
1711037384022,599616066145381591,8169
1711037384030,599616066153045928,8257
1711037384037,599616066160710265,8338
1711037384045,599616066168374602,8326
1711037384053,599616066176038939,8318
1711037384060,599616066183703276,8281
1711037384068,599616066191367613,8154
1711037384076,599616066199031950,8161
1711037384083,599616066206696287,8220
1711037384091,599616066214360624,7980
1711037384099,599616066222024961,7696
1711037384105,599616066229689298,7610
1711037384113,599616066237353635,7449
1711037384121,599616066245017972,7226
1711037384129,599616066252682309,7098
1711037384137,599616066260346646,6792
1711037384145,599616066268010983,6356
1711037384152,599616066275675320,6182
1711037384160,599616066283339657,6104
1711037384168,599616066291003994,5967
1711037384175,599616066298668331,5984
1711037384183,599616066306332668,5976
1711037384191,599616066313997005,5773
1711037384198,599616066321661342,5626
1711037384206,599616066329325679,5433
1711037384214,599616066336990016,4965
1711037384221,599616066344654353,4531
1711037384229,599616066352318690,4274
1711037384237,599616066359983027,3990
1711037384244,599616066367647364,3723
1711037384252,599616066375311701,3510
1711037384260,599616066382976038,3238
1711037384267,599616066390640375,3020
1711037384275,599616066398304712,2978
1711037384283,599616066405969049,3015
1711037384289,599616066413633386,3123
1711037384297,599616066421297723,3316
1711037384305,599616066428962060,3385
1711037384313,599616066436626397,3230
1711037384321,599616066444290734,2993
1711037384329,599616066451955071,2623
1711037384336,599616066459619408,2091
1711037384344,599616066467283745,1699
1711037384352,599616066474948082,1516
1711037384359,599616066482612419,1403
1711037384367,599616066490276756,1376
1711037384375,599616066497941093,1420
1711037384382,599616066505605430,1435
1711037384390,599616066513269767,1354
1711037384398,599616066520934104,1156
1711037384405,599616066528598441,852
1711037384413,599616066536262778,492
1711037384421,599616066543927115,279
1711037384428,599616066551591452,313
1711037384436,599616066559255789,396
1711037384444,599616066566920126,553
1711037384451,599616066574584463,1068
1711037384459,599616066582248800,1790
1711037384467,599616066589913137,2363
1711037384473,599616066597577474,2748
1711037384481,599616066605241811,3235
1711037384489,599616066612906148,3946
1711037384497,599616066620570485,4524
1711037384505,599616066628234822,4948
1711037384513,599616066635899159,5391
1711037384520,599616066643563496,5756
1711037384528,599616066651227833,5979
1711037384536,599616066658892170,6065
1711037384543,599616066666556507,6038
1711037384551,599616066674220844,5785
1711037384559,599616066681865160,5313
1711037384566,599616066689529776,4918
1711037384574,599616066697194392,4730
1711037384582,599616066704859008,4641
1711037384589,599616066712523624,4651
1711037384597,599616066720188240,4727
1711037384605,599616066727852856,4815
1711037384612,599616066735517472,5090
1711037384620,599616066743182088,5597
1711037384628,599616066750846704,6045
1711037384635,599616066758511320,6295
1711037384643,599616066766175936,6408
1711037384651,599616066773840552,6430
1711037384657,599616066781505168,6508
1711037384665,599616066789169784,6572
1711037384673,599616066796834400,6373
1711037384681,599616066804499016,6072
1711037384689,599616066812163632,5856
1711037384697,599616066819828248,5518
1711037384704,599616066827492864,5178
1711037384712,599616066835157480,5112
1711037384720,599616066842822096,5085
1711037384727,599616066850486712,4901
1711037384735,599616066858151328,4747
1711037384743,599616066865815944,4683
1711037384750,599616066873480560,4671
1711037384758,599616066881145176,4671
1711037384766,599616066888809792,4641
1711037384773,599616066896474408,4619
1711037384781,599616066904139024,4573
1711037384789,599616066911803640,4519
1711037384796,599616066919468256,4470
1711037384804,599616066927132872,4394
1711037384812,599616066934797488,4306
1711037384819,599616066942462104,4142
1711037384827,599616066950126720,3909
1711037384835,599616066957791336,3740
1711037384841,599616066965455952,3613
1711037384849,599616066973120568,3466
1711037384857,599616066980785184,3363
1711037384865,599616066988449800,3275
1711037384873,599616066996114416,3184
1711037384881,599616067003779032,3392
1711037384888,599616067011443648,3395
1711037384896,599616067019108264,2586
1711037384904,599616067026772880,2011
1711037384911,599616067034437496,1913
1711037384919,599616067042102112,1437
1711037384927,599616067049766728,874
1711037384934,599616067057431344,546
1711037384942,599616067065095960,88
1711037384950,599616067072760576,-507
1711037384957,599616067080425192,-1014
1711037384965,599616067088089808,-1496
1711037384973,599616067095754424,-1971
1711037384980,599616067103419040,-2334
1711037384988,599616067111083656,-2594
1711037384996,599616067118748272,-2814
1711037385003,599616067126412888,-2976
1711037385011,599616067134077504,-3020
1711037385017,599616067141742120,-2927
1711037385025,599616067149406736,-2643
1711037385033,599616067157071352,-2226
1711037385041,599616067164735968,-1829
1711037385049,599616067172400584,-1467
1711037385057,599616067180065200,-1109
1711037385064,599616067187729816,-744
1711037385072,599616067195394432,-257
1711037385080,599616067203059048,347
1711037385087,599616067210723664,913
1711037385095,599616067218388280,1335
1711037385103,599616067226052896,1599
1711037385110,599616067233717512,1717
1711037385118,599616067241407226,1714
1711037385126,599616067249071494,1504
1711037385133,599616067256735762,921
1711037385141,599616067264400030,51
1711037385149,599616067272064298,-864
1711037385156,599616067279728566,-1702
1711037385164,599616067287392834,-2263
1711037385172,599616067295057102,-2380
1711037385179,599616067302721370,-2246
1711037385187,599616067310385638,-2128
1711037385195,599616067318049906,-2128
1711037385201,599616067325714174,-2322
1711037385209,599616067333378442,-2701
1711037385217,599616067341042710,-3108
1711037385225,599616067348706978,-3407
1711037385233,599616067356371246,-3566
1711037385241,599616067364035514,-3620
1711037385248,599616067371699782,-3627
1711037385256,599616067379364050,-3595
1711037385264,599616067387028318,-3529
1711037385271,599616067394692586,-3502
1711037385279,599616067402356854,-3507
1711037385287,599616067410021122,-3439
1711037385294,599616067417685390,-3294
1711037385302,599616067425349658,-3140
1711037385310,599616067433013926,-3054
1711037385317,599616067440678194,-3015
1711037385325,599616067448342462,-2861
1711037385333,599616067456006730,-2662
1711037385340,599616067463670998,-2616
1711037385348,599616067471335266,-2665
1711037385356,599616067478999534,-2682
1711037385363,599616067486663802,-2643
1711037385371,599616067494328070,-2569
1711037385379,599616067501992338,-2518
1711037385385,599616067509656606,-2500
1711037385393,599616067517320874,-2466
1711037385401,599616067524985142,-2344
1711037385409,599616067532649410,-2116
1711037385417,599616067540313678,-1925
1711037385425,599616067547977946,-1832
1711037385432,599616067555642214,-1697
1711037385440,599616067563306482,-1486
1711037385448,599616067570970750,-1295
1711037385455,599616067578635018,-1107
1711037385463,599616067586299286,-889
1711037385471,599616067593963554,-693
1711037385478,599616067601627822,-529
1711037385486,599616067609292090,-379
1711037385494,599616067616956358,-259
1711037385501,599616067624620626,-139
1711037385509,599616067632284894,0
1711037385517,599616067639949162,134
1711037385524,599616067647613430,274
1711037385532,599616067655277698,436
1711037385540,599616067662941966,622
1711037385547,599616067670606234,783
1711037385555,599616067678270502,896
1711037385563,599616067685934770,1019
1711037385569,599616067693599038,1124
1711037385577,599616067701263306,1151
1711037385585,599616067708927574,1156
1711037385593,599616067716591842,1163
1711037385601,599616067724256110,1114
1711037385609,599616067731920378,1055
1711037385616,599616067739584646,1099
1711037385624,599616067747248914,1192
1711037385632,599616067754913182,1212
1711037385639,599616067762577450,1207
1711037385647,599616067770241718,1212
1711037385655,599616067777905986,1161
1711037385662,599616067785570254,1050
1711037385670,599616067793234522,921
1711037385678,599616067800878792,774
1711037385685,599616067808543338,634
1711037385693,599616067816207884,538
1711037385701,599616067823872430,453
1711037385708,599616067831536976,396
1711037385716,599616067839201522,409
1711037385724,599616067846866068,448
1711037385731,599616067854530614,511
1711037385739,599616067862195160,634
1711037385747,599616067869859706,737
1711037385753,599616067877524252,791
1711037385761,599616067885188798,903
1711037385769,599616067892853344,1009
1711037385777,599616067900517890,1055
1711037385785,599616067908182436,1104
1711037385793,599616067915846982,1116
1711037385800,599616067923511528,1055
1711037385808,599616067931176074,999
1711037385816,599616067938840620,974
1711037385823,599616067946505166,901
1711037385831,599616067954169712,754
1711037385839,599616067961834258,644
1711037385846,599616067969498804,693
1711037385854,599616067977163350,874
1711037385862,599616067984827896,1107
1711037385869,599616067992492442,1330
1711037385877,599616068000156988,1491
1711037385885,599616068007821534,1643
1711037385892,599616068015486080,1854
1711037385900,599616068023150626,2106
1711037385908,599616068030815172,2297
1711037385915,599616068038479718,2216
1711037385923,599616068046144264,1744
1711037385931,599616068053808810,1019
1711037385937,599616068061473356,413
1711037385945,599616068069137902,166
1711037385953,599616068076802448,102
1711037385961,599616068084466994,-124
1711037385969,599616068092131540,-369
1711037385977,599616068099796086,14
1711037385984,599616068107460632,737
1711037385992,599616068115125178,1192
1711037386000,599616068122789724,1680
1711037386007,599616068130454270,2020
1711037386015,599616068138118816,1969
1711037386023,599616068145783362,2052
1711037386030,599616068153447908,2221
1711037386038,599616068161112454,2038
1711037386046,599616068168777000,1668
1711037386053,599616068176441546,1366
1711037386061,599616068184106092,1090
1711037386069,599616068191770638,881
1711037386076,599616068199435184,952
1711037386084,599616068207099730,1219
1711037386092,599616068214764276,1339
1711037386099,599616068222428822,1266
1711037386107,599616068230093368,1207
1711037386115,599616068237757914,1217
1711037386121,599616068245422460,1153
1711037386129,599616068253087006,960
1711037386137,599616068260751552,710
1711037386145,599616068268416098,460
1711037386153,599616068276080644,242
1711037386160,599616068283745190,68
1711037386168,599616068291409736,-73
1711037386176,599616068299074282,-195
1711037386183,599616068306738828,-340
1711037386191,599616068314403374,-558
1711037386199,599616068322067920,-810
1711037386206,599616068329732466,-1041
1711037386214,599616068337397012,-1224
1711037386222,599616068345061558,-1305
1711037386229,599616068352726104,-1263
1711037386237,599616068360400726,-1161
1711037386245,599616068368065133,-1031
1711037386252,599616068375729540,-996
1711037386260,599616068383393947,-1286
1711037386268,599616068391058354,-1832
1711037386275,599616068398722761,-2312
1711037386283,599616068406387168,-2613
1711037386291,599616068414051575,-2826
1711037386297,599616068421715982,-2885
1711037386305,599616068429380389,-2736
1711037386313,599616068437044796,-2704
1711037386321,599616068444709203,-3128
1711037386329,599616068452373610,-3806
1711037386337,599616068460038017,-4311
1711037386344,599616068467702424,-4791
1711037386352,599616068475366831,-5626
1711037386360,599616068483031238,-6621
1711037386367,599616068490695645,-7294
1711037386375,599616068498360052,-7265
1711037386383,599616068506024459,-6378
1711037386390,599616068513688866,-5190
1711037386398,599616068521353273,-4688
1711037386406,599616068529017680,-5173
1711037386413,599616068536682087,-5932
1711037386421,599616068544346494,-5631
1711037386429,599616068552010901,-3522
1711037386436,599616068559675308,-996
1711037386444,599616068567339715,115
1711037386452,599616068575004122,467
1711037386459,599616068582668529,1535
1711037386467,599616068590332936,2951
1711037386475,599616068597997343,4005
1711037386481,599616068605661750,4757
1711037386489,599616068613326157,5087
1711037386497,599616068620990564,4918
1711037386505,599616068628654971,5271
1711037386513,599616068636319378,6956
1711037386521,599616068643983785,8739
1711037386528,599616068651648192,10033
1711037386536,599616068659312599,11473
1711037386544,599616068666977006,11887
1711037386551,599616068674641413,10202
1711037386559,599616068682305820,7956
1711037386567,599616068689970227,6417
1711037386574,599616068697634634,4808
1711037386582,599616068705299041,3419
1711037386590,599616068712963448,3370
1711037386597,599616068720627855,3696
1711037386605,599616068728292262,3324
1711037386613,599616068735956669,2650
1711037386620,599616068743621076,1981
1711037386628,599616068751285483,1369
1711037386636,599616068758949890,191
1711037386643,599616068766614297,-3128
1711037386651,599616068774278704,-7894
1711037386659,599616068781943111,-11407
1711037386665,599616068789607518,-13482
1711037386673,599616068797271925,-15909
1711037386681,599616068804936332,-18981
1711037386689,599616068812600739,-20066
1711037386697,599616068820265146,-20066
1711037386705,599616068827929553,-20066
1711037386712,599616068835593960,-20066
1711037386720,599616068843258367,-20066
1711037386728,599616068850922774,-20066
1711037386735,599616068858587181,-20066
1711037386743,599616068866251588,-20066
1711037386751,599616068873915995,-20066
1711037386758,599616068881580402,-20066
1711037386766,599616068889244809,-20066
1711037386774,599616068896909216,-20066
1711037386781,599616068904573623,-20066
1711037386789,599616068912238030,-20066
1711037386797,599616068919902478,-20066
1711037386804,599616068927566885,-20066
1711037386812,599616068935231292,-20066
1711037386820,599616068942895699,-20066
1711037386827,599616068950560106,-19052
1711037386835,599616068958224513,-17271
1711037386843,599616068965888920,-15784
1711037386849,599616068973553327,-12970
1711037386857,599616068981217734,-9837
1711037386865,599616068988882141,-6665
1711037386873,599616068996546548,-3184
1711037386881,599616069004210955,-524
1711037386889,599616069011875362,923
1711037386896,599616069019539769,1989
1711037386904,599616069027204176,3030
1711037386912,599616069034868583,3933
1711037386919,599616069042532990,4793
1711037386927,599616069050197397,5749
1711037386935,599616069057861804,6699
1711037386942,599616069065526211,7534
1711037386950,599616069073190618,8392
1711037386958,599616069080855025,9180
1711037386965,599616069088519432,9467
1711037386973,599616069096183839,9558
1711037386981,599616069103848246,10065
1711037386988,599616069111512653,10403
1711037386996,599616069119177060,10354
1711037387004,599616069126841467,10699
1711037387011,599616069134505874,11113
1711037387019,599616069142170281,11338
1711037387027,599616069149834688,12218
1711037387033,599616069157499095,13305
1711037387041,599616069165163502,13384
1711037387049,599616069172827909,12632
1711037387057,599616069180492316,11123
1711037387065,599616069188156723,9163
1711037387073,599616069195821130,9538
1711037387080,599616069203485537,12958
1711037387088,599616069211149944,15819
1711037387096,599616069218814351,17288
1711037387103,599616069226478758,19557
1711037387111,599616069234143165,20064
1711037387119,599616069241807572,20064
1711037387126,599616069249471979,20064
1711037387134,599616069257136386,20064
1711037387142,599616069264800793,18364
1711037387149,599616069272465200,16240
1711037387157,599616069280129607,15816
1711037387165,599616069287794014,16115
1711037387172,599616069295458421,16088
1711037387180,599616069303122828,15564
1711037387188,599616069310787235,14320
1711037387195,599616069318451642,13085
1711037387203,599616069326116049,12512
1711037387211,599616069333780456,12005
1711037387217,599616069341444863,11419
1711037387225,599616069349109270,11456
1711037387233,599616069356773677,12110
1711037387241,599616069364438084,12691
1711037387249,599616069372102491,12740
1711037387257,599616069379766898,12485
1711037387264,599616069387431305,12646
1711037387272,599616069395095712,13068
1711037387280,599616069402760119,12936
1711037387287,599616069410424526,12304
1711037387295,599616069418088933,11601
1711037387303,599616069425753340,10537
1711037387310,599616069433417747,8928
1711037387318,599616069441082154,7583
1711037387326,599616069448746561,7177
1711037387333,599616069456410968,7667
1711037387341,599616069464075375,7958
1711037387348,599616069471739782,6844
1711037387356,599616069479394224,4940
1711037387364,599616069487058770,2574
1711037387371,599616069494723316,-845
1711037387379,599616069502387862,-4325
1711037387387,599616069510052408,-5942
1711037387393,599616069517716954,-5947
1711037387401,599616069525381500,-6956
1711037387409,599616069533046046,-9925
1711037387417,599616069540710592,-10831
1711037387425,599616069548375138,-6919
1711037387433,599616069556039684,-3248
1711037387440,599616069563704230,-2831
1711037387448,599616069571368776,-2398
1711037387456,599616069579033322,-1317
1711037387463,599616069586697868,-1077
1711037387471,599616069594362414,-938
1711037387479,599616069602026960,-296
1711037387486,599616069609691506,93
1711037387494,599616069617356052,26
1711037387502,599616069625020598,-102
1711037387509,599616069632685144,0
1711037387517,599616069640349690,391
1711037387525,599616069648014236,602
1711037387532,599616069655678782,218
1711037387540,599616069663343328,-433
1711037387548,599616069671007874,-1004
1711037387555,599616069678672420,-1682
1711037387563,599616069686336966,-2535
1711037387571,599616069694001512,-3605
1711037387577,599616069701666058,-5908
1711037387585,599616069709330604,-9842
1711037387593,599616069716995150,-12411
1711037387601,599616069724659696,-10947
1711037387609,599616069732324242,-7848
1711037387617,599616069739988788,-5572
1711037387624,599616069747653334,-3284
1711037387632,599616069755317880,-1188
1711037387640,599616069762982426,-203
1711037387647,599616069770646972,472
1711037387655,599616069778311518,1281
1711037387663,599616069785976064,1643
1711037387670,599616069793640610,1702
1711037387678,599616069801305156,1871
1711037387686,599616069808969702,1986
1711037387693,599616069816634248,1864
1711037387701,599616069824298794,1589
1711037387709,599616069831963340,1388
1711037387716,599616069839627886,1381
1711037387724,599616069847292432,1484
1711037387732,599616069854956978,1653
1711037387739,599616069862621524,1942
1711037387747,599616069870286070,2363
1711037387755,599616069877950616,2767
1711037387761,599616069885615162,3000
1711037387769,599616069893279708,3162
1711037387777,599616069900944254,3373
1711037387785,599616069908608800,3522
1711037387793,599616069916273346,3519
1711037387801,599616069923937892,3488
1711037387808,599616069931602438,3549
1711037387816,599616069939266984,3617
1711037387824,599616069946931530,3681
1711037387831,599616069954596076,3843
1711037387839,599616069962260622,3931
1711037387847,599616069969925168,3816
1711037387854,599616069977589714,3764
1711037387862,599616069985254260,3806
1711037387870,599616069992918806,3784
1711037387877,599616070000583352,3796
1711037387885,599616070008247898,3882
1711037387893,599616070015912444,3990
1711037387900,599616070023576990,4171
1711037387908,599616070031241536,4249
1711037387916,599616070038896068,3987
1711037387923,599616070046560754,3556
1711037387931,599616070054225440,3115
1711037387939,599616070061890126,2537
1711037387945,599616070069554812,1910
1711037387953,599616070077219498,1572
1711037387961,599616070084884184,1570
1711037387969,599616070092548870,1790
1711037387977,599616070100213556,2268
1711037387985,599616070107878242,2765
1711037387992,599616070115542928,2919
1711037388000,599616070123207614,2802
1711037388008,599616070130872300,2667
1711037388015,599616070138536986,2834
1711037388023,599616070146201672,3735
1711037388031,599616070153866358,5188
1711037388038,599616070161531044,6415
1711037388046,599616070169195730,6976
1711037388054,599616070176860416,6486
1711037388061,599616070184525102,4384
1711037388069,599616070192189788,1599
1711037388077,599616070199854474,97
1711037388084,599616070207519160,-458
1711037388092,599616070215183846,-992
1711037388100,599616070222848532,-391
1711037388107,599616070230513218,1214
1711037388115,599616070238177904,2118
1711037388123,599616070245842590,2339
1711037388129,599616070253507276,2422
1711037388137,599616070261171962,1903
1711037388145,599616070268836648,1200
1711037388153,599616070276501334,1244
1711037388161,599616070284166020,1550
1711037388169,599616070291830706,1506
1711037388176,599616070299495392,1325
1711037388184,599616070307160078,335
1711037388192,599616070314824764,-2162
1711037388199,599616070322489450,-4279
1711037388207,599616070330154136,-4396
1711037388215,599616070337818822,-3801
1711037388222,599616070345483508,-3321
1711037388230,599616070353148194,-2843
1711037388238,599616070360812880,-2900
1711037388245,599616070368477566,-3429
1711037388253,599616070376142252,-4034
1711037388261,599616070383806938,-4739
1711037388268,599616070391471624,-5357
1711037388276,599616070399136310,-5545
1711037388284,599616070406800996,-5413
1711037388291,599616070414465682,-4926
1711037388299,599616070422130368,-3870
1711037388307,599616070429795054,-3030
1711037388313,599616070437459740,-3066
1711037388321,599616070445124426,-3238
1711037388329,599616070452789112,-2944
1711037388337,599616070460453798,-2383
1711037388345,599616070468118484,-1834
1711037388353,599616070475783170,-1430
1711037388360,599616070483447856,-1222
1711037388368,599616070491112542,-1239
1711037388376,599616070498777228,-1533
1711037388383,599616070506441914,-2055
1711037388391,599616070514106600,-2549
1711037388399,599616070521771286,-2939
1711037388406,599616070529435972,-3417
1711037388414,599616070537100658,-3752
1711037388422,599616070544765344,-3566
1711037388429,599616070552430030,-2976
1711037388437,599616070560094716,-2417
1711037388445,599616070567759402,-2052
1711037388452,599616070575424088,-1575
1711037388460,599616070583088774,-1009
1711037388468,599616070590753460,-663
1711037388475,599616070598448262,-396
1711037388483,599616070606112530,-117
1711037388491,599616070613776798,0
1711037388497,599616070621441066,-44
1711037388505,599616070629105334,-286
1711037388513,599616070636769602,-756
1711037388521,599616070644433870,-1114
1711037388529,599616070652098138,-886
1711037388537,599616070659762406,110
1711037388544,599616070667426674,1330
1711037388552,599616070675090942,1308
1711037388560,599616070682755210,-930
1711037388567,599616070690419478,-3130
1711037388575,599616070698083746,-2170
1711037388583,599616070705748014,494
1711037388590,599616070713412282,2023
1711037388598,599616070721076550,2552
1711037388605,599616070728740818,2638
1711037388613,599616070736405086,2165
1711037388621,599616070744069354,1530
1711037388628,599616070751733622,1518
1711037388636,599616070759397890,2182
1711037388644,599616070767062158,2611
1711037388651,599616070774726426,2496
1711037388659,599616070782390694,2229
1711037388667,599616070790054962,1793
1711037388673,599616070797719230,1232
1711037388681,599616070805383498,965
1711037388689,599616070813047766,1116
1711037388697,599616070820712034,1359
1711037388705,599616070828376302,1499
1711037388713,599616070836040570,1736
1711037388720,599616070843704838,2243
1711037388728,599616070851369106,3030
1711037388736,599616070859033374,3897
1711037388743,599616070866697642,4519
1711037388751,599616070874361910,4837
1711037388759,599616070882026178,5065
1711037388766,599616070889690446,5335
1711037388774,599616070897354714,5550
1711037388782,599616070905018982,5744
1711037388789,599616070912683250,5898
1711037388797,599616070920347518,5822
1711037388805,599616070928011786,5594
1711037388812,599616070935676054,5215
1711037388820,599616070943340322,4311
1711037388828,599616070951004590,3167
1711037388835,599616070958668858,2804
1711037388843,599616070966333126,3123
1711037388851,599616070973997394,3311
1711037388857,599616070981661662,3772
1711037388865,599616070989325930,4852
1711037388873,599616070996990198,5893
1711037388881,599616071004654466,6594
1711037388889,599616071012318734,6978
1711037388897,599616071019983002,6902
1711037388904,599616071027647270,6944
1711037388912,599616071035311538,7578
1711037388920,599616071042975806,7853
1711037388927,599616071050640074,7387
1711037388935,599616071058304342,6919
1711037388943,599616071065968610,6447
1711037388950,599616071073632878,5776
1711037388958,599616071081297146,5217
1711037388966,599616071088961414,4962
1711037388973,599616071096625682,4926
1711037388981,599616071104289950,4881
1711037388989,599616071111954218,4796
1711037388996,599616071119618486,4744
1711037389004,599616071127282754,4744
1711037389012,599616071134947022,4926
1711037389019,599616071142611290,5499
1711037389027,599616071150275558,6603
1711037389035,599616071157909748,8007
1711037389041,599616071165574434,8688
1711037389049,599616071173239120,7576
1711037389057,599616071180903806,4975
1711037389065,599616071188568492,2821
1711037389073,599616071196233178,2990
1711037389081,599616071203897864,4595
1711037389088,599616071211562550,5538
1711037389096,599616071219227236,6177
1711037389104,599616071226891922,7172
1711037389111,599616071234556608,7483
1711037389119,599616071242221294,7106
1711037389127,599616071249885980,7052
1711037389134,599616071257550666,7160
1711037389142,599616071265215352,6785
1711037389150,599616071272880038,6038
1711037389157,599616071280544724,5276
1711037389165,599616071288209410,4514
1711037389173,599616071295874096,3666
1711037389180,599616071303538782,2745
1711037389188,599616071311203468,1812
1711037389196,599616071318868154,847
1711037389203,599616071326532840,-110
1711037389211,599616071334197526,-700
1711037389219,599616071341862212,-862
1711037389225,599616071349526898,-984
1711037389233,599616071357191584,-1065
1711037389241,599616071364856270,-840
1711037389249,599616071372520956,-293
1711037389257,599616071380185642,578
1711037389265,599616071387850328,1675
1711037389272,599616071395515014,2219
1711037389280,599616071403179700,1768
1711037389288,599616071410844386,1141
1711037389295,599616071418509072,717
1711037389303,599616071426173758,-88
1711037389311,599616071433838444,-992
1711037389318,599616071441503130,-1325
1711037389326,599616071449167816,-1401
1711037389334,599616071456832502,-1553
1711037389341,599616071464497188,-1450
1711037389349,599616071472161874,-1068
1711037389357,599616071479826560,-820
1711037389364,599616071487491246,-776
1711037389372,599616071495155932,-859
1711037389380,599616071502820618,-1244
1711037389387,599616071510485304,-1925
1711037389395,599616071518149990,-2532
1711037389403,599616071525814676,-2905
1711037389409,599616071533479362,-3211
1711037389417,599616071541144048,-3537
1711037389425,599616071548808734,-3831
1711037389433,599616071556473420,-4051
1711037389441,599616071564138106,-4205
1711037389449,599616071571802792,-4414
1711037389456,599616071579467478,-4695
1711037389464,599616071587132164,-4854
1711037389472,599616071594796850,-5050
1711037389479,599616071602461536,-5930
1711037389487,599616071610126222,-7390
1711037389495,599616071617790908,-8490
1711037389502,599616071625455594,-9185
1711037389510,599616071633120280,-10638
1711037389518,599616071640784966,-14800
1711037389525,599616071648449652,-20066
1711037389533,599616071656114338,-20066
1711037389541,599616071663779024,-20066
1711037389548,599616071671443710,-20066
1711037389556,599616071679108396,-20066
1711037389564,599616071686773082,-20066
1711037389571,599616071694437768,-20066
1711037389579,599616071702102454,-20066
1711037389587,599616071709767140,-12911
1711037389593,599616071717461942,-6993
1711037389601,599616071725126210,-4578
1711037389609,599616071732790478,-3292
1711037389617,599616071740454746,-1202
1711037389625,599616071748119014,75
1711037389633,599616071755783282,658
1711037389640,599616071763447550,2148
1711037389648,599616071771111818,4289
1711037389656,599616071778776086,5940
1711037389663,599616071786440354,6875
1711037389671,599616071794104622,7740
1711037389679,599616071801768890,8426
1711037389686,599616071809433158,8144
1711037389694,599616071817097426,7284
1711037389702,599616071824761694,6846
1711037389709,599616071832425962,6932
1711037389717,599616071840090230,7135
1711037389725,599616071847754498,7282
1711037389732,599616071855418766,7559
1711037389740,599616071863083034,7894
1711037389748,599616071870747302,8017
1711037389755,599616071878411570,8323
1711037389763,599616071886075838,9178
1711037389769,599616071893740106,10273
1711037389777,599616071901404374,11142
1711037389785,599616071909068642,11405
1711037389793,599616071916732910,11179
1711037389801,599616071924397178,10687
1711037389809,599616071932061446,9763
1711037389816,599616071939725714,9009
1711037389824,599616071947389982,8622
1711037389832,599616071955054250,7757
1711037389839,599616071962718518,6851
1711037389847,599616071970382786,6866
1711037389855,599616071978047054,7409
1711037389862,599616071985711322,7635
1711037389870,599616071993375590,7446
1711037389878,599616072001039858,6990
1711037389885,599616072008704126,6207
1711037389893,599616072016368394,5415
1711037389901,599616072024032662,4899
1711037389908,599616072031696930,4284
1711037389916,599616072039361198,3436
1711037389924,599616072047025466,2701
1711037389931,599616072054689734,2015
1711037389939,599616072062354002,1131
1711037389947,599616072070018270,142
1711037389953,599616072077682538,-614
1711037389961,599616072085346806,-945
1711037389969,599616072093011074,-1131
1711037389977,599616072100675342,-1322
1711037389985,599616072108339610,-1205
1711037389993,599616072116003878,-759
1711037390000,599616072123668146,-264
1711037390008,599616072131332414,325
1711037390016,599616072138996682,996
1711037390023,599616072146660950,1543
1711037390031,599616072154325218,2621
1711037390039,599616072161989486,4061
1711037390046,599616072169653754,3973
1711037390054,599616072177318022,3047
1711037390062,599616072184982290,2824
1711037390069,599616072192646558,1455
1711037390077,599616072200310826,83
1711037390085,599616072207975094,3887
1711037390092,599616072215639362,11032
1711037390100,599616072223303630,14538
1711037390108,599616072230967898,13859
1711037390115,599616072238632166,12764
1711037390123,599616072246296434,12370
1711037390131,599616072253960702,12022
1711037390137,599616072261624970,11811
1711037390145,599616072269289238,12245
1711037390153,599616072276943514,12615
1711037390161,599616072284607921,12137
1711037390169,599616072292272328,11650
1711037390177,599616072299936735,11432
1711037390184,599616072307601142,10513
1711037390192,599616072315265549,9173
1711037390200,599616072322929956,8470
1711037390207,599616072330594363,8230
1711037390215,599616072338258770,8061
1711037390223,599616072345923177,8262
1711037390230,599616072353587584,8428
1711037390238,599616072361251991,8455
1711037390246,599616072368916398,9406
1711037390253,599616072376580805,10986
1711037390261,599616072384245212,11966
1711037390269,599616072391909619,11946
1711037390276,599616072399574026,10743
1711037390284,599616072407238433,8277
1711037390292,599616072414902840,5722
1711037390299,599616072422567247,4979
1711037390307,599616072430231654,4183
1711037390315,599616072437896061,641
1711037390321,599616072445560468,-1682
1711037390329,599616072453224875,-1102
1711037390337,599616072460889282,-2069
1711037390345,599616072468553689,-3346
1711037390353,599616072476218096,-1435
1711037390361,599616072483882503,1599
1711037390368,599616072491546910,3549
1711037390376,599616072499211317,4705
1711037390384,599616072506875724,5540
1711037390391,599616072514540131,6167
1711037390399,599616072522204538,6486
1711037390407,599616072529868945,6449
1711037390414,599616072537533352,6231
1711037390422,599616072545197759,5981
1711037390430,599616072552862166,5834
1711037390437,599616072560526573,5756
1711037390445,599616072568190980,5616
1711037390453,599616072575855387,5496
1711037390460,599616072583519794,5366
1711037390468,599616072591184201,5156
1711037390476,599616072598848608,4940
1711037390483,599616072606513015,4666
1711037390491,599616072614177422,4298
1711037390499,599616072621841829,3951
1711037390505,599616072629506236,3647
1711037390513,599616072637170643,3431
1711037390521,599616072644835050,3150
1711037390529,599616072652499457,1665
1711037390537,599616072660163864,-3747
1711037390545,599616072667828271,-13374
1711037390552,599616072675492678,-18986
1711037390560,599616072683157085,-14849
1711037390568,599616072690821492,-10631
1711037390575,599616072698485899,-12798
1711037390583,599616072706150306,-13692
1711037390591,599616072713814713,-8014
1711037390598,599616072721479120,-198
1711037390606,599616072729143527,3008
1711037390614,599616072736807934,3304
1711037390621,599616072744472341,4955
1711037390629,599616072752136748,6425
1711037390637,599616072759801155,6826
1711037390644,599616072767465562,7554
1711037390652,599616072775129969,8617
1711037390660,599616072782794376,9178
1711037390667,599616072790458783,9509
1711037390675,599616072798123190,10241
1711037390683,599616072805787597,11071
1711037390689,599616072813452004,11642
1711037390697,599616072821116411,12294
1711037390705,599616072828780818,13168
1711037390713,599616072836435260,13915
1711037390721,599616072844099806,14552
1711037390729,599616072851764352,15552
1711037390736,599616072859428898,16622
1711037390744,599616072867093444,17085
1711037390752,599616072874757990,17421
1711037390759,599616072882422536,18307
1711037390767,599616072890087082,18922
1711037390775,599616072897751628,18611
1711037390782,599616072905416174,18173
1711037390790,599616072913080720,17891
1711037390797,599616072920745266,17095
1711037390805,599616072928409812,15417
1711037390813,599616072936074358,13683
1711037390820,599616072943738904,12786
1711037390828,599616072951403450,12360
1711037390836,599616072959067996,12147
1711037390843,599616072966732542,12196
1711037390851,599616072974397088,12122
1711037390859,599616072982061634,11826
1711037390865,599616072989726180,11625
1711037390873,599616072997390726,11598
1711037390881,599616073005055272,11650
1711037390889,599616073012719818,11757
1711037390897,599616073020384364,11748
1711037390905,599616073028048910,11578
1711037390912,599616073035713456,11243
1711037390920,599616073043378002,10819
1711037390928,599616073051042548,10638
1711037390935,599616073058707094,10525
1711037390943,599616073066371640,10190
1711037390951,599616073074036186,9847
1711037390958,599616073081700732,9558
1711037390966,599616073089365278,9002
1711037390974,599616073097029824,8269
1711037390981,599616073104694370,7703
1711037390989,599616073112358916,7341
1711037390997,599616073120023462,7436
1711037391004,599616073127688008,7970
1711037391012,599616073135352554,8171
1711037391020,599616073143017100,8049
1711037391027,599616073150681646,8551
1711037391035,599616073158346192,10072
1711037391043,599616073166010738,12255
1711037391049,599616073173675284,14204
1711037391057,599616073181339830,14523
1711037391065,599616073189004376,13154
1711037391073,599616073196668922,12095
1711037391081,599616073204333468,12730
1711037391089,599616073211998014,14939
1711037391096,599616073219662560,17237
1711037391104,599616073227327106,18672
1711037391112,599616073234991652,20064
1711037391119,599616073242656198,20064
1711037391127,599616073250320744,19358
1711037391135,599616073257985290,16879
1711037391142,599616073265649836,13906
1711037391150,599616073273314382,9852
1711037391158,599616073280978928,7179
1711037391165,599616073288643474,7635
1711037391173,599616073296308020,9367
1711037391181,599616073303972566,10393
1711037391188,599616073311637112,10797
1711037391196,599616073319301658,10809
1711037391204,599616073326966204,10378
1711037391211,599616073334630750,10114
1711037391219,599616073342295296,10317
1711037391227,599616073349959842,10809
1711037391233,599616073357624388,11760
1711037391241,599616073365288934,13141
1711037391249,599616073372953480,14209
1711037391257,599616073380618026,14391
1711037391265,599616073388282572,14111
1711037391273,599616073395967200,13812
1711037391280,599616073403631468,13237
1711037391288,599616073411295736,12220
1711037391296,599616073418960004,10961
1711037391303,599616073426624272,9555
1711037391311,599616073434288540,8078
1711037391319,599616073441952808,6699
1711037391326,599616073449617076,5391
1711037391334,599616073457281344,4242
1711037391342,599616073464945612,3657
1711037391349,599616073472609880,3637
1711037391357,599616073480274148,4066
1711037391365,599616073487938416,5107
1711037391372,599616073495602684,6290
1711037391380,599616073503266952,7211
1711037391388,599616073510931220,8438
1711037391395,599616073518595488,9675
1711037391403,599616073526259756,9974
1711037391411,599616073533924024,9643
1711037391417,599616073541588292,9455
1711037391425,599616073549252560,9423
1711037391433,599616073556916828,9548
1711037391441,599616073564581096,10033
1711037391449,599616073572245364,10452
1711037391457,599616073579909632,10518
1711037391464,599616073587573900,10616
1711037391472,599616073595238168,10631
1711037391480,599616073602902436,10354
1711037391487,599616073610566704,9913
1711037391495,599616073618230972,9220
1711037391503,599616073625895240,8294
1711037391510,599616073633559508,7490
1711037391518,599616073641223776,6981
1711037391526,599616073648888044,6589
1711037391533,599616073656552312,6241
1711037391541,599616073664216580,5886
1711037391549,599616073671880848,5575
1711037391556,599616073679545116,6106
1711037391564,599616073687209384,7498
1711037391572,599616073694873652,8291
1711037391579,599616073702537920,7965
1711037391587,599616073710202188,7326
1711037391595,599616073717866456,6959
1711037391601,599616073725530724,6643
1711037391609,599616073733194992,5352
1711037391617,599616073740859260,2802
1711037391625,599616073748523528,1775
1711037391633,599616073756187796,4409
1711037391641,599616073763852064,7620
1711037391648,599616073771516332,9014
1711037391656,599616073779180600,10170
1711037391664,599616073786844868,11503
1711037391671,599616073794509136,12017
1711037391679,599616073802173404,12208
1711037391687,599616073809837672,12757
1711037391694,599616073817501940,12980
1711037391702,599616073825166208,12519
1711037391710,599616073832830476,11975
1711037391717,599616073840494744,11463
1711037391725,599616073848159012,10684
1711037391733,599616073855823280,9849
1711037391740,599616073863487548,9283
1711037391748,599616073871151816,8911
1711037391756,599616073878816084,8409
1711037391763,599616073886480352,7720
1711037391771,599616073894144620,7013
1711037391779,599616073901808888,5717
1711037391785,599616073909473156,3324
1711037391793,599616073917137424,1736
1711037391801,599616073924801692,3578
1711037391809,599616073932465960,4507
1711037391817,599616073940130228,-107
1711037391825,599616073947794496,-3025
1711037391832,599616073955458780,-928
1711037391840,599616073963123048,-181
1711037391848,599616073970787316,-338
1711037391855,599616073978451584,798
1711037391863,599616073986115852,-129
1711037391871,599616073993780120,-2966
1711037391878,599616074001444388,-3813
1711037391886,599616074009108656,-2486
1711037391894,599616074016772924,-1244
1711037391901,599616074024437192,-338
1711037391909,599616074032101460,661
1711037391917,599616074039765728,1222
1711037391924,599616074047429996,1330
1711037391932,599616074055094264,1386
1711037391940,599616074062758532,1146
1711037391947,599616074070422800,600
1711037391955,599616074078087068,161
1711037391963,599616074085751336,-51
1711037391969,599616074093415604,-26
1711037391977,599616074101079872,210
1711037391985,599616074108744140,585
1711037391993,599616074116408408,1180
1711037392001,599616074124072676,1780
1711037392008,599616074131736944,1922
1711037392016,599616074139401212,1628
1711037392024,599616074147065480,1239
1711037392031,599616074154729748,891
1711037392039,599616074162394016,636
1711037392047,599616074170058284,485
1711037392054,599616074177722552,218
1711037392062,599616074185386820,-318
1711037392070,599616074193051088,-845
1711037392077,599616074200715356,-1068
1711037392085,599616074208379624,-1063
1711037392093,599616074216043892,-872
1711037392100,599616074223708160,-240
1711037392108,599616074231372428,1251
1711037392116,599616074239036696,3537
1711037392123,599616074246700964,5744
1711037392131,599616074254365232,7223
1711037392139,599616074262029500,8041
1711037392145,599616074269693768,8387
1711037392153,599616074277358036,8225
1711037392161,599616074285022304,7667
1711037392169,599616074292686572,7106
1711037392177,599616074300350840,6547
1711037392185,599616074308015108,5528
1711037392192,599616074315679376,4448
1711037392200,599616074323343644,3958
1711037392208,599616074331007912,3586
1711037392215,599616074338672180,2880
1711037392223,599616074346336448,2084
1711037392231,599616074354000716,1312
1711037392238,599616074361664984,634
1711037392246,599616074369329252,367
1711037392254,599616074376993520,487
1711037392261,599616074384657788,497
1711037392269,599616074392322056,227
1711037392277,599616074399986324,-117
1711037392284,599616074407650592,-477
1711037392292,599616074415314860,-541
1711037392300,599616074422979128,462
1711037392307,599616074430643396,1866
1711037392315,599616074438307664,2113
1711037392323,599616074445971932,1761
1711037392329,599616074453636200,1690
1711037392337,599616074461300468,1286
1711037392345,599616074468964736,448
1711037392353,599616074476629004,-311
1711037392361,599616074484293272,-1158
1711037392369,599616074491957540,-2229
1711037392376,599616074499621808,-3017
1711037392384,599616074507286076,-3328
1711037392392,599616074514930346,-3461
1711037392399,599616074522594892,-3475
1711037392407,599616074530259438,-3270
1711037392415,599616074537923984,-3103
1711037392422,599616074545588530,-3204
1711037392430,599616074553253076,-3507
1711037392438,599616074560917622,-4053
1711037392445,599616074568582168,-4903
1711037392453,599616074576246714,-5785
1711037392461,599616074583911260,-6452
1711037392468,599616074591575806,-6875
1711037392476,599616074599240352,-6971
1711037392484,599616074606904898,-6809
1711037392491,599616074614569444,-6709
1711037392499,599616074622233990,-6831
1711037392507,599616074629898536,-7152
1711037392513,599616074637563082,-7610
1711037392521,599616074645227628,-8054
1711037392529,599616074652892174,-8352
1711037392537,599616074660556720,-8519
1711037392545,599616074668221266,-8602
1711037392553,599616074675885812,-8654
1711037392560,599616074683550358,-8779
1711037392568,599616074691214904,-8945
1711037392576,599616074698879450,-8955
1711037392583,599616074706543996,-8948
1711037392591,599616074714208542,-9156
1711037392599,599616074721873088,-9482
1711037392606,599616074729537634,-9991
1711037392614,599616074737202180,-10954
1711037392622,599616074744866726,-12453
1711037392629,599616074752531272,-13952
1711037392637,599616074760195818,-14297
1711037392645,599616074767860364,-12492
1711037392652,599616074775524910,-9122
1711037392660,599616074783189456,-6317
1711037392668,599616074790854002,-4862
1711037392675,599616074798518548,-3960
1711037392683,599616074806183094,-3054
1711037392691,599616074813847640,-1768
1711037392697,599616074821512186,-436
1711037392705,599616074829176732,176
1711037392713,599616074836841278,193
1711037392721,599616074844505824,88
1711037392729,599616074852170370,-100
1711037392737,599616074859834916,-333
1711037392744,599616074867499462,-379
1711037392752,599616074875164008,-151
1711037392760,599616074882828554,208
1711037392767,599616074890493100,541
1711037392775,599616074898157646,805
1711037392783,599616074905822192,989
1711037392790,599616074913486738,1097
1711037392798,599616074921151284,1143
1711037392806,599616074928815830,1131
1711037392813,599616074936480376,1156
1711037392821,599616074944144922,1197
1711037392829,599616074951809468,1165
1711037392836,599616074959474014,1234
1711037392844,599616074967138560,1452
1711037392852,599616074974803106,1687
1711037392859,599616074982467652,1947
1711037392867,599616074990132198,2295
1711037392875,599616074997796744,2718
1711037392881,599616075005461290,3012
1711037392889,599616075013125836,2976
1711037392897,599616075020790382,2655
1711037392905,599616075028454928,2260
1711037392913,599616075036119474,1979
1711037392921,599616075043784020,1496
1711037392928,599616075051448566,404
1711037392936,599616075059113112,-754
1711037392944,599616075066777658,-1139
1711037392951,599616075074452280,-982
1711037392959,599616075082116687,-1082
1711037392967,599616075089781094,-1459
1711037392974,599616075097445501,-1584
1711037392982,599616075105109908,-1371
1711037392990,599616075112774315,-977
1711037392997,599616075120438722,-551
1711037393005,599616075128103129,-367
1711037393013,599616075135767536,-313
1711037393020,599616075143431943,-68
1711037393028,599616075151096350,333
1711037393036,599616075158760757,803
1711037393043,599616075166425164,1050
1711037393051,599616075174089571,578
1711037393059,599616075181753978,-225
1711037393065,599616075189418385,-499
1711037393073,599616075197082792,-578
1711037393081,599616075204747199,-1077
1711037393089,599616075212411606,-1320
1711037393097,599616075220076013,-903
1711037393104,599616075227740420,-676
1711037393112,599616075235404827,-862
1711037393120,599616075243069234,-607
1711037393127,599616075250733641,480
1711037393135,599616075258398048,1910
1711037393143,599616075266062455,3248
1711037393150,599616075273726862,4242
1711037393158,599616075281391269,4144
1711037393166,599616075289055676,3184
1711037393173,599616075296720083,2625
1711037393181,599616075304384490,2111
1711037393189,599616075312048897,987
1711037393196,599616075319713304,-193
1711037393204,599616075327377711,-1241
1711037393212,599616075335042118,-2302
1711037393219,599616075342706525,-3137
1711037393227,599616075350370932,-3679
1711037393235,599616075358035339,-4264
1711037393241,599616075365699746,-4952
1711037393249,599616075373364153,-5239
1711037393257,599616075381028560,-4950
1711037393265,599616075388692967,-4526
1711037393273,599616075396357374,-4151
1711037393281,599616075404021781,-3760
1711037393288,599616075411686188,-3691
1711037393296,599616075419350595,-4563
1711037393304,599616075427015002,-5856
1711037393311,599616075434679409,-6074
1711037393319,599616075442343816,-5474
1711037393327,599616075450008223,-5464
1711037393334,599616075457672630,-5697
1711037393342,599616075465337037,-5474
1711037393350,599616075473001444,-5347
1711037393357,599616075480665851,-5403
1711037393365,599616075488330258,-5254
1711037393373,599616075495994665,-5200
1711037393380,599616075503659072,-5440
1711037393388,599616075511323479,-5621
1711037393396,599616075518987886,-5545
1711037393403,599616075526652293,-5371
1711037393411,599616075534316700,-5295
1711037393419,599616075541981107,-5278
1711037393425,599616075549645514,-5264
1711037393433,599616075557309921,-5479
1711037393441,599616075564974328,-5969
1711037393449,599616075572638735,-6510
1711037393457,599616075580303142,-7049
1711037393465,599616075587967549,-7640
1711037393472,599616075595631956,-8139
1711037393480,599616075603296363,-8458
1711037393488,599616075610960770,-8725
1711037393495,599616075618625177,-8948
1711037393503,599616075626289584,-9029
1711037393511,599616075633903848,-9038
1711037393518,599616075641568952,-9075
1711037393526,599616075649234056,-9124
1711037393534,599616075656899160,-9149
1711037393541,599616075664564264,-9043
1711037393549,599616075672229368,-8646
1711037393557,599616075679894472,-8095
1711037393564,599616075687559576,-7691
1711037393572,599616075695224680,-7547
1711037393580,599616075702889784,-7767
1711037393587,599616075710554888,-8468
1711037393595,599616075718219992,-9293
1711037393603,599616075725885096,-9795
1711037393609,599616075733550200,-10016
1711037393617,599616075741215304,-10109
1711037393625,599616075748880408,-10092
1711037393633,599616075756545512,-10165
1711037393641,599616075764210616,-11223
1711037393649,599616075771875720,-15606
1711037393656,599616075779540824,-20066
1711037393664,599616075787205928,-20066
1711037393672,599616075794871032,-20066
1711037393679,599616075802536136,-10885
1711037393687,599616075810201240,-3030
1711037393695,599616075817866344,372
1711037393702,599616075825531448,2701
1711037393710,599616075833196552,4436
1711037393718,599616075840861656,4970
1711037393725,599616075848526760,5349
1711037393733,599616075856191864,6062
1711037393741,599616075863856968,5842
1711037393748,599616075871522072,4129
1711037393756,599616075879187176,2292
1711037393764,599616075886852280,1905
1711037393771,599616075894517384,2606
1711037393779,599616075902182488,3025
1711037393787,599616075909847592,3159
1711037393793,599616075917512696,3573
1711037393801,599616075925177800,4076
1711037393809,599616075932842904,4509
1711037393817,599616075940508008,4977
1711037393825,599616075948173112,5256
1711037393833,599616075955838216,5175
1711037393840,599616075963503320,5048
1711037393848,599616075971168424,5077
1711037393856,599616075978833528,5352
1711037393863,599616075986498632,5913
1711037393871,599616075994163736,6599
1711037393879,599616076001828840,7720
1711037393886,599616076009493944,9619
1711037393894,599616076017159048,10746
1711037393902,599616076024824152,10319
1711037393909,599616076032489256,10199
1711037393917,599616076040154360,10099
1711037393925,599616076047819464,8671
1711037393932,599616076055484568,7206
1711037393940,599616076063149672,6586
1711037393948,599616076070814776,5932
1711037393955,599616076078479880,4842
1711037393963,599616076086144984,3870
1711037393971,599616076093810088,3331
1711037393977,599616076101475192,2728
1711037393985,599616076109140296,1785
1711037393993,599616076116805400,884
1711037394001,599616076124470504,53
1711037394009,599616076132135608,-943
1711037394017,599616076139800712,-1991
1711037394024,599616076147465816,-2839
1711037394032,599616076155130920,-3385
1711037394040,599616076162796024,-3662
1711037394047,599616076170461128,-3571
1711037394055,599616076178126232,-3005
1711037394063,599616076185791336,-2158
1711037394070,599616076193571880,-1366
1711037394078,599616076201235381,-1023
1711037394086,599616076208898882,-1173
1711037394093,599616076216562383,-1293
1711037394101,599616076224225884,-1214
1711037394109,599616076231889385,-1241
1711037394116,599616076239552886,-1283
1711037394124,599616076247216387,-1205
1711037394132,599616076254879888,-1126
1711037394139,599616076262543389,-715
1711037394147,599616076270206890,208
1711037394155,599616076277870391,605
1711037394161,599616076285533892,-455
1711037394169,599616076293197393,-2422
1711037394177,599616076300860894,-4504
1711037394185,599616076308524395,-6214
1711037394193,599616076316187896,-6809
1711037394201,599616076323851397,-6388
1711037394208,599616076331514898,-5638
1711037394216,599616076339178399,-4705
1711037394224,599616076346841900,-3968
1711037394231,599616076354505401,-3757
1711037394239,599616076362168902,-3806
1711037394247,599616076369832403,-3926
1711037394254,599616076377495904,-3973
1711037394262,599616076385159405,-3752
1711037394270,599616076392822906,-3463
1711037394277,599616076400486407,-3414
1711037394285,599616076408149908,-3542
1711037394293,599616076415813409,-3720
1711037394300,599616076423476910,-3985
1711037394308,599616076431140411,-4213
1711037394316,599616076438803912,-4181
1711037394323,599616076446467413,-4061
1711037394331,599616076454130914,-4129
1711037394339,599616076461794415,-4127
1711037394345,599616076469457916,-4053
1711037394353,599616076477121417,-4436
1711037394361,599616076484784918,-5082
1711037394369,599616076492448419,-5555
1711037394377,599616076500111920,-6057
1711037394385,599616076507775421,-6657
1711037394392,599616076515438922,-7037
1711037394400,599616076523102423,-7137
1711037394408,599616076530765924,-7329
1711037394415,599616076538429425,-7943
1711037394423,599616076546092926,-8688
1711037394431,599616076553756427,-9127
1711037394438,599616076561419928,-9318
1711037394446,599616076569083429,-9479
1711037394454,599616076576746930,-9756
1711037394461,599616076584410431,-9937
1711037394469,599616076592073932,-9567
1711037394476,599616076599737433,-8686
1711037394484,599616076607400934,-8014
1711037394492,599616076615064435,-8039
1711037394499,599616076622727936,-8323
1711037394507,599616076630391437,-8416
1711037394515,599616076638054938,-8558
1711037394521,599616076645718439,-8803
1711037394529,599616076653381940,-8835
1711037394537,599616076661045441,-8588
1711037394545,599616076668708942,-8228
1711037394553,599616076676372443,-7850
1711037394561,599616076684035944,-7520
1711037394568,599616076691699445,-7348
1711037394576,599616076699362946,-7390
1711037394584,599616076707026447,-7537
1711037394591,599616076714689948,-7630
1711037394599,599616076722353449,-7544
1711037394607,599616076730016950,-7223
1711037394614,599616076737680451,-6599
1711037394622,599616076745343952,-5673
1711037394630,599616076752927232,-4703
1711037394637,599616076760591848,-3850
1711037394645,599616076768256464,-3000
1711037394653,599616076775921080,-2113
1711037394660,599616076783585696,-1418
1711037394668,599616076791250312,-1156
1711037394676,599616076798914928,-1266
1711037394683,599616076806579544,-1560
1711037394691,599616076814244160,-1866
1711037394699,599616076821908776,-1844
1711037394705,599616076829573392,-1210
1711037394713,599616076837238008,-144
1711037394721,599616076844902624,979
1711037394729,599616076852567240,1900
1711037394737,599616076860231856,2486
1711037394745,599616076867896472,2993
1711037394752,599616076875561088,3620
1711037394760,599616076883225704,4046
1711037394768,599616076890890320,4115
1711037394775,599616076898554936,4154
1711037394783,599616076906219552,4262
1711037394791,599616076913884168,4394
1711037394798,599616076921548784,4850
1711037394806,599616076929213400,5548
1711037394814,599616076936878016,5753
1711037394821,599616076944542632,5491
1711037394829,599616076952207248,5418
1711037394837,599616076959871864,5298
1711037394844,599616076967536480,4808
1711037394852,599616076975201096,4281
1711037394860,599616076982865712,4009
1711037394867,599616076990530328,3973
1711037394875,599616076998194944,3745
1711037394883,599616077005859560,3252
1711037394889,599616077013524176,3059
1711037394897,599616077021188792,3233
1711037394905,599616077028853408,3343
1711037394913,599616077036518024,3235
1711037394921,599616077044182640,2897
1711037394929,599616077051847256,2339
1711037394936,599616077059511872,1624
1711037394944,599616077067176488,952
1711037394952,599616077074841104,448
1711037394959,599616077082505720,-132
1711037394967,599616077090170336,-499
1711037394975,599616077097834952,-401
1711037394982,599616077105499568,-541
1711037394990,599616077113164184,-1183
1711037394998,599616077120828800,-1920
1711037395005,599616077128493416,-2731
1711037395013,599616077136158032,-3669
1711037395021,599616077143822648,-4399
1711037395028,599616077151487264,-4534
1711037395036,599616077159151880,-4132
1711037395044,599616077166816496,-4005
1711037395051,599616077174481112,-6870
1711037395059,599616077182145728,-12585
1711037395067,599616077189810344,-14662
1711037395073,599616077197474960,-12571
1711037395081,599616077205139576,-12174
1711037395089,599616077212804192,-12933
1711037395097,599616077220468808,-12362
1711037395105,599616077228133424,-11880
1711037395113,599616077235798040,-12083
1711037395120,599616077243462656,-12269
1711037395128,599616077251127272,-12149
1711037395136,599616077258791888,-11334
1711037395143,599616077266456504,-10444
1711037395151,599616077274121120,-11926
1711037395159,599616077281785736,-15975
1711037395166,599616077289450352,-17614
1711037395174,599616077297114968,-14927
1711037395182,599616077304779584,-12874
1711037395189,599616077312469298,-13009
1711037395197,599616077320133566,-12490
1711037395205,599616077327797834,-12502
1711037395212,599616077335462102,-13291
1711037395220,599616077343126370,-11831
1711037395228,599616077350790638,-9741
1711037395235,599616077358454906,-9068
1711037395243,599616077366119174,-8482
1711037395251,599616077373783442,-7978
1711037395257,599616077381447710,-8022
1711037395265,599616077389111978,-8130
1711037395273,599616077396776246,-8404
1711037395281,599616077404440514,-8962
1711037395289,599616077412104782,-9386
1711037395297,599616077419769050,-9474
1711037395304,599616077427433318,-9251
1711037395312,599616077435097586,-8835
1711037395320,599616077442761854,-8338
1711037395327,599616077450426122,-7894
1711037395335,599616077458090390,-7733
1711037395343,599616077465754658,-7850
1711037395350,599616077473418926,-8076
1711037395358,599616077481083194,-8433
1711037395366,599616077488747462,-9212
1711037395373,599616077496411730,-10697
1711037395381,599616077504075998,-12549
1711037395388,599616077511740266,-14501
1711037395396,599616077519404534,-17404
1711037395404,599616077527068802,-20066
1711037395411,599616077534733070,-20066
1711037395419,599616077542397338,-20066
1711037395427,599616077550061606,-20066
1711037395433,599616077557725874,-20066
1711037395441,599616077565390142,-20066
1711037395449,599616077573054410,-20066
1711037395457,599616077580718678,-19422
1711037395465,599616077588382946,-18484
1711037395473,599616077596047214,-17854
1711037395480,599616077603711482,-17465
1711037395488,599616077611375750,-17007
1711037395496,599616077619040018,-16431
1711037395503,599616077626704286,-15584
1711037395511,599616077634368554,-14680
1711037395519,599616077642032822,-13979
1711037395526,599616077649697090,-13369
1711037395534,599616077657361358,-12916
1711037395542,599616077665025626,-12813
1711037395549,599616077672689894,-12985
1711037395557,599616077680354162,-13421
1711037395565,599616077688018430,-13952
1711037395572,599616077695682698,-14209
1711037395580,599616077703346966,-14665
1711037395588,599616077711011234,-15052
1711037395595,599616077718675502,-13955
1711037395603,599616077726339770,-12683
1711037395611,599616077734004038,-12725
1711037395617,599616077741668306,-12304
1711037395625,599616077749332574,-11221
1711037395633,599616077756996842,-8828
1711037395641,599616077764661110,-4073
1711037395649,599616077772325378,-1374
1711037395657,599616077779989646,-2579
1711037395664,599616077787653914,-4066
1711037395672,599616077795318182,-5077
1711037395680,599616077802982450,-6153
1711037395687,599616077810646718,-5604
1711037395695,599616077818310986,-3914
1711037395703,599616077825975254,-3777
1711037395710,599616077833639522,-4602
1711037395718,599616077841303790,-4340
1711037395726,599616077848968058,-3813
1711037395733,599616077856632326,-4005
1711037395741,599616077864296594,-4071
1711037395749,599616077871960880,-3784
1711037395756,599616077879625148,-3441
1711037395764,599616077887289416,-2873
1711037395772,599616077894953684,-2268
1711037395779,599616077902617952,-1864
1711037395787,599616077910282220,-1398
1711037395795,599616077917946488,-749
1711037395801,599616077925610756,-110
1711037395809,599616077933275024,293
1711037395817,599616077940939292,379
1711037395825,599616077948603560,296
1711037395833,599616077956267828,240
1711037395841,599616077963932096,230
1711037395848,599616077971596364,90
1711037395856,599616077979260632,-330
1711037395864,599616077986924900,-1016
1711037395871,599616077994589168,-1834
1711037395879,599616078002253436,-2314
1711037395887,599616078009917704,-1766
1711037395894,599616078017581972,-144
1711037395902,599616078025246240,1432
1711037395910,599616078032910508,2038
1711037395917,599616078040574776,2496
1711037395925,599616078048239044,2623
1711037395933,599616078055903312,1251
1711037395940,599616078063567580,-110
1711037395948,599616078071231848,-676
1711037395956,599616078078896116,-1820
1711037395963,599616078086560384,-3245
1711037395971,599616078094224652,-4129
1711037395979,599616078101888920,-4899
1711037395985,599616078109553188,-5668
1711037395993,599616078117217456,-6224
1711037396001,599616078124881724,-6648
1711037396009,599616078132545992,-6692
1711037396017,599616078140210260,-6327
1711037396025,599616078147874528,-6251
1711037396032,599616078155538796,-6562
1711037396040,599616078163203064,-6753
1711037396048,599616078170867332,-6861
1711037396055,599616078178531600,-6986
1711037396063,599616078186195868,-6817
1711037396071,599616078193860136,-6297
1711037396078,599616078201524404,-5643
1711037396086,599616078209188672,-4955
1711037396094,599616078216852940,-4208
1711037396101,599616078224517208,-3333
1711037396109,599616078232181476,-2481
1711037396117,599616078239845744,-1949
1711037396124,599616078247510012,-1633
1711037396132,599616078255174280,-1295
1711037396140,599616078262838548,-1131
1711037396147,599616078270502816,-1553
1711037396155,599616078278167084,-2454
1711037396163,599616078285831352,-3297
1711037396169,599616078293495620,-4012
1711037396177,599616078301159888,-4869
1711037396185,599616078308824156,-5717
1711037396193,599616078316488424,-6219
1711037396201,599616078324152692,-6532
1711037396209,599616078331816960,-7044
1711037396216,599616078339481228,-7848
1711037396224,599616078347145496,-8639
1711037396232,599616078354809764,-9038
1711037396239,599616078362474032,-9185
1711037396247,599616078370138300,-9374
1711037396255,599616078377802568,-9474
1711037396262,599616078385466836,-9496
1711037396270,599616078393131104,-9712
1711037396278,599616078400795372,-9972
1711037396285,599616078408459640,-9822
1711037396293,599616078416123908,-9278
1711037396301,599616078423788176,-8908
1711037396308,599616078431437412,-8987
1711037396316,599616078439101889,-9031
1711037396324,599616078446766366,-8661
1711037396331,599616078454430843,-8166
1711037396339,599616078462095320,-7789
1711037396347,599616078469759797,-7333
1711037396353,599616078477424274,-6790
1711037396361,599616078485088751,-6513
1711037396369,599616078492753228,-6650
1711037396377,599616078500417705,-6944
1711037396385,599616078508082182,-7250
1711037396393,599616078515746659,-7618
1711037396400,599616078523411136,-7961
1711037396408,599616078531075613,-8269
1711037396415,599616078538740090,-8558
1711037396423,599616078546404567,-8646
1711037396431,599616078554069044,-8651
1711037396438,599616078561733521,-8911
1711037396446,599616078569397998,-9227
1711037396454,599616078577062475,-9281
1711037396461,599616078584726952,-9188
1711037396469,599616078592391429,-9124
1711037396477,599616078600055906,-9144
1711037396484,599616078607720383,-9269
1711037396492,599616078615384860,-9428
1711037396500,599616078623049337,-9477
1711037396507,599616078630713814,-9325
1711037396515,599616078638378291,-9063
1711037396523,599616078646042768,-8911
1711037396529,599616078653707245,-8921
1711037396537,599616078661371722,-8840
1711037396545,599616078669036199,-8372
1711037396553,599616078676700676,-7618
1711037396561,599616078684365153,-7030
1711037396569,599616078692029630,-6812
1711037396576,599616078699694107,-6878
1711037396584,599616078707358584,-6851
1711037396592,599616078715023061,-6043
1711037396599,599616078722687538,-4570
1711037396607,599616078730352015,-3350
1711037396615,599616078738016492,-2552
1711037396622,599616078745680969,-1824
1711037396630,599616078753345446,-1065
1711037396638,599616078761009923,-360
1711037396645,599616078768674400,154
1711037396653,599616078776338877,355
1711037396661,599616078784003354,137
1711037396668,599616078791667831,-394
1711037396676,599616078799332308,-957
1711037396684,599616078806996785,-1317
1711037396691,599616078814661262,-1383
1711037396699,599616078822325739,-1175
1711037396707,599616078829990216,-837
1711037396713,599616078837654693,-536
1711037396721,599616078845319170,-347
1711037396729,599616078852983647,-203
1711037396737,599616078860648124,31
1711037396745,599616078868312601,384
1711037396753,599616078875977078,759
1711037396760,599616078883641555,970
1711037396768,599616078891306032,903
1711037396776,599616078898970509,636
1711037396783,599616078906634986,399
1711037396791,599616078914299463,467
1711037396799,599616078921963940,984
1711037396806,599616078929628417,1178
1711037396814,599616078937292894,-122
1711037396822,599616078944957371,-1771
1711037396829,599616078952621848,-1795
1711037396837,599616078960286325,-1288
1711037396845,599616078967950802,-1614
1711037396852,599616078975615279,-1856
1711037396860,599616078983279756,-1315
1711037396868,599616078990944252,-622
1711037396875,599616078998608729,-328
1711037396883,599616079006273206,-178
1711037396891,599616079013937683,-169
1711037396897,599616079021602160,-514
1711037396905,599616079029266637,-1028
1711037396913,599616079036931114,-1430
1711037396921,599616079044595591,-1707
1711037396929,599616079052260068,-1866
1711037396937,599616079059924545,-1974
1711037396944,599616079067589022,-2074
1711037396952,599616079075253499,-2060
1711037396960,599616079082917976,-1957
1711037396967,599616079090582453,-1834
1711037396975,599616079098246930,-1773
1711037396983,599616079105911407,-1734
1711037396990,599616079113575884,-1685
1711037396998,599616079121240361,-1675
1711037397006,599616079128904838,-1846
1711037397013,599616079136569315,-1984
1711037397021,599616079144233792,-1670
1711037397029,599616079151898269,-1153
1711037397036,599616079159562746,-1082
1711037397044,599616079167227223,-1658
1711037397052,599616079174891700,-1435
1711037397059,599616079182556177,301
1711037397067,599616079190220654,1214
1711037397075,599616079197885131,1685
1711037397081,599616079205549608,3451
1711037397089,599616079213214085,4622
1711037397097,599616079220878562,5107
1711037397105,599616079228543039,5501
1711037397113,599616079236207516,4808
1711037397121,599616079243871993,3782
1711037397128,599616079251536470,3277
1711037397136,599616079259200947,2865
1711037397144,599616079266865424,2515
1711037397151,599616079274529901,2474
1711037397159,599616079282194378,2150
1711037397167,599616079289858855,879
1711037397174,599616079297523332,-918
1711037397182,599616079305187809,-1986
1711037397190,599616079312852286,-2390
1711037397197,599616079320516763,-3096
1711037397205,599616079328181240,-4046
1711037397213,599616079335845717,-4764
1711037397220,599616079343510194,-5126
1711037397228,599616079351174671,-5254
1711037397236,599616079358839148,-5511
1711037397243,599616079366503625,-5572
1711037397251,599616079374168102,-3782
1711037397259,599616079381832579,-656
1711037397265,599616079389497056,1124
1711037397273,599616079397161533,1655
1711037397281,599616079404826010,2113
1711037397289,599616079412490487,1866
1711037397297,599616079420154964,1178
1711037397305,599616079427819441,1063
1711037397312,599616079435483918,1254
1711037397320,599616079443148395,1290
1711037397328,599616079450812872,1283
1711037397335,599616079458477349,1347
1711037397343,599616079466141826,1521
1711037397351,599616079473806303,1597
1711037397358,599616079481470780,1322
1711037397366,599616079489135257,1009
1711037397374,599616079496799734,707
1711037397381,599616079504464211,181
1711037397389,599616079512128688,-494
1711037397397,599616079519793165,-1170
1711037397404,599616079527457642,-1758
1711037397412,599616079535122119,-2165
1711037397420,599616079542786596,-2439
1711037397427,599616079550466138,-2758
1711037397435,599616079558130406,-3159
1711037397443,599616079565794674,-3877
1711037397449,599616079573458942,-5055
1711037397457,599616079581123210,-6074
1711037397465,599616079588787478,-6704
1711037397473,599616079596451746,-7434
1711037397481,599616079604116014,-8130
1711037397489,599616079611780282,-8406
1711037397496,599616079619444550,-8046
1711037397504,599616079627108818,-7066
1711037397512,599616079634773086,-6111
1711037397519,599616079642437354,-5509
1711037397527,599616079650101622,-5271
1711037397535,599616079657765890,-5342
1711037397542,599616079665430158,-5300
1711037397550,599616079673094426,-4715
1711037397558,599616079680758694,-2628
1711037397565,599616079688422962,443
1711037397573,599616079696087230,1474
1711037397581,599616079703751498,-105
1711037397588,599616079711415766,-1442
1711037397596,599616079719080034,-810
1711037397603,599616079726744302,774
1711037397611,599616079734408570,1876
1711037397619,599616079742072838,2263
1711037397625,599616079749737106,2302
1711037397633,599616079757401374,2197
1711037397641,599616079765065642,1957
1711037397649,599616079772729910,1687
1711037397657,599616079780394178,1335
1711037397665,599616079788058446,732
1711037397672,599616079795722714,-315
1711037397680,599616079803386982,-1415
1711037397688,599616079811051250,-1702
1711037397695,599616079818715518,-1526
1711037397703,599616079826379786,-1594
1711037397711,599616079834044054,-1638
1711037397718,599616079841708322,-1550
1711037397726,599616079849372590,-1570
1711037397734,599616079857036858,-1550
1711037397741,599616079864701126,-1300
1711037397749,599616079872365394,-1060
1711037397757,599616079880029662,-1207
1711037397764,599616079887693930,-1530
1711037397772,599616079895358198,-1440
1711037397780,599616079903022466,-791
1711037397787,599616079910686734,-53
1711037397795,599616079918351002,254
1711037397803,599616079926015270,169
1711037397809,599616079933679538,198
1711037397817,599616079941343806,389
1711037397825,599616079949008074,93
1711037397833,599616079956672342,-306
1711037397841,599616079964336610,164
1711037397849,599616079972000878,455
1711037397856,599616079979665146,-546
1711037397864,599616079987329414,-1545
1711037397872,599616079994993682,-1805
1711037397879,599616080002657950,-2216
1711037397887,599616080010322218,-2750
1711037397895,599616080017986486,-2949
1711037397902,599616080025650754,-3030
1711037397910,599616080033315022,-2951
1711037397918,599616080040979290,-2439
1711037397925,599616080048643558,-1646
1711037397933,599616080056307826,-823
1711037397941,599616080063972094,-39
1711037397948,599616080071636362,629
1711037397956,599616080079300630,1033
1711037397964,599616080086964898,1082
1711037397971,599616080094629166,891
1711037397979,599616080102293434,774
1711037397987,599616080109957718,889
1711037397993,599616080117621986,1161
1711037398001,599616080125286254,1396
1711037398009,599616080132950522,1344
1711037398017,599616080140614790,923
1711037398025,599616080148279058,384
1711037398033,599616080155943326,308
1711037398040,599616080163607594,769
1711037398048,599616080171271862,854
1711037398056,599616080178936130,71
1711037398063,599616080186600398,-1244
1711037398071,599616080194264666,-2356
1711037398079,599616080201928934,-2476
1711037398086,599616080209593202,-2091
1711037398094,599616080217257470,-2170
1711037398102,599616080224921738,-2530
1711037398109,599616080232586006,-2907
1711037398117,599616080240250274,-3566
1711037398125,599616080247914542,-4463
1711037398132,599616080255578810,-5229
1711037398140,599616080263243078,-5580
1711037398148,599616080270907346,-5550
1711037398155,599616080278571614,-5565
1711037398163,599616080286235882,-5773
1711037398171,599616080293900150,-5891
1711037398177,599616080301564418,-5854
1711037398185,599616080309228686,-5802
1711037398193,599616080316892954,-5788
1711037398201,599616080324557222,-5869
1711037398209,599616080332221490,-5903
1711037398217,599616080339885758,-5501
1711037398224,599616080347550026,-4590
1711037398232,599616080355214294,-3730
1711037398240,599616080362878562,-3456
1711037398247,599616080370542830,-3586
1711037398255,599616080378207098,-3669
1711037398263,599616080385871366,-3671
1711037398270,599616080393535634,-3674
1711037398278,599616080401199902,-3515
1711037398286,599616080408864170,-3238
1711037398293,599616080416528438,-3008
1711037398301,599616080424192706,-2596
1711037398309,599616080431856974,-1962
1711037398316,599616080439521242,-1594
1711037398324,599616080447185510,-1751
1711037398332,599616080454849778,-2216
1711037398339,599616080462514046,-2792
1711037398347,599616080470178314,-3346
1711037398355,599616080477842582,-3666
1711037398361,599616080485506850,-3703
1711037398369,599616080493171118,-3681
1711037398377,599616080500835386,-3652
1711037398385,599616080508499654,-3483
1711037398393,599616080516163922,-3336
1711037398401,599616080523828190,-3407
1711037398408,599616080531492458,-3647
1711037398416,599616080539156726,-3985
1711037398424,599616080546820994,-4325
1711037398431,599616080554485262,-4536
1711037398439,599616080562149530,-4524
1711037398447,599616080569813798,-4301
1711037398454,599616080577478066,-4053
1711037398462,599616080585142334,-3948
1711037398470,599616080592806602,-3946
1711037398477,599616080600470870,-3951
1711037398485,599616080608135138,-3845
1711037398493,599616080615799406,-3630
1711037398500,599616080623463674,-3539
1711037398508,599616080631127942,-3529
1711037398516,599616080638792210,-3177
1711037398523,599616080646456478,-2403
1711037398531,599616080654120746,-1432
1711037398539,599616080661785014,-849
1711037398545,599616080669424242,-1185
1711037398553,599616080677088858,-1800
1711037398561,599616080684753474,-1604
1711037398569,599616080692418090,-467
1711037398577,599616080700082706,1072
1711037398585,599616080707747322,2814
1711037398592,599616080715411938,4379
1711037398600,599616080723076554,5124
1711037398607,599616080730741170,5109
1711037398615,599616080738405786,4548
1711037398623,599616080746070402,3610
1711037398630,599616080753735018,2868
1711037398638,599616080761399634,2456
1711037398646,599616080769064250,2329
1711037398653,599616080776728866,2770
1711037398661,599616080784393482,3546
1711037398669,599616080792058098,4164
1711037398676,599616080799722714,4610
1711037398684,599616080807387330,4908
1711037398692,599616080815051946,4952
1711037398699,599616080822716562,4894
1711037398707,599616080830381178,4862
1711037398715,599616080838045794,4676
1711037398721,599616080845710410,4303
1711037398729,599616080853375026,3978
1711037398737,599616080861039642,3755
1711037398745,599616080868704258,3583
1711037398753,599616080876368874,3549
1711037398761,599616080884033490,3801
1711037398768,599616080891698106,4521
1711037398776,599616080899362722,5695
1711037398784,599616080907027338,6650
1711037398791,599616080914691954,6905
1711037398799,599616080922356570,6706
1711037398807,599616080930021186,5611
1711037398814,599616080937685802,3720
1711037398822,599616080945350418,2843
1711037398830,599616080953015034,3167
1711037398837,599616080960679650,3270
1711037398845,599616080968344266,3000
1711037398853,599616080976008882,2650
1711037398860,599616080983673498,2194
1711037398868,599616080991338114,1964
1711037398876,599616080999002730,2148
1711037398883,599616081006667346,2464
1711037398891,599616081014331962,2907
1711037398899,599616081021996578,3613
1711037398905,599616081029661194,4340
1711037398913,599616081037325810,4864
1711037398921,599616081044990426,5249
1711037398929,599616081052655042,5415
1711037398937,599616081060319658,5229
1711037398945,599616081067984274,4837
1711037398952,599616081075648890,4418
1711037398960,599616081083313506,3953
1711037398968,599616081090978122,3402
1711037398975,599616081098642738,2741
1711037398983,599616081106307354,1653
1711037398991,599616081113971970,531
1711037398998,599616081121636586,521
1711037399006,599616081129301202,1312
1711037399014,599616081136965818,1846
1711037399021,599616081144630434,2138
1711037399029,599616081152295050,2189
1711037399037,599616081159959666,1366
1711037399044,599616081167624282,19
1711037399052,599616081175288898,-350
1711037399060,599616081182953514,472
1711037399067,599616081190618130,1359
1711037399075,599616081198282746,1881
1711037399083,599616081205947362,2226
1711037399089,599616081213611978,2564
1711037399097,599616081221276594,2743
1711037399105,599616081228961344,2461
1711037399113,599616081236625681,1905
1711037399121,599616081244290018,1344
1711037399129,599616081251954355,717
1711037399136,599616081259618692,29
1711037399144,599616081267283029,-575
1711037399152,599616081274947366,-1087
1711037399159,599616081282611703,-1440
1711037399167,599616081290276040,-1386
1711037399175,599616081297940377,-945
1711037399182,599616081305604714,-553
1711037399190,599616081313269051,-404
1711037399198,599616081320933388,-355
1711037399205,599616081328597725,-333
1711037399213,599616081336262062,-269
1711037399221,599616081343926399,-83
1711037399228,599616081351590736,58
1711037399236,599616081359255073,144
1711037399244,599616081366919410,511
1711037399251,599616081374583747,859
1711037399259,599616081382248084,526
1711037399267,599616081389912421,-318
1711037399273,599616081397576758,-1075
1711037399281,599616081405241095,-1758
1711037399289,599616081412905432,-2515
1711037399297,599616081420569769,-2981
1711037399305,599616081428234106,-3044
1711037399313,599616081435898443,-3012
1711037399320,599616081443562780,-2875
1711037399328,599616081451227117,-2503
1711037399336,599616081458891454,-2162
1711037399343,599616081466555791,-2011
1711037399351,599616081474220128,-1771
1711037399359,599616081481884465,-1342
1711037399366,599616081489548802,-935
1711037399374,599616081497213139,-634
1711037399382,599616081504877476,-548
1711037399389,599616081512541813,-646
1711037399397,599616081520206150,-712
1711037399405,599616081527870487,-747
1711037399412,599616081535534824,-859
1711037399420,599616081543199161,-1041
1711037399428,599616081550863498,-1178
1711037399435,599616081558527835,-1286
1711037399443,599616081566192172,-1496
1711037399451,599616081573856509,-1717
1711037399457,599616081581520846,-1834
1711037399465,599616081589185183,-2047
1711037399473,599616081596849520,-2417
1711037399481,599616081604513857,-2804
1711037399489,599616081612178194,-3390
