phoneTimestamp,sensorTimestamp,ecg
1711032116198,599616046286854921,7517
1711032116205,599616046294536120,7423
1711032116213,599616046302217319,7615
1711032116221,599616046309898518,7993
1711032116228,599616046317579717,8101
1711032116236,599616046325260916,7507
1711032116244,599616046332942115,6545
1711032116251,599616046340623314,6103
1711032116259,599616046348304513,6151
1711032116267,599616046355985712,6069
1711032116273,599616046363666911,5882
1711032116281,599616046371348110,5776
1711032116289,599616046379029309,5646
1711032116297,599616046386710508,5478
1711032116305,599616046394391707,5355
1711032116313,599616046402072906,5259
1711032116320,599616046409754105,5139
1711032116328,599616046417435304,5023
1711032116336,599616046425116503,4925
1711032116343,599616046432797702,4821
1711032116351,599616046440478901,4725
1711032116359,599616046448160100,4636
1711032116366,599616046455841299,4537
1711032116374,599616046463522498,4439
1711032116382,599616046471203697,4367
1711032116390,599616046478884896,4285
1711032116397,599616046486566095,4186
1711032116405,599616046494247294,4114
1711032116413,599616046501928493,4054
1711032116420,599616046509609692,3970
1711032116428,599616046517290891,3874
1711032116436,599616046524972090,3785
1711032116443,599616046532653289,3717
1711032116451,599616046540334488,3655
1711032116459,599616046548015687,3578
1711032116465,599616046555696886,3477
1711032116473,599616046563378085,3385
1711032116481,599616046571059284,3306
1711032116489,599616046578740483,3207
1711032116497,599616046586421682,3087
1711032116505,599616046594102881,2998
1711032116512,599616046601784080,2926
1711032116520,599616046609465279,2842
1711032116528,599616046617146478,2767
1711032116535,599616046624827677,2712
1711032116543,599616046632508876,2650
1711032116551,599616046640190075,2589
1711032116559,599616046647871274,2539
1711032116566,599616046655552473,2479
1711032116574,599616046663233672,2424
1711032116582,599616046670914871,2385
1711032116589,599616046678596070,2337
1711032116597,599616046686277269,2279
1711032116605,599616046693958468,2243
1711032116612,599616046701639667,2207
1711032116620,599616046709320866,2159
1711032116628,599616046717002065,2111
1711032116635,599616046724683264,2068
1711032116643,599616046732364463,2034
1711032116651,599616046740045662,2003
1711032116657,599616046747726861,1967
1711032116665,599616046755408060,1923
1711032116673,599616046763089259,1882
1711032116681,599616046770770458,1844
1711032116689,599616046778451657,1805
1711032116697,599616046786132856,1767
1711032116704,599616046793814055,1724
1711032116712,599616046801495254,1683
1711032116720,599616046809176453,1654
1711032116728,599616046816857652,1623
1711032116735,599616046824538851,1582
1711032116743,599616046832220050,1546
1711032116751,599616046839901249,1527
1711032116758,599616046847612576,1502
1711032116766,599616046855293357,1469
1711032116774,599616046862974138,1447
1711032116781,599616046870654919,1426
1711032116789,599616046878335700,1394
1711032116797,599616046886016481,1358
1711032116804,599616046893697262,1329
1711032116812,599616046901378043,1310
1711032116820,599616046909058824,1288
1711032116827,599616046916739605,1267
1711032116835,599616046924420386,1238
1711032116843,599616046932101167,1212
1711032116849,599616046939781948,1199
1711032116857,599616046947462729,1180
1711032116865,599616046955143510,1144
1711032116873,599616046962824291,1113
1711032116881,599616046970505072,1096
1711032116889,599616046978185853,1086
1711032116897,599616046985866634,1077
1711032116904,599616046993547415,1055
1711032116912,599616047001228196,1031
1711032116920,599616047008908977,1019
1711032116927,599616047016589758,1005
1711032116935,599616047024270539,973
1711032116943,599616047031951320,935
1711032116950,599616047039632101,911
1711032116958,599616047047312882,906
1711032116966,599616047054993663,928
1711032116973,599616047062674444,942
1711032116981,599616047070355225,909
1711032116989,599616047078036006,875
1711032116996,599616047085716787,877
1711032117004,599616047093397568,860
1711032117012,599616047101078349,812
1711032117019,599616047108759130,774
1711032117027,599616047116439911,759
1711032117035,599616047124120692,759
1711032117041,599616047131801473,755
1711032117049,599616047139482254,735
1711032117057,599616047147163035,711
1711032117065,599616047154843816,687
1711032117073,599616047162524597,767
1711032117081,599616047170205378,1137
1711032117089,599616047177886159,1717
1711032117096,599616047185566940,2020
1711032117104,599616047193247721,1534
1711032117112,599616047200928502,591
1711032117119,599616047208609283,223
1711032117127,599616047216290064,461
1711032117135,599616047223970845,557
1711032117142,599616047231651626,490
1711032117150,599616047239332407,497
1711032117158,599616047247013188,485
1711032117165,599616047254693969,440
1711032117173,599616047262374750,444
1711032117181,599616047270055531,468
1711032117188,599616047277736312,456
1711032117196,599616047285417093,444
1711032117204,599616047293097874,461
1711032117211,599616047300778655,468
1711032117219,599616047308459436,466
1711032117227,599616047316140217,466
1711032117233,599616047323820998,464
1711032117241,599616047331501779,468
1711032117249,599616047339182560,483
1711032117257,599616047346863341,492
1711032117265,599616047354544122,497
1711032117273,599616047362224903,497
1711032117281,599616047369905684,492
1711032117288,599616047377586465,490
1711032117296,599616047385267246,488
1711032117304,599616047392948027,485
1711032117311,599616047400628808,483
1711032117319,599616047408279521,471
1711032117327,599616047415960720,444
1711032117334,599616047423641919,413
1711032117342,599616047431323118,387
1711032117350,599616047439004317,353
1711032117357,599616047446685516,307
1711032117365,599616047454366715,262
1711032117373,599616047462047914,230
1711032117380,599616047469729113,206
1711032117388,599616047477410312,182
1711032117396,599616047485091511,156
1711032117403,599616047492772710,149
1711032117411,599616047500453909,149
1711032117419,599616047508135108,144
1711032117425,599616047515816307,141
1711032117433,599616047523497506,141
1711032117441,599616047531178705,134
1711032117449,599616047538859904,139
1711032117457,599616047546541103,149
1711032117465,599616047554222302,141
1711032117473,599616047561903501,129
1711032117480,599616047569584700,134
1711032117488,599616047577265899,141
1711032117496,599616047584947098,139
1711032117503,599616047592628297,144
1711032117511,599616047600309496,146
1711032117519,599616047607990695,141
1711032117526,599616047615671894,132
1711032117534,599616047623353093,120
1711032117542,599616047631034292,117
1711032117549,599616047638715491,127
1711032117557,599616047646396690,113
1711032117565,599616047654077889,91
1711032117572,599616047661759088,101
1711032117580,599616047669440287,117
1711032117588,599616047677121486,105
1711032117595,599616047684802685,93
1711032117603,599616047692483884,101
1711032117611,599616047700165083,110
1711032117617,599616047707846282,105
1711032117625,599616047715527481,91
1711032117633,599616047723208680,69
1711032117641,599616047730889879,69
1711032117649,599616047738571078,76
1711032117657,599616047746252277,67
1711032117665,599616047753933476,60
1711032117672,599616047761614675,69
1711032117680,599616047769295874,67
1711032117688,599616047776977073,55
1711032117695,599616047784658272,57
1711032117703,599616047792339471,60
1711032117711,599616047800020670,48
1711032117718,599616047807701869,33
1711032117726,599616047815383068,24
1711032117734,599616047823064267,9
1711032117741,599616047830745466,21
1711032117749,599616047838426665,74
1711032117757,599616047846107864,84
1711032117764,599616047853789063,50
1711032117772,599616047861470262,57
1711032117780,599616047869151461,76
1711032117787,599616047876832660,45
1711032117795,599616047884513859,16
1711032117803,599616047892195058,16
1711032117811,599616047899876257,16
1711032117817,599616047907557456,2
1711032117825,599616047915238655,-7
1711032117833,599616047922919854,-7
1711032117841,599616047930601053,-21
1711032117849,599616047938282252,-12
1711032117857,599616047945963451,209
1711032117864,599616047953644650,731
1711032117872,599616047961325849,1250
1711032117880,599616047969012120,1190
1711032117887,599616047976693249,375
1711032117895,599616047984374378,-346
1711032117903,599616047992055507,-303
1711032117910,599616047999736636,-69
1711032117918,599616048007417765,-103
1711032117926,599616048015098894,-144
1711032117933,599616048022780023,-115
1711032117941,599616048030461152,-115
1711032117949,599616048038142281,-125
1711032117956,599616048045823410,-125
1711032117964,599616048053504539,-120
1711032117972,599616048061185668,-105
1711032117980,599616048068866797,-93
1711032117987,599616048076547926,-96
1711032117995,599616048084229055,-93
1711032118003,599616048091910184,-79
1711032118009,599616048099591313,-67
1711032118017,599616048107272442,-57
1711032118025,599616048114953571,-38
1711032118033,599616048122634700,-24
1711032118041,599616048130315829,-14
1711032118049,599616048137996958,4
1711032118056,599616048145678087,19
1711032118064,599616048153359216,12
1711032118072,599616048161040345,19
1711032118079,599616048168721474,33
1711032118087,599616048176402603,26
1711032118095,599616048184083732,4
1711032118102,599616048191764861,-14
1711032118110,599616048199445990,-19
1711032118118,599616048207127119,-28
1711032118125,599616048214808248,-57
1711032118133,599616048222489377,-91
1711032118141,599616048230170506,-137
1711032118148,599616048237851635,-175
1711032118156,599616048245532764,-189
1711032118164,599616048253213893,-204
1711032118172,599616048260895022,-223
1711032118179,599616048268576151,-221
1711032118187,599616048276257280,-206
1711032118195,599616048283938409,-204
1711032118201,599616048291619538,-218
1711032118209,599616048299300667,-216
1711032118217,599616048306981796,-192
1711032118225,599616048314662925,-185
1711032118233,599616048322344054,-204
1711032118241,599616048330025183,-206
1711032118248,599616048337706312,-170
1711032118256,599616048345387441,-137
1711032118264,599616048353068570,-134
1711032118271,599616048360749699,-141
1711032118279,599616048368430828,-132
1711032118287,599616048376111957,-113
1711032118294,599616048383793086,-108
1711032118302,599616048391474215,-113
1711032118310,599616048399155344,-108
1711032118317,599616048406836473,-91
1711032118325,599616048414517602,-76
1711032118333,599616048422198731,-76
1711032118341,599616048429879860,-81
1711032118348,599616048437560989,-69
1711032118356,599616048445242118,-64
1711032118364,599616048452923247,-74
1711032118371,599616048460604376,-76
1711032118379,599616048468285505,-74
1711032118387,599616048475966634,-69
1711032118393,599616048483647763,-62
1711032118401,599616048491328892,-64
1711032118409,599616048499010021,-69
1711032118417,599616048506691150,-67
1711032118425,599616048514372279,-62
1711032118433,599616048522053408,-72
1711032118440,599616048529754607,-76
1711032118448,599616048537435458,-64
1711032118456,599616048545116309,-55
1711032118463,599616048552797160,-55
1711032118471,599616048560478011,-50
1711032118479,599616048568158862,-40
1711032118486,599616048575839713,-33
1711032118494,599616048583520564,-31
1711032118502,599616048591201415,-45
1711032118510,599616048598882266,-81
1711032118517,599616048606563117,-93
1711032118525,599616048614243968,-86
1711032118533,599616048621924819,-76
1711032118540,599616048629605670,-48
1711032118548,599616048637286521,-21
1711032118556,599616048644967372,-12
1711032118563,599616048652648223,-9
1711032118571,599616048660329074,-16
1711032118579,599616048668009925,-33
1711032118585,599616048675690776,-43
1711032118593,599616048683371627,-45
1711032118601,599616048691052478,-50
1711032118609,599616048698733329,-50
1711032118617,599616048706414180,-48
1711032118625,599616048714095031,-52
1711032118632,599616048721775882,-57
1711032118640,599616048729456733,40
1711032118648,599616048737137584,387
1711032118655,599616048744818435,882
1711032118663,599616048752499286,1149
1711032118671,599616048760180137,781
1711032118679,599616048767860988,-7
1711032118686,599616048775541839,-353
1711032118694,599616048783222690,-175
1711032118702,599616048790903541,-91
1711032118709,599616048798584392,-139
1711032118717,599616048806265243,-127
1711032118725,599616048813946094,-120
1711032118732,599616048821626945,-134
1711032118740,599616048829307796,-125
1711032118748,599616048836988647,-108
1711032118755,599616048844669498,-96
1711032118763,599616048852350349,-76
1711032118771,599616048860031200,-64
1711032118777,599616048867712051,-55
1711032118785,599616048875392902,-40
1711032118793,599616048883073753,-38
1711032118801,599616048890754604,-43
1711032118809,599616048898435455,-33
1711032118817,599616048906116306,-16
1711032118824,599616048913797157,-9
1711032118832,599616048921478008,-12
1711032118840,599616048929158859,0
1711032118847,599616048936839710,19
1711032118855,599616048944520561,31
1711032118863,599616048952201412,31
1711032118871,599616048959882263,28
1711032118878,599616048967563114,28
1711032118886,599616048975243965,36
1711032118894,599616048982924816,36
1711032118901,599616048990605667,26
1711032118909,599616048998286518,16
1711032118917,599616049005967369,2
1711032118924,599616049013648220,-31
1711032118932,599616049021329071,-81
1711032118940,599616049029009922,-120
1711032118947,599616049036690773,-129
1711032118955,599616049044371624,-141
1711032118963,599616049052052475,-168
1711032118969,599616049059733326,-187
1711032118977,599616049067414177,-189
1711032118985,599616049075095028,-185
1711032118993,599616049082775879,-175
1711032119001,599616049090431680,-177
1711032119009,599616049098112879,-185
1711032119016,599616049105794078,-168
1711032119024,599616049113475277,-153
1711032119032,599616049121156476,-161
1711032119039,599616049128837675,-165
1711032119047,599616049136518874,-168
1711032119055,599616049144200073,-168
1711032119063,599616049151881272,-156
1711032119070,599616049159562471,-149
1711032119078,599616049167243670,-156
1711032119086,599616049174924869,-151
1711032119093,599616049182606068,-141
1711032119101,599616049190287267,-141
1711032119109,599616049197968466,-144
1711032119116,599616049205649665,-141
1711032119124,599616049213330864,-139
1711032119132,599616049221012063,-129
1711032119139,599616049228693262,-134
1711032119147,599616049236374461,-137
1711032119155,599616049244055660,-125
1711032119161,599616049251736859,-113
1711032119169,599616049259418058,-110
1711032119177,599616049267099257,-110
1711032119185,599616049274780456,-120
1711032119193,599616049282461655,-127
1711032119201,599616049290142854,-127
1711032119208,599616049297824053,-120
1711032119216,599616049305505252,-122
1711032119224,599616049313186451,-120
1711032119232,599616049320867650,-113
1711032119239,599616049328548849,-110
1711032119247,599616049336230048,-115
1711032119255,599616049343911247,-117
1711032119262,599616049351592446,-120
1711032119270,599616049359273645,-98
1711032119278,599616049366954844,-72
1711032119285,599616049374636043,-74
1711032119293,599616049382317242,-74
1711032119301,599616049389998441,-64
1711032119308,599616049397679640,-72
1711032119316,599616049405360839,-88
1711032119324,599616049413042038,-96
1711032119331,599616049420723237,-103
1711032119339,599616049428404436,-105
1711032119347,599616049436085635,-98
1711032119353,599616049443766834,-101
1711032119361,599616049451448033,-127
1711032119369,599616049459129232,-132
1711032119377,599616049466810431,21
1711032119385,599616049474491630,444
1711032119393,599616049482172829,949
1711032119400,599616049489854028,1019
1711032119408,599616049497535227,396
1711032119416,599616049505216426,-283
1711032119424,599616049512897625,-360
1711032119431,599616049520578824,-194
1711032119439,599616049528260023,-185
1711032119447,599616049535941222,-185
1711032119454,599616049543622421,-170
1711032119462,599616049551303620,-192
1711032119470,599616049558984819,-189
1711032119477,599616049566666018,-168
1711032119485,599616049574347217,-165
1711032119493,599616049582028416,-158
1711032119500,599616049589709615,-141
1711032119508,599616049597390814,-129
1711032119516,599616049605072013,-117
1711032119523,599616049612753212,-105
1711032119531,599616049620434411,-103
1711032119539,599616049628115610,-96
1711032119545,599616049635796809,-79
1711032119553,599616049643478008,-64
1711032119561,599616049651159241,-55
1711032119569,599616049658840440,-40
1711032119577,599616049666521639,-31
1711032119585,599616049674202838,-38
1711032119593,599616049681884037,-45
1711032119600,599616049689565236,-38
1711032119608,599616049697246435,-26
1711032119616,599616049704927634,-24
1711032119623,599616049712608833,-36
1711032119631,599616049720290032,-45
1711032119639,599616049727971231,-50
1711032119646,599616049735652430,-62
1711032119654,599616049743333629,-93
1711032119662,599616049751014828,-129
1711032119669,599616049758696027,-161
1711032119677,599616049766377226,-185
1711032119685,599616049774058425,-204
1711032119692,599616049781739624,-223
1711032119700,599616049789420823,-245
1711032119708,599616049797102022,-247
1711032119715,599616049804783221,-233
1711032119723,599616049812464420,-233
1711032119731,599616049820145619,-242
1711032119737,599616049827826818,-242
1711032119745,599616049835508017,-235
1711032119753,599616049843189216,-230
1711032119761,599616049850870415,-233
1711032119769,599616049858551614,-238
1711032119777,599616049866232813,-233
1711032119785,599616049873914012,-221
1711032119792,599616049881595211,-223
1711032119800,599616049889276410,-230
1711032119808,599616049896957609,-230
1711032119815,599616049904638808,-226
1711032119823,599616049912320007,-223
1711032119831,599616049920001206,-221
1711032119838,599616049927682405,-206
1711032119846,599616049935363604,-192
1711032119854,599616049943044803,-197
1711032119861,599616049950726002,-209
1711032119869,599616049958407201,-214
1711032119877,599616049966088400,-221
1711032119884,599616049973769599,-223
1711032119892,599616049981450798,-216
1711032119900,599616049989131997,-218
1711032119907,599616049996813196,-230
1711032119915,599616050004494395,-230
1711032119923,599616050012175594,-216
1711032119931,599616050019856793,-218
1711032119937,599616050027537992,-235
1711032119945,599616050035219191,-242
1711032119953,599616050042900390,-247
1711032119961,599616050050581589,-228
1711032119969,599616050058262788,-189
1711032119977,599616050065943987,-163
1711032119984,599616050073625186,-151
1711032119992,599616050081306385,-132
1711032120000,599616050088987584,-125
1711032120007,599616050096668783,-141
1711032120015,599616050104349982,-158
1711032120023,599616050112031181,-170
1711032120030,599616050119712380,-165
1711032120038,599616050127393579,-144
1711032120046,599616050135074778,-141
1711032120053,599616050142755977,-158
1711032120061,599616050150437176,-168
1711032120069,599616050158118375,-153
1711032120076,599616050165799574,26
1711032120084,599616050173480773,521
1711032120092,599616050181161972,1086
1711032120099,599616050188843171,1113
1711032120107,599616050196524370,343
1711032120115,599616050204205569,-413
1711032120123,599616050211916896,-430
1711032120129,599616050219597677,-204
1711032120137,599616050227278458,-197
1711032120145,599616050234959239,-206
1711032120153,599616050242640020,-192
1711032120161,599616050250320801,-204
1711032120169,599616050258001582,-189
1711032120176,599616050265682363,-170
1711032120184,599616050273363144,-185
1711032120192,599616050281043925,-182
1711032120199,599616050288724706,-153
1711032120207,599616050296405487,-134
1711032120215,599616050304086268,-125
1711032120222,599616050311767049,-115
1711032120230,599616050319447830,-103
1711032120238,599616050327128611,-86
1711032120245,599616050334809392,-64
1711032120253,599616050342490173,-45
1711032120261,599616050350170954,-26
1711032120268,599616050357851735,-14
1711032120276,599616050365532516,-14
1711032120284,599616050373213297,-12
1711032120292,599616050380894078,-2
1711032120299,599616050388574859,9
1711032120307,599616050396255640,24
1711032120315,599616050403936421,24
1711032120321,599616050411617202,14
1711032120329,599616050419297983,9
1711032120337,599616050426978764,2
1711032120345,599616050434659545,-19
1711032120353,599616050442340326,-52
1711032120361,599616050450021107,-81
1711032120368,599616050457701888,-110
1711032120376,599616050465382669,-137
1711032120384,599616050473063450,-153
1711032120391,599616050480744231,-170
1711032120399,599616050488425012,-180
1711032120407,599616050496105793,-180
1711032120414,599616050503786574,-175
1711032120422,599616050511467355,-187
1711032120430,599616050519148136,-192
1711032120437,599616050526828917,-177
1711032120445,599616050534509698,-161
1711032120453,599616050542190479,-151
1711032120461,599616050549871260,-141
1711032120468,599616050557552041,-139
1711032120476,599616050565232822,-134
1711032120484,599616050572913603,-120
1711032120491,599616050580594384,-120
1711032120499,599616050588275165,-129
1711032120507,599616050595955946,-129
1711032120513,599616050603636727,-113
1711032120521,599616050611317508,-105
1711032120529,599616050618998289,-115
1711032120537,599616050626679070,-117
1711032120545,599616050634359851,-108
1711032120553,599616050642040632,-110
1711032120560,599616050649721413,-115
1711032120568,599616050657402194,-105
1711032120576,599616050665082975,-101
1711032120583,599616050672763756,-103
1711032120591,599616050680444537,-103
1711032120599,599616050688125318,-108
1711032120606,599616050695806099,-110
1711032120614,599616050703486880,-117
1711032120622,599616050711167661,-125
1711032120629,599616050718848442,-122
1711032120637,599616050726529223,-96
1711032120645,599616050734210004,-62
1711032120653,599616050741890785,-52
1711032120660,599616050749571566,-52
1711032120668,599616050757252347,-45
1711032120676,599616050764933128,-52
1711032120683,599616050772583841,-69
1711032120691,599616050780265040,-72
1711032120699,599616050787946239,-72
1711032120705,599616050795627438,-81
1711032120713,599616050803308637,-81
1711032120721,599616050810989836,-74
1711032120729,599616050818671035,-93
1711032120737,599616050826352234,-115
1711032120745,599616050834033433,26
1711032120752,599616050841714632,500
1711032120760,599616050849395831,1127
1711032120768,599616050857077030,1291
1711032120775,599616050864758229,562
1711032120783,599616050872439428,-365
1711032120791,599616050880120627,-500
1711032120798,599616050887801826,-216
1711032120806,599616050895483025,-197
1711032120814,599616050903164224,-242
1711032120821,599616050910845423,-202
1711032120829,599616050918526622,-197
1711032120837,599616050926207821,-194
1711032120845,599616050933889020,-168
1711032120852,599616050941570219,-153
1711032120860,599616050949251418,-137
1711032120868,599616050956932617,-110
1711032120875,599616050964613816,-108
1711032120883,599616050972295015,-110
1711032120891,599616050979976214,-91
1711032120897,599616050987657413,-67
1711032120905,599616050995338612,-45
1711032120913,599616051003019811,-31
1711032120921,599616051010701010,-24
1711032120929,599616051018382209,-12
1711032120937,599616051026063408,19
1711032120944,599616051033744607,43
1711032120952,599616051041425806,50
1711032120960,599616051049107005,57
1711032120967,599616051056788204,67
1711032120975,599616051064469403,69
1711032120983,599616051072150602,62
1711032120990,599616051079831801,52
1711032120998,599616051087513000,33
1711032121006,599616051095194199,7
1711032121014,599616051102875398,-7
1711032121021,599616051110556597,-24
1711032121029,599616051118237796,-50
1711032121037,599616051125918995,-81
1711032121044,599616051133600194,-103
1711032121052,599616051141281393,-127
1711032121060,599616051148962592,-153
1711032121067,599616051156643791,-168
1711032121075,599616051164324990,-165
1711032121083,599616051172006189,-156
1711032121089,599616051179687388,-141
1711032121097,599616051187368587,-134
1711032121105,599616051195049786,-132
1711032121113,599616051202730985,-117
1711032121121,599616051210412184,-105
1711032121129,599616051218093383,-103
1711032121136,599616051225774582,-98
1711032121144,599616051233455781,-91
1711032121152,599616051241136980,-86
1711032121159,599616051248818179,-88
1711032121167,599616051256499378,-96
1711032121175,599616051264180577,-96
1711032121183,599616051271861776,-81
1711032121190,599616051279542975,-76
1711032121198,599616051287224174,-84
1711032121206,599616051294905373,-81
1711032121213,599616051302586572,-72
1711032121221,599616051310267771,-64
1711032121229,599616051317948970,-69
1711032121236,599616051325630169,-72
1711032121244,599616051333311400,-67
1711032121252,599616051340992599,-76
1711032121259,599616051348673798,-93
1711032121267,599616051356354997,-93
1711032121275,599616051364036196,-74
1711032121281,599616051371717395,-74
1711032121289,599616051379398594,-96
1711032121297,599616051387079793,-98
1711032121305,599616051394760992,-84
1711032121313,599616051402442191,-76
1711032121321,599616051410123390,-81
1711032121328,599616051417804589,-69
1711032121336,599616051425485788,-60
1711032121344,599616051433166987,-67
1711032121351,599616051440848186,-52
1711032121359,599616051448529385,-26
1711032121367,599616051456210584,-36
1711032121375,599616051463891783,-60
1711032121382,599616051471572982,-60
1711032121390,599616051479254181,-64
1711032121398,599616051486935380,-69
1711032121405,599616051494616579,-52
1711032121413,599616051502297778,-43
1711032121421,599616051509978977,-52
1711032121428,599616051517660176,-74
1711032121436,599616051525341375,-33
1711032121444,599616051533022574,264
1711032121451,599616051540703773,795
1711032121459,599616051548384972,1204
1711032121467,599616051556066171,1010
1711032121473,599616051563747370,192
1711032121481,599616051571428569,-387
1711032121489,599616051579109768,-276
1711032121497,599616051586790967,-110
1711032121505,599616051594472166,-163
1711032121513,599616051602153365,-177
1711032121520,599616051609834564,-149
1711032121528,599616051617515763,-161
1711032121536,599616051625196962,-158
1711032121544,599616051632878161,-134
1711032121551,599616051640559360,-120
1711032121559,599616051648240559,-113
1711032121567,599616051655921758,-108
1711032121574,599616051663602957,-108
1711032121582,599616051671284156,-105
1711032121590,599616051678965355,-88
1711032121597,599616051686646554,-74
1711032121605,599616051694327753,-64
1711032121613,599616051702008952,-48
1711032121620,599616051709690151,-31
1711032121628,599616051717371350,-14
1711032121636,599616051725052549,12
1711032121643,599616051732733748,38
1711032121651,599616051740414947,50
1711032121659,599616051748096146,67
1711032121665,599616051755777345,81
1711032121673,599616051763458544,81
1711032121681,599616051771139743,69
1711032121689,599616051778820942,64
1711032121697,599616051786502141,64
1711032121705,599616051794183340,43
1711032121713,599616051801864539,12
1711032121720,599616051809545738,-14
1711032121728,599616051817226937,-50
1711032121736,599616051824908136,-91
1711032121743,599616051832589335,-122
1711032121751,599616051840270534,-141
1711032121759,599616051847951733,-153
1711032121766,599616051855632932,-156
1711032121774,599616051863314131,-146
1711032121782,599616051870995330,-141
1711032121789,599616051878676529,-149
1711032121797,599616051886357728,-151
1711032121805,599616051894038959,-129
1711032121812,599616051901720158,-110
1711032121820,599616051909401357,-113
1711032121828,599616051917082556,-113
1711032121835,599616051924763755,-91
1711032121843,599616051932444954,-84
1711032121851,599616051940126153,-84
1711032121857,599616051947807352,-79
1711032121865,599616051955488551,-76
1711032121873,599616051963169750,-84
1711032121881,599616051970850949,-93
1711032121889,599616051978532148,-96
1711032121897,599616051986213347,-91
1711032121905,599616051993894546,-84
1711032121912,599616052001575745,-74
1711032121920,599616052009256944,-67
1711032121928,599616052016938143,-62
1711032121935,599616052024619342,-55
1711032121943,599616052032300541,-50
1711032121951,599616052039981740,-52
1711032121958,599616052047662939,-55
1711032121966,599616052055344138,-45
1711032121974,599616052063025337,-38
1711032121981,599616052070706536,-52
1711032121989,599616052078387735,-67
1711032121997,599616052086068934,-60
1711032122004,599616052093750133,-50
1711032122012,599616052101431332,-48
1711032122020,599616052109112531,-55
1711032122027,599616052116793730,-69
1711032122035,599616052124474929,-69
1711032122043,599616052132156128,-62
1711032122049,599616052139837327,-69
1711032122057,599616052147518526,-64
1711032122065,599616052155199725,-36
1711032122073,599616052162880924,-26
1711032122081,599616052170562123,-31
1711032122089,599616052178243322,-19
1711032122097,599616052185924521,-14
1711032122104,599616052193605720,-26
1711032122112,599616052201286919,-45
1711032122120,599616052208968118,-62
1711032122127,599616052216649317,-60
1711032122135,599616052224330516,-48
1711032122143,599616052232011715,-48
1711032122150,599616052239692914,-55
1711032122158,599616052247374113,-72
1711032122166,599616052255055312,-21
1711032122173,599616052262736511,271
1711032122181,599616052270417710,798
1711032122189,599616052278098909,1195
1711032122196,599616052285780108,945
1711032122204,599616052293461307,115
1711032122212,599616052301142506,-363
1711032122219,599616052308823705,-206
1711032122227,599616052316504904,-69
1711032122235,599616052324186103,-110
1711032122243,599616052331867302,-98
1711032122249,599616052339548501,-91
1711032122257,599616052347229700,-117
1711032122265,599616052354910899,-101
1711032122273,599616052362592098,-76
1711032122281,599616052370273297,-76
1711032122289,599616052377954496,-76
1711032122296,599616052385635695,-72
1711032122304,599616052393316894,-64
1711032122312,599616052400998093,-55
1711032122319,599616052408679292,-48
1711032122327,599616052416360491,-31
1711032122335,599616052424041690,-7
1711032122342,599616052431722889,12
1711032122350,599616052439404088,16
1711032122358,599616052447085287,14
1711032122365,599616052454766518,14
1711032122373,599616052462447717,33
1711032122381,599616052470128916,52
1711032122388,599616052477810115,52
1711032122396,599616052485491314,50
1711032122404,599616052493172513,60
1711032122411,599616052500853712,60
1711032122419,599616052508534911,52
1711032122427,599616052516216110,57
1711032122435,599616052523897309,55
1711032122441,599616052531578508,33
1711032122449,599616052539259707,2
1711032122457,599616052546940906,-31
1711032122465,599616052554622105,-67
1711032122473,599616052562303304,-81
1711032122481,599616052569984503,-91
1711032122488,599616052577665702,-110
1711032122496,599616052585346901,-120
1711032122504,599616052593028100,-108
1711032122511,599616052600709299,-93
1711032122519,599616052608390498,-93
1711032122527,599616052616071697,-93
1711032122534,599616052623752896,-86
1711032122542,599616052631434095,-64
1711032122550,599616052639115294,-57
1711032122557,599616052646796493,-64
1711032122565,599616052654477692,-60
1711032122573,599616052662158891,-43
1711032122580,599616052669840090,-40
1711032122588,599616052677521289,-52
1711032122596,599616052685202488,-62
1711032122604,599616052692883687,-62
1711032122611,599616052700564886,-60
1711032122619,599616052708246085,-60
1711032122627,599616052715927284,-69
1711032122633,599616052723608483,-76
1711032122641,599616052731289682,-69
1711032122649,599616052738970881,-55
1711032122657,599616052746652080,-55
1711032122665,599616052754333279,-57
1711032122673,599616052762014478,-50
1711032122680,599616052769695677,-43
1711032122688,599616052777376876,-40
1711032122696,599616052785058075,-45
1711032122703,599616052792739274,-52
1711032122711,599616052800420473,-50
1711032122719,599616052808101672,-45
1711032122726,599616052815782871,-43
1711032122734,599616052823464070,-50
1711032122742,599616052831145269,-57
1711032122749,599616052838826468,-55
1711032122757,599616052846507667,-50
1711032122765,599616052854188866,-55
1711032122773,599616052861870065,-55
1711032122780,599616052869551264,-52
1711032122788,599616052877232463,-55
1711032122796,599616052884913662,-57
1711032122803,599616052892594861,-55
1711032122811,599616052900276060,-28
1711032122819,599616052907957259,4
1711032122825,599616052915638458,14
1711032122833,599616052923319657,9
1711032122841,599616052931000856,9
1711032122849,599616052938682055,0
1711032122857,599616052946363254,-26
1711032122865,599616052954044453,-43
1711032122872,599616052961725652,-40
1711032122880,599616052969406851,-36
1711032122888,599616052977088050,-24
1711032122895,599616052984769249,-16
1711032122903,599616052992450448,-36
1711032122911,599616053000131647,-24
1711032122918,599616053007812846,175
1711032122926,599616053015514167,649
1711032122934,599616053023195087,1171
1711032122942,599616053030876007,1199
1711032122949,599616053038556927,456
1711032122957,599616053046237847,-334
1711032122965,599616053053918767,-370
1711032122972,599616053061599687,-103
1711032122980,599616053069280607,-91
1711032122988,599616053076961527,-132
1711032122995,599616053084642447,-108
1711032123003,599616053092323367,-134
1711032123011,599616053100004287,-158
1711032123017,599616053107685207,-127
1711032123025,599616053115366127,-108
1711032123033,599616053123047047,-110
1711032123041,599616053130727967,-101
1711032123049,599616053138408887,-88
1711032123057,599616053146089807,-67
1711032123064,599616053153770727,-43
1711032123072,599616053161451647,-26
1711032123080,599616053169132567,-12
1711032123087,599616053176813487,0
1711032123095,599616053184494407,14
1711032123103,599616053192175327,36
1711032123111,599616053199856247,60
1711032123118,599616053207537167,69
1711032123126,599616053215218087,64
1711032123134,599616053222899007,69
1711032123141,599616053230579927,88
1711032123149,599616053238260847,86
1711032123157,599616053245941767,72
1711032123164,599616053253622687,69
1711032123172,599616053261303607,60
1711032123180,599616053268984527,48
1711032123187,599616053276665447,38
1711032123195,599616053284346367,19
1711032123203,599616053292027287,-7
1711032123209,599616053299708207,-28
1711032123217,599616053307389127,-55
1711032123225,599616053315070047,-86
1711032123233,599616053322750967,-110
1711032123241,599616053330431887,-115
1711032123249,599616053338112807,-113
1711032123256,599616053345793727,-105
1711032123264,599616053353474647,-110
1711032123272,599616053361155567,-117
1711032123279,599616053368836487,-103
1711032123287,599616053376517407,-86
1711032123295,599616053384198327,-81
1711032123303,599616053391879247,-84
1711032123310,599616053399560167,-81
1711032123318,599616053407241087,-62
1711032123326,599616053414922007,-48
1711032123333,599616053422602927,-52
1711032123341,599616053430283847,-64
1711032123349,599616053437964767,-57
1711032123356,599616053445645687,-40
1711032123364,599616053453326607,-31
1711032123372,599616053461007527,-33
1711032123379,599616053468688447,-33
1711032123387,599616053476369367,-28
1711032123395,599616053484050287,-26
1711032123401,599616053491731207,-31
1711032123409,599616053499412127,-28
1711032123417,599616053507093047,-19
1711032123425,599616053514773967,-9
1711032123433,599616053522454887,-7
1711032123441,599616053530135807,-2
1711032123448,599616053537816727,4
1711032123456,599616053545497647,7
1711032123464,599616053553178567,2
1711032123472,599616053560859487,-7
1711032123479,599616053568540407,-14
1711032123487,599616053576181204,-21
1711032123495,599616053583862682,-26
1711032123502,599616053591544160,-4
1711032123510,599616053599225638,24
1711032123518,599616053606907116,38
1711032123525,599616053614588594,64
1711032123533,599616053622270072,79
1711032123541,599616053629951550,45
1711032123548,599616053637633028,21
1711032123556,599616053645314506,36
1711032123564,599616053652995984,38
1711032123571,599616053660677462,21
1711032123579,599616053668358940,26
1711032123587,599616053676040418,31
1711032123593,599616053683721896,9
1711032123601,599616053691403374,-31
1711032123609,599616053699084852,48
1711032123617,599616053706766330,485
1711032123625,599616053714447808,1204
1711032123633,599616053722129286,1606
1711032123640,599616053729810764,1060
1711032123648,599616053737492242,-50
1711032123656,599616053745173720,-492
1711032123664,599616053752855198,-189
1711032123671,599616053760536676,-50
1711032123679,599616053768218154,-129
1711032123687,599616053775899632,-105
1711032123694,599616053783581110,-72
1711032123702,599616053791262588,-84
1711032123710,599616053798944066,-86
1711032123717,599616053806625544,-64
1711032123725,599616053814307022,-52
1711032123733,599616053821988500,-43
1711032123740,599616053829669978,-28
1711032123748,599616053837351456,-19
1711032123756,599616053845032934,2
1711032123763,599616053852714412,36
1711032123771,599616053860395890,40
1711032123779,599616053868077368,38
1711032123785,599616053875758846,60
1711032123793,599616053883440324,74
1711032123801,599616053891121802,86
1711032123809,599616053898803280,115
1711032123817,599616053906484758,137
1711032123825,599616053914166236,132
1711032123832,599616053921847714,132
1711032123840,599616053929529192,149
1711032123848,599616053937210670,153
1711032123856,599616053944892148,149
1711032123863,599616053952573626,141
1711032123871,599616053960255104,105
1711032123879,599616053967936582,62
1711032123886,599616053975618060,43
1711032123894,599616053983299538,21
1711032123902,599616053990981016,-16
1711032123909,599616053998662494,-60
1711032123917,599616054006343972,-96
1711032123925,599616054014025450,-105
1711032123932,599616054021706928,-96
1711032123940,599616054029388406,-91
1711032123948,599616054037069884,-74
1711032123955,599616054044751362,-50
1711032123963,599616054052432840,-67
1711032123971,599616054060114318,-81
1711032123977,599616054067795796,-45
1711032123985,599616054075477274,-12
1711032123993,599616054083158752,-31
1711032124001,599616054090840230,-52
1711032124009,599616054098521708,-26
1711032124017,599616054106203186,-2
1711032124025,599616054113884664,-21
1711032124032,599616054121566142,-31
1711032124040,599616054129247620,-2
1711032124048,599616054136949197,2
1711032124055,599616054144630396,-31
1711032124063,599616054152311595,-33
1711032124071,599616054159992794,0
1711032124078,599616054167673993,12
1711032124086,599616054175355192,-24
1711032124094,599616054183036391,-45
1711032124101,599616054190717590,-7
1711032124109,599616054198398789,19
1711032124117,599616054206079988,-9
1711032124124,599616054213761187,-24
1711032124132,599616054221442386,4
1711032124140,599616054229123585,7
1711032124147,599616054236804784,-2
1711032124155,599616054244485983,9
1711032124163,599616054252167182,0
1711032124169,599616054259848381,-28
1711032124177,599616054267529580,-24
1711032124185,599616054275210779,-9
1711032124193,599616054282891978,-21
1711032124201,599616054290573177,0
1711032124209,599616054298254376,52
1711032124217,599616054305935575,33
1711032124224,599616054313616774,14
1711032124232,599616054321297973,52
1711032124240,599616054328979172,45
1711032124247,599616054336660371,-7
1711032124255,599616054344341570,-14
1711032124263,599616054352022769,-4
1711032124270,599616054359703968,-4
1711032124278,599616054367385167,21
1711032124286,599616054375066366,40
1711032124293,599616054382747565,9
1711032124301,599616054390428764,-38
1711032124309,599616054398109963,48
1711032124316,599616054405791162,466
1711032124324,599616054413472361,1127
1711032124332,599616054421153560,1502
1711032124339,599616054428834759,1000
1711032124347,599616054436515958,-60
1711032124355,599616054444197157,-507
1711032124363,599616054451878356,-209
1711032124369,599616054459559555,-4
1711032124377,599616054467240754,-38
1711032124385,599616054474921953,-69
1711032124393,599616054482603152,-76
1711032124401,599616054490284351,-62
1711032124409,599616054497965550,-50
1711032124416,599616054505646749,-81
1711032124424,599616054513327948,-81
1711032124432,599616054521009147,-21
1711032124439,599616054528690346,12
1711032124447,599616054536371545,-16
1711032124455,599616054544052744,-31
1711032124462,599616054551733943,16
1711032124470,599616054559415142,67
1711032124478,599616054567096341,88
1711032124485,599616054574777540,103
1711032124493,599616054582458739,103
1711032124501,599616054590139938,96
1711032124508,599616054597821137,115
1711032124516,599616054605502336,129
1711032124524,599616054613183535,115
1711032124532,599616054620864734,117
1711032124539,599616054628545933,156
1711032124547,599616054636227132,165
1711032124555,599616054643908331,125
1711032124561,599616054651589530,105
1711032124569,599616054659270729,113
1711032124577,599616054666951928,86
1711032124585,599616054674633127,52
1711032124593,599616054682314326,38
1711032124601,599616054689995525,7
1711032124608,599616054697676756,-31
1711032124616,599616054705357955,-52
1711032124624,599616054713039154,-79
1711032124631,599616054720720353,-93
1711032124639,599616054728401552,-84
1711032124647,599616054736082751,-79
1711032124654,599616054743763950,-93
1711032124662,599616054751445149,-103
1711032124670,599616054759126348,-84
1711032124677,599616054766807547,-67
1711032124685,599616054774488746,-57
1711032124693,599616054782169945,-62
1711032124700,599616054789851144,-74
1711032124708,599616054797532343,-52
1711032124716,599616054805213542,-24
1711032124724,599616054812894741,-21
1711032124731,599616054820575940,-36
1711032124739,599616054828257139,-52
1711032124747,599616054835938338,-55
1711032124753,599616054843619537,-50
1711032124761,599616054851300736,-43
1711032124769,599616054858981935,-36
1711032124777,599616054866663134,-33
1711032124785,599616054874344333,-24
1711032124793,599616054882025532,-28
1711032124800,599616054889706731,-45
1711032124808,599616054897387930,-33
1711032124816,599616054905069129,0
1711032124823,599616054912750328,7
1711032124831,599616054920431527,-26
1711032124839,599616054928112726,-43
1711032124846,599616054935793925,-31
1711032124854,599616054943475124,-26
1711032124862,599616054951156323,-36
1711032124869,599616054958837522,-48
1711032124877,599616054966518721,-28
1711032124885,599616054974199920,9
1711032124893,599616054981881119,19
1711032124900,599616054989562318,24
1711032124908,599616054997243517,40
1711032124916,599616055004924716,45
1711032124923,599616055012605915,43
1711032124931,599616055020287114,33
1711032124939,599616055027968313,-4
1711032124945,599616055035649512,-40
1711032124953,599616055043330711,-48
1711032124961,599616055051011910,-45
1711032124969,599616055058693109,-43
1711032124977,599616055066374308,-26
1711032124985,599616055074055507,-36
1711032124992,599616055081736706,-69
1711032125000,599616055089417905,-14
1711032125008,599616055097099104,259
1711032125015,599616055104780303,781
1711032125023,599616055112461502,1310
1711032125031,599616055120142701,1224
1711032125038,599616055127823900,312
1711032125046,599616055135505099,-423
1711032125054,599616055143186298,-322
1711032125062,599616055150867497,-69
1711032125069,599616055158548696,-98
1711032125077,599616055166229895,-110
1711032125085,599616055173911094,-57
1711032125092,599616055181592293,-91
1711032125100,599616055189273492,-137
1711032125108,599616055196954691,-105
1711032125115,599616055204635890,-79
1711032125123,599616055212317089,-79
1711032125131,599616055219998288,-60
1711032125137,599616055227679487,-45
1711032125145,599616055235360686,-40
1711032125153,599616055243041885,-24
1711032125161,599616055250723084,-19
1711032125169,599616055258404315,-12
1711032125177,599616055266085514,40
1711032125184,599616055273766713,76
1711032125192,599616055281447912,64
1711032125200,599616055289129111,69
1711032125207,599616055296810310,86
1711032125215,599616055304491509,81
1711032125223,599616055312172708,72
1711032125230,599616055319853907,76
1711032125238,599616055327535106,74
1711032125246,599616055335216305,52
1711032125254,599616055342897504,40
1711032125261,599616055350578703,38
1711032125269,599616055358259902,24
1711032125277,599616055365941101,14
1711032125284,599616055373622300,4
1711032125292,599616055381303499,-33
1711032125300,599616055388984698,-72
1711032125307,599616055396665897,-84
1711032125315,599616055404347096,-93
1711032125323,599616055412028295,-115
1711032125329,599616055419709494,-139
1711032125337,599616055427390693,-146
1711032125345,599616055435071892,-127
1711032125353,599616055442753091,-108
1711032125361,599616055450434290,-101
1711032125369,599616055458115489,-98
1711032125376,599616055465796688,-96
1711032125384,599616055473477887,-91
1711032125392,599616055481159086,-91
1711032125399,599616055488840285,-96
1711032125407,599616055496521484,-96
1711032125415,599616055504202683,-84
1711032125423,599616055511883882,-69
1711032125430,599616055519565081,-76
1711032125438,599616055527246280,-79
1711032125446,599616055534927479,-48
1711032125453,599616055542608678,-21
1711032125461,599616055550289877,-43
1711032125469,599616055557971076,-57
1711032125476,599616055565652275,-43
1711032125484,599616055573333474,-48
1711032125492,599616055581014673,-69
1711032125499,599616055588695872,-86
1711032125507,599616055596377071,-103
1711032125515,599616055604058270,-105
1711032125521,599616055611739469,-81
1711032125529,599616055619420668,-67
1711032125537,599616055627101867,-62
1711032125545,599616055634783066,-57
1711032125553,599616055642464265,-62
1711032125561,599616055650145464,-67
1711032125568,599616055657826663,-64
1711032125576,599616055665507862,-76
1711032125584,599616055673189061,-88
1711032125592,599616055680870260,-81
1711032125599,599616055688551459,-67
1711032125607,599616055696232658,-45
1711032125615,599616055703913857,-33
1711032125622,599616055711595056,-40
1711032125630,599616055719276255,-26
1711032125638,599616055726957454,16
1711032125645,599616055734638653,24
1711032125653,599616055742319852,-24
1711032125661,599616055750001051,-57
1711032125668,599616055757682250,-48
1711032125676,599616055765363449,-38
1711032125684,599616055773044648,-40
1711032125691,599616055780725847,-48
1711032125699,599616055788407046,-74
1711032125707,599616055796088245,-105
1711032125713,599616055803769444,-50
1711032125721,599616055811450643,290
1711032125729,599616055819156928,921
1711032125737,599616055826837779,1389
1711032125745,599616055834518630,1067
1711032125753,599616055842199481,55
1711032125761,599616055849880332,-543
1711032125768,599616055857561183,-319
1711032125776,599616055865242034,-91
1711032125784,599616055872922885,-149
1711032125791,599616055880603736,-175
1711032125799,599616055888284587,-158
1711032125807,599616055895965438,-163
1711032125814,599616055903646289,-146
1711032125822,599616055911327140,-115
1711032125830,599616055919007991,-93
1711032125837,599616055926688842,-79
1711032125845,599616055934369693,-60
1711032125853,599616055942050544,-45
1711032125860,599616055949731395,-50
1711032125868,599616055957412246,-43
1711032125876,599616055965093097,0
1711032125883,599616055972773948,33
1711032125891,599616055980454799,28
1711032125899,599616055988135650,36
1711032125905,599616055995816501,57
1711032125913,599616056003497352,93
1711032125921,599616056011178203,132
1711032125929,599616056018859054,139
1711032125937,599616056026539905,120
1711032125945,599616056034220756,125
1711032125953,599616056041901607,153
1711032125960,599616056049582458,158
1711032125968,599616056057263309,139
1711032125976,599616056064944160,125
1711032125983,599616056072625011,105
1711032125991,599616056080305862,76
1711032125999,599616056087986713,64
1711032126006,599616056095667564,38
1711032126014,599616056103348415,-21
1711032126022,599616056111029266,-69
1711032126029,599616056118710117,-76
1711032126037,599616056126390968,-86
1711032126045,599616056134071819,-101
1711032126052,599616056141752670,-101
1711032126060,599616056149433521,-110
1711032126068,599616056157114372,-110
1711032126075,599616056164795223,-84
1711032126083,599616056172476074,-72
1711032126091,599616056180156925,-72
1711032126097,599616056187837776,-50
1711032126105,599616056195518627,-26
1711032126113,599616056203199478,-36
1711032126121,599616056210880329,-38
1711032126129,599616056218561180,-7
1711032126137,599616056226242031,7
1711032126145,599616056233922882,-26
1711032126152,599616056241603733,-43
1711032126160,599616056249284584,-28
1711032126168,599616056256965435,-31
1711032126175,599616056264646286,-45
1711032126183,599616056272327137,-38
1711032126191,599616056280007988,-16
1711032126198,599616056287688839,7
1711032126206,599616056295369690,7
1711032126214,599616056303050541,-7
1711032126221,599616056310731392,-7
1711032126229,599616056318412243,0
1711032126237,599616056326093094,-16
1711032126244,599616056333773945,-31
1711032126252,599616056341454796,-21
1711032126260,599616056349135647,-21
1711032126267,599616056356816498,-43
1711032126275,599616056364497349,-16
1711032126283,599616056372178200,36
1711032126289,599616056379828963,28
1711032126297,599616056387510232,24
1711032126305,599616056395191501,67
1711032126313,599616056402872770,67
1711032126321,599616056410554039,12
1711032126329,599616056418235308,-12
1711032126337,599616056425916577,4
1711032126344,599616056433597846,14
1711032126352,599616056441279115,12
1711032126360,599616056448960384,7
1711032126367,599616056456641653,2
1711032126375,599616056464322922,-26
1711032126383,599616056472004191,-28
1711032126390,599616056479685460,250
1711032126398,599616056487366729,949
1711032126406,599616056495047998,1632
1711032126413,599616056502729267,1471
1711032126421,599616056510410536,365
1711032126429,599616056518091805,-468
1711032126436,599616056525773074,-317
1711032126444,599616056533454343,-60
1711032126452,599616056541135612,-153
1711032126459,599616056548816881,-165
1711032126467,599616056556498150,-76
1711032126475,599616056564179419,-84
1711032126483,599616056571860688,-115
1711032126489,599616056579541957,-93
1711032126497,599616056587223226,-67
1711032126505,599616056594904495,-52
1711032126513,599616056602585764,-45
1711032126521,599616056610267033,-45
1711032126529,599616056617948302,-38
1711032126536,599616056625629571,-26
1711032126544,599616056633310840,-16
1711032126552,599616056640992109,0
1711032126559,599616056648673378,7
1711032126567,599616056656354647,4
1711032126575,599616056664035916,19
1711032126582,599616056671717185,40
1711032126590,599616056679398454,52
1711032126598,599616056687079723,74
1711032126605,599616056694760992,88
1711032126613,599616056702442261,84
1711032126621,599616056710123530,84
1711032126628,599616056717804799,81
1711032126636,599616056725486068,72
1711032126644,599616056733167337,60
1711032126651,599616056740848606,40
1711032126659,599616056748529875,14
1711032126667,599616056756211144,-7
1711032126675,599616056763892413,-33
1711032126681,599616056771573682,-74
1711032126689,599616056779254951,-98
1711032126697,599616056786936220,-93
1711032126705,599616056794617489,-96
1711032126713,599616056802298758,-113
1711032126721,599616056809980027,-120
1711032126728,599616056817661296,-122
1711032126736,599616056825342565,-115
1711032126744,599616056833023834,-98
1711032126751,599616056840705103,-88
1711032126759,599616056848386372,-86
1711032126767,599616056856067641,-69
1711032126774,599616056863748910,-43
1711032126782,599616056871430179,-33
1711032126790,599616056879111448,-45
1711032126797,599616056886792717,-62
1711032126805,599616056894473986,-52
1711032126813,599616056902155255,-24
1711032126820,599616056909836524,-21
1711032126828,599616056917517793,-33
1711032126836,599616056925199062,-21
1711032126844,599616056932880331,0
1711032126851,599616056940546560,-9
1711032126859,599616056948228038,-24
1711032126867,599616056955909516,-28
1711032126873,599616056963590994,-26
1711032126881,599616056971272472,-24
1711032126889,599616056978953950,-24
1711032126897,599616056986635428,-26
1711032126905,599616056994316906,-19
1711032126913,599616057001998384,-14
1711032126920,599616057009679862,-24
1711032126928,599616057017361340,-38
1711032126936,599616057025042818,-45
1711032126943,599616057032724296,-31
1711032126951,599616057040405774,-12
1711032126959,599616057048087252,-28
1711032126966,599616057055768730,-14
1711032126974,599616057063450208,36
1711032126982,599616057071131686,33
1711032126989,599616057078813164,-2
1711032126997,599616057086494642,-26
1711032127005,599616057094176120,-43
1711032127013,599616057101857598,-28
1711032127020,599616057109539076,2
1711032127028,599616057117220554,-14
1711032127036,599616057124902032,-67
1711032127043,599616057132583510,-81
1711032127051,599616057140264988,48
1711032127059,599616057147946466,452
1711032127065,599616057155627944,1026
1711032127073,599616057163309422,1349
1711032127081,599616057170990900,959
1711032127089,599616057178672378,62
1711032127097,599616057186353856,-372
1711032127105,599616057194035334,-177
1711032127112,599616057201716812,-84
1711032127120,599616057209398290,-165
1711032127128,599616057217079768,-141
1711032127135,599616057224761246,-101
1711032127143,599616057232442724,-125
1711032127151,599616057240124202,-122
1711032127158,599616057247805680,-84
1711032127166,599616057255487158,-64
1711032127174,599616057263168636,-57
1711032127181,599616057270850114,-50
1711032127189,599616057278531592,-57
1711032127197,599616057286213070,-74
1711032127205,599616057293894548,-69
1711032127212,599616057301576026,-48
1711032127220,599616057309257504,-19
1711032127228,599616057316938982,12
1711032127235,599616057324620460,21
1711032127243,599616057332301938,26
1711032127251,599616057339983416,50
1711032127257,599616057347664894,74
1711032127265,599616057355346372,76
1711032127273,599616057363027850,67
1711032127281,599616057370709328,52
1711032127289,599616057378390806,19
1711032127297,599616057386072284,-19
1711032127304,599616057393753762,-50
1711032127312,599616057401435240,-76
1711032127320,599616057409116718,-74
1711032127327,599616057416798196,-45
1711032127335,599616057424479674,-60
1711032127343,599616057432161152,-117
1711032127350,599616057439842630,-156
1711032127358,599616057447524108,-187
1711032127366,599616057455205586,-257
1711032127374,599616057462887064,-259
1711032127381,599616057470568542,-149
1711032127389,599616057478250020,-115
1711032127397,599616057485931498,-163
1711032127404,599616057493612976,-153
1711032127412,599616057501324561,-144
1711032127420,599616057509005621,-151
1711032127427,599616057516686681,-137
1711032127435,599616057524367741,-144
1711032127443,599616057532048801,-168
1711032127449,599616057539729861,-144
1711032127457,599616057547410921,-108
1711032127465,599616057555091981,-101
1711032127473,599616057562773041,-115
1711032127481,599616057570454101,-156
1711032127489,599616057578135161,-192
1711032127496,599616057585816221,-158
1711032127504,599616057593497281,-74
1711032127512,599616057601178341,-40
1711032127520,599616057608859401,-81
1711032127527,599616057616540461,-101
1711032127535,599616057624221521,-74
1711032127543,599616057631902581,-64
1711032127550,599616057639583641,-72
1711032127558,599616057647264701,-64
1711032127566,599616057654945761,-52
1711032127573,599616057662626821,-57
1711032127581,599616057670307881,-67
1711032127589,599616057677988941,-55
1711032127596,599616057685670001,-43
1711032127604,599616057693351061,-50
1711032127612,599616057701032121,-62
1711032127619,599616057708713181,-60
1711032127627,599616057716394241,-50
1711032127635,599616057724075301,-48
1711032127641,599616057731756361,-38
1711032127649,599616057739437421,-31
1711032127657,599616057747118481,-24
1711032127665,599616057754799541,-7
1711032127673,599616057762480601,-2
1711032127681,599616057770161661,-19
1711032127688,599616057777842721,-40
1711032127696,599616057785523781,-43
1711032127704,599616057793204841,-38
1711032127712,599616057800885901,-45
1711032127719,599616057808566961,-40
1711032127727,599616057816248021,-36
1711032127735,599616057823929081,-52
1711032127742,599616057831610141,16
1711032127750,599616057839291201,346
1711032127758,599616057846972261,875
1711032127765,599616057854653321,1204
1711032127773,599616057862334381,810
1711032127781,599616057870015441,-81
1711032127788,599616057877696501,-459
1711032127796,599616057885377561,-230
1711032127804,599616057893058621,-108
1711032127811,599616057900739681,-122
1711032127819,599616057908420741,-98
1711032127827,599616057916101801,-122
1711032127833,599616057923782861,-129
1711032127841,599616057931463921,-101
1711032127849,599616057939144981,-132
1711032127857,599616057946826041,-153
1711032127865,599616057954507101,-110
1711032127873,599616057962188161,-84
1711032127881,599616057969869221,-76
1711032127888,599616057977550281,-55
1711032127896,599616057985231341,-38
1711032127904,599616057992912401,-14
1711032127911,599616058000593461,19
1711032127919,599616058008274521,24
1711032127927,599616058015955581,16
1711032127934,599616058023636641,31
1711032127942,599616058031317701,55
1711032127950,599616058038998761,57
1711032127957,599616058046679821,38
1711032127965,599616058054360881,28
1711032127973,599616058062052026,43
1711032127980,599616058069732946,45
1711032127988,599616058077413866,36
1711032127996,599616058085094786,55
1711032128003,599616058092775706,64
1711032128011,599616058100456626,14
1711032128019,599616058108137546,-48
1711032128025,599616058115818466,-76
1711032128033,599616058123499386,-62
1711032128041,599616058131180306,-40
1711032128049,599616058138861226,-76
1711032128057,599616058146542146,-134
1711032128065,599616058154223066,-158
1711032128073,599616058161903986,-153
1711032128080,599616058169584906,-108
1711032128088,599616058177265826,-69
1711032128096,599616058184946746,-74
1711032128103,599616058192627666,-86
1711032128111,599616058200308586,-91
1711032128119,599616058207989506,-91
1711032128126,599616058215670426,-108
1711032128134,599616058223351346,-120
1711032128142,599616058231032266,-86
1711032128149,599616058238713186,-69
1711032128157,599616058246394106,-72
1711032128165,599616058254075026,-55
1711032128172,599616058261755946,-55
1711032128180,599616058269436866,-67
1711032128188,599616058277117786,-62
1711032128195,599616058284798706,-55
1711032128203,599616058292479626,-57
1711032128211,599616058300160546,-60
1711032128217,599616058307841466,-72
1711032128225,599616058315522386,-93
1711032128233,599616058323203306,-69
1711032128241,599616058330884226,-52
1711032128249,599616058338565146,-98
1711032128257,599616058346246066,-98
1711032128265,599616058353926986,-24
1711032128272,599616058361607906,7
1711032128280,599616058369288826,-26
1711032128288,599616058376969746,-52
1711032128295,599616058384650666,-52
1711032128303,599616058392331586,-84
1711032128311,599616058400012506,-127
1711032128318,599616058407693426,-117
1711032128326,599616058415374346,-62
1711032128334,599616058423055266,-7
1711032128341,599616058430736186,0
1711032128349,599616058438417106,-4
1711032128357,599616058446098026,-2
1711032128364,599616058453778946,-38
1711032128372,599616058461459866,-52
1711032128380,599616058469140786,-36
1711032128387,599616058476821706,-76
1711032128395,599616058484502626,-110
1711032128403,599616058492183546,-79
1711032128411,599616058499864466,-72
1711032128417,599616058507545386,-86
1711032128425,599616058515226306,-67
1711032128433,599616058522907226,4
1711032128441,599616058530588146,295
1711032128449,599616058538269066,896
1711032128457,599616058545949986,1392
1711032128464,599616058553630906,1103
1711032128472,599616058561311826,122
1711032128480,599616058568992746,-452
1711032128487,599616058576673666,-276
1711032128495,599616058584354586,-115
1711032128503,599616058592035506,-156
1711032128510,599616058599716426,-129
1711032128518,599616058607397346,-93
1711032128526,599616058615078266,-117
1711032128533,599616058622739153,-137
1711032128541,599616058630420352,-132
1711032128549,599616058638101551,-132
1711032128556,599616058645782750,-132
1711032128564,599616058653463949,-113
1711032128572,599616058661145148,-93
1711032128579,599616058668826347,-101
1711032128587,599616058676507546,-98
1711032128595,599616058684188745,-28
1711032128603,599616058691869944,33
1711032128609,599616058699551143,19
1711032128617,599616058707232342,4
1711032128625,599616058714913541,36
1711032128633,599616058722594740,38
1711032128641,599616058730275939,-7
1711032128649,599616058737957138,-14
1711032128656,599616058745638337,21
1711032128664,599616058753319536,16
1711032128672,599616058761000735,0
1711032128679,599616058768681934,28
1711032128687,599616058776363133,48
1711032128695,599616058784044332,16
1711032128702,599616058791725531,-19
1711032128710,599616058799406730,-36
1711032128718,599616058807087929,-55
1711032128725,599616058814769128,-84
1711032128733,599616058822450327,-141
1711032128741,599616058830131526,-209
1711032128748,599616058837812725,-206
1711032128756,599616058845493924,-199
1711032128764,599616058853175123,-254
1711032128772,599616058860856322,-242
1711032128779,599616058868537521,-146
1711032128787,599616058876218720,-105
1711032128795,599616058883899919,-117
1711032128801,599616058891581118,-146
1711032128809,599616058899262317,-158
1711032128817,599616058906943516,-115
1711032128825,599616058914624715,-113
1711032128833,599616058922305914,-177
1711032128841,599616058929987113,-168
1711032128848,599616058937668312,-129
1711032128856,599616058945349511,-122
1711032128864,599616058953030710,-101
1711032128871,599616058960711909,-69
1711032128879,599616058968393108,-64
1711032128887,599616058976074307,-74
1711032128894,599616058983755506,-74
1711032128902,599616058991436705,-74
1711032128910,599616058999117904,-76
1711032128917,599616059006799103,-113
1711032128925,599616059014480302,-158
1711032128933,599616059022161501,-125
1711032128940,599616059029842700,-64
1711032128948,599616059037523899,-64
1711032128956,599616059045205098,-67
1711032128964,599616059052886297,-57
1711032128971,599616059060567496,-86
1711032128979,599616059068248695,-103
1711032128987,599616059075929894,-98
1711032128993,599616059083611093,-110
1711032129001,599616059091292292,-101
1711032129009,599616059098973491,-64
1711032129017,599616059106654690,-48
1711032129025,599616059114335889,-38
1711032129033,599616059122017088,-33
1711032129040,599616059129698287,-43
1711032129048,599616059137379486,-36
1711032129056,599616059145060685,-33
1711032129063,599616059152741884,-74
1711032129071,599616059160423083,-101
1711032129079,599616059168104282,-72
1711032129086,599616059175785481,-55
1711032129094,599616059183466712,-127
1711032129102,599616059191147911,-43
1711032129109,599616059198829110,531
1711032129117,599616059206510309,1409
1711032129125,599616059214191508,1880
1711032129133,599616059221872707,1260
1711032129140,599616059229553906,-52
1711032129148,599616059237235105,-613
1711032129156,599616059244916304,-269
1711032129163,599616059252597503,-137
1711032129171,599616059260278702,-274
1711032129179,599616059267959901,-221
1711032129185,599616059275641100,-127
1711032129193,599616059283322299,-144
1711032129201,599616059291003498,-134
1711032129209,599616059298684697,-81
1711032129217,599616059306365896,-79
1711032129225,599616059314047095,-115
1711032129232,599616059321728294,-132
1711032129240,599616059329409493,-125
1711032129248,599616059337090692,-113
1711032129255,599616059344771891,-103
1711032129263,599616059352453090,-64
1711032129271,599616059360134289,-33
1711032129278,599616059367815488,-50
1711032129286,599616059375496687,-52
1711032129294,599616059383177886,-14
1711032129302,599616059390859085,-7
1711032129309,599616059398540284,-21
1711032129317,599616059406221483,-12
1711032129325,599616059413902682,31
1711032129332,599616059421583881,67
1711032129340,599616059429265080,86
1711032129348,599616059436946279,62
1711032129355,599616059444627478,-16
1711032129363,599616059452308677,-86
1711032129371,599616059459989876,-98
1711032129377,599616059467671075,-88
1711032129385,599616059475352274,-122
1711032129393,599616059483033473,-173
1711032129401,599616059490714672,-173
1711032129409,599616059498395871,-173
1711032129417,599616059506077070,-226
1711032129424,599616059513758269,-264
1711032129432,599616059521439468,-242
1711032129440,599616059529120667,-214
1711032129447,599616059536801866,-206
1711032129455,599616059544483065,-211
1711032129463,599616059552164264,-214
1711032129470,599616059559845463,-192
1711032129478,599616059567526662,-168
1711032129486,599616059575207861,-161
1711032129494,599616059582889060,-168
1711032129501,599616059590570259,-206
1711032129509,599616059598251458,-226
1711032129517,599616059605932657,-156
1711032129524,599616059613613856,-101
1711032129532,599616059621295055,-134
1711032129540,599616059628976254,-139
1711032129547,599616059636657453,-91
1711032129555,599616059644338652,-79
1711032129563,599616059652019851,-117
1711032129569,599616059659701050,-149
1711032129577,599616059667382249,-144
1711032129585,599616059675063448,-139
1711032129593,599616059682744647,-149
1711032129601,599616059690425846,-163
1711032129609,599616059698107045,-161
1711032129616,599616059705788244,-103
1711032129624,599616059713469443,-74
1711032129632,599616059721150642,-129
1711032129639,599616059728831841,-151
1711032129647,599616059736513040,-86
1711032129655,599616059744194273,-48
1711032129663,599616059751875472,-88
1711032129670,599616059759556671,-103
1711032129678,599616059767237870,-48
1711032129686,599616059774919069,-21
1711032129693,599616059782600268,-40
1711032129701,599616059790281467,-48
1711032129709,599616059797962666,-40
1711032129716,599616059805643865,-43
1711032129724,599616059813325064,-52
1711032129732,599616059821006263,-74
1711032129739,599616059828687462,-93
1711032129747,599616059836368661,-91
1711032129755,599616059844049860,33
1711032129761,599616059851731059,485
1711032129769,599616059859412258,1252
1711032129777,599616059867093457,1767
1711032129785,599616059874774656,1233
1711032129793,599616059882455855,-28
1711032129801,599616059890137054,-557
1711032129808,599616059897818253,-202
1711032129816,599616059905499452,-74
1711032129824,599616059913180651,-218
1711032129832,599616059920861850,-170
1711032129839,599616059928543049,-120
1711032129847,599616059936224248,-173
1711032129855,599616059943905447,-156
1711032129862,599616059951586646,-120
1711032129870,599616059959267845,-129
1711032129878,599616059966949044,-110
1711032129885,599616059974630243,-67
1711032129893,599616059982311442,-45
1711032129901,599616059989992641,-31
1711032129908,599616059997673840,-19
1711032129916,599616060005355039,-28
1711032129924,599616060013036238,-36
1711032129931,599616060020717437,7
1711032129939,599616060028398636,55
1711032129947,599616060036079835,31
1711032129953,599616060043761034,4
1711032129961,599616060051442233,84
1711032129969,599616060059123432,132
1711032129977,599616060066804631,79
1711032129985,599616060074485830,79
1711032129993,599616060082167029,98
1711032130000,599616060089848228,64
1711032130008,599616060097529427,50
1711032130016,599616060105210626,36
1711032130024,599616060112891825,0
1711032130031,599616060120573024,2
1711032130039,599616060128254223,2
1711032130047,599616060135935422,-55
1711032130054,599616060143616621,-103
1711032130062,599616060151297820,-113
1711032130070,599616060158979019,-132
1711032130077,599616060166660218,-158
1711032130085,599616060174341417,-163
1711032130093,599616060182022616,-156
1711032130100,599616060189703815,-161
1711032130108,599616060197385014,-149
1711032130116,599616060205066213,-127
1711032130123,599616060212747412,-122
1711032130131,599616060220428611,-110
1711032130139,599616060228109810,-74
1711032130145,599616060235791009,-60
1711032130153,599616060243472208,-105
1711032130161,599616060251153407,-113
1711032130169,599616060258834606,-50
1711032130177,599616060266515805,-45
1711032130185,599616060274197004,-96
1711032130193,599616060281878203,-105
1711032130200,599616060289559402,-62
1711032130208,599616060297240601,-21
1711032130216,599616060304906784,-33
1711032130223,599616060312588192,-62
1711032130231,599616060320269600,-69
1711032130239,599616060327951008,-84
1711032130246,599616060335632416,-91
1711032130254,599616060343313824,-74
1711032130262,599616060350995232,-43
1711032130269,599616060358676640,-38
1711032130277,599616060366358048,-72
1711032130285,599616060374039456,-98
1711032130292,599616060381720864,-86
1711032130300,599616060389402272,-60
1711032130308,599616060397083680,-55
1711032130315,599616060404765088,-74
1711032130323,599616060412446496,-55
1711032130331,599616060420127904,-2
1711032130337,599616060427809312,0
1711032130345,599616060435490720,-50
1711032130353,599616060443172128,-74
1711032130361,599616060450853536,-67
1711032130369,599616060458534944,-67
1711032130377,599616060466216352,-57
1711032130385,599616060473897760,-57
1711032130392,599616060481579168,-96
1711032130400,599616060489260576,-125
1711032130408,599616060496941984,-2
1711032130415,599616060504623392,452
1711032130423,599616060512304800,1175
1711032130431,599616060519986208,1608
1711032130438,599616060527667616,1048
1711032130446,599616060535349024,-110
1711032130454,599616060543030432,-565
1711032130461,599616060550711840,-274
1711032130469,599616060558393248,-146
1711032130477,599616060566074656,-202
1711032130484,599616060573756064,-168
1711032130492,599616060581437472,-163
1711032130500,599616060589118880,-192
1711032130507,599616060596800288,-175
1711032130515,599616060604481696,-185
1711032130523,599616060612163104,-221
1711032130529,599616060619844512,-149
1711032130537,599616060627525920,-52
1711032130545,599616060635207328,-86
1711032130553,599616060642888736,-115
1711032130561,599616060650570144,-64
1711032130569,599616060658251552,-31
1711032130577,599616060665932960,-19
1711032130584,599616060673614368,-12
1711032130592,599616060681295776,-4
1711032130600,599616060688977184,38
1711032130607,599616060696658592,62
1711032130615,599616060704340000,4
1711032130623,599616060712021408,-19
1711032130630,599616060719702816,33
1711032130638,599616060727384224,24
1711032130646,599616060735065632,-31
1711032130653,599616060742747040,-7
1711032130661,599616060750428448,21
1711032130669,599616060758109856,-2
1711032130676,599616060765791264,-4
1711032130684,599616060773472672,-9
1711032130692,599616060781154080,-86
1711032130699,599616060788835488,-141
1711032130707,599616060796516896,-137
1711032130715,599616060804198304,-158
1711032130723,599616060811879712,-206
1711032130729,599616060819561120,-218
1711032130737,599616060827242528,-209
1711032130745,599616060834923936,-202
1711032130753,599616060842605344,-185
1711032130761,599616060850286752,-165
1711032130769,599616060857968160,-173
1711032130776,599616060865679699,-182
1711032130784,599616060873360689,-168
1711032130792,599616060881041679,-153
1711032130799,599616060888722669,-146
1711032130807,599616060896403659,-134
1711032130815,599616060904084649,-115
1711032130822,599616060911765639,-105
1711032130830,599616060919446629,-108
1711032130838,599616060927127619,-108
1711032130845,599616060934808609,-113
1711032130853,599616060942489599,-113
1711032130861,599616060950170589,-101
1711032130868,599616060957851579,-86
1711032130876,599616060965532569,-98
1711032130884,599616060973213559,-113
1711032130892,599616060980894549,-117
1711032130899,599616060988575539,-120
1711032130907,599616060996256529,-125
1711032130915,599616061003937519,-115
1711032130921,599616061011618509,-91
1711032130929,599616061019299499,-76
1711032130937,599616061026980489,-88
1711032130945,599616061034661479,-105
1711032130953,599616061042342469,-110
1711032130961,599616061050023459,-86
1711032130968,599616061057704449,-60
1711032130976,599616061065385439,-76
1711032130984,599616061073066429,-74
1711032130991,599616061080747419,-26
1711032130999,599616061088428409,-33
1711032131007,599616061096109399,-96
1711032131014,599616061103790389,-110
1711032131022,599616061111471379,-93
1711032131030,599616061119152369,-88
1711032131037,599616061126833359,-86
1711032131045,599616061134514349,-91
1711032131053,599616061142195339,-96
1711032131061,599616061149876329,-108
1711032131068,599616061157557319,-96
1711032131076,599616061165238309,125
1711032131084,599616061172919299,699
1711032131091,599616061180600289,1361
1711032131099,599616061188281279,1435
1711032131107,599616061195962269,572
1711032131113,599616061203643259,-387
1711032131121,599616061211324249,-471
1711032131129,599616061219005239,-163
1711032131137,599616061226686229,-149
1711032131145,599616061234367219,-199
1711032131153,599616061242048209,-163
1711032131160,599616061249729199,-151
1711032131168,599616061257410189,-149
1711032131176,599616061265091179,-139
1711032131183,599616061272772169,-144
1711032131191,599616061280453159,-137
1711032131199,599616061288134149,-108
1711032131206,599616061295815139,-101
1711032131214,599616061303496129,-96
1711032131222,599616061311177119,-64
1711032131230,599616061318858109,-45
1711032131237,599616061326539099,-45
1711032131245,599616061334220089,-38
1711032131253,599616061341901079,-19
1711032131260,599616061349582069,9
1711032131268,599616061357263059,33
1711032131276,599616061364944049,45
1711032131283,599616061372625039,57
1711032131291,599616061380306029,45
1711032131299,599616061387987019,14
1711032131305,599616061395668009,21
1711032131313,599616061403348999,45
1711032131321,599616061411029989,26
1711032131329,599616061418710979,0
1711032131337,599616061426376950,-2
1711032131345,599616061434058149,-21
1711032131352,599616061441739348,-62
1711032131360,599616061449420547,-93
1711032131368,599616061457101746,-103
1711032131375,599616061464782945,-113
1711032131383,599616061472464144,-132
1711032131391,599616061480145343,-156
1711032131398,599616061487826542,-185
1711032131406,599616061495507741,-182
1711032131414,599616061503188940,-165
1711032131422,599616061510870139,-175
1711032131429,599616061518551338,-192
1711032131437,599616061526232537,-189
1711032131445,599616061533913736,-170
1711032131452,599616061541594935,-158
1711032131460,599616061549276134,-153
1711032131468,599616061556957333,-129
1711032131475,599616061564638532,-110
1711032131483,599616061572319731,-134
1711032131491,599616061580000930,-153
1711032131497,599616061587682129,-146
1711032131505,599616061595363328,-129
1711032131513,599616061603044527,-117
1711032131521,599616061610725726,-108
1711032131529,599616061618406925,-96
1711032131537,599616061626088124,-88
1711032131544,599616061633769323,-103
1711032131552,599616061641450522,-105
1711032131560,599616061649131721,-91
1711032131567,599616061656812920,-108
1711032131575,599616061664494119,-127
1711032131583,599616061672175318,-117
1711032131591,599616061679856517,-108
1711032131598,599616061687537716,-115
1711032131606,599616061695218915,-113
1711032131614,599616061702900114,-110
1711032131621,599616061710581313,-122
1711032131629,599616061718262512,-139
1711032131637,599616061725943711,-129
1711032131644,599616061733624910,-93
1711032131652,599616061741306109,-76
1711032131660,599616061748987308,-79
1711032131667,599616061756668507,-55
1711032131675,599616061764349706,-33
1711032131683,599616061772030905,-48
1711032131689,599616061779712104,-72
1711032131697,599616061787393303,-84
1711032131705,599616061795074502,-79
1711032131713,599616061802755701,-64
1711032131721,599616061810436900,-57
1711032131729,599616061818118099,-62
1711032131736,599616061825799298,-88
1711032131744,599616061833480497,-105
1711032131752,599616061841161696,113
1711032131759,599616061848842895,747
1711032131767,599616061856524094,1474
1711032131775,599616061864205293,1531
1711032131783,599616061871886492,577
1711032131790,599616061879567691,-452
1711032131798,599616061887248890,-512
1711032131806,599616061894930089,-168
1711032131813,599616061902611288,-146
1711032131821,599616061910292487,-182
1711032131829,599616061917973686,-137
1711032131836,599616061925654885,-141
1711032131844,599616061933336084,-139
1711032131852,599616061941017283,-105
1711032131859,599616061948698482,-96
1711032131867,599616061956379681,-98
1711032131875,599616061964060880,-91
1711032131881,599616061971742079,-74
1711032131889,599616061979423278,-57
1711032131897,599616061987104509,-48
1711032131905,599616061994785708,-38
1711032131913,599616062002466907,-21
1711032131921,599616062010148106,-4
1711032131928,599616062017829305,9
1711032131936,599616062025510504,21
1711032131944,599616062033191703,26
1711032131952,599616062040872902,40
1711032131959,599616062048554101,55
1711032131967,599616062056235300,50
1711032131975,599616062063916499,33
1711032131982,599616062071597698,33
1711032131990,599616062079278897,40
1711032131998,599616062086960096,31
1711032132005,599616062094641295,12
1711032132013,599616062102322494,-16
1711032132021,599616062110003693,-48
1711032132028,599616062117684892,-69
1711032132036,599616062125366091,-96
1711032132044,599616062133047290,-125
1711032132051,599616062140728489,-141
1711032132059,599616062148409688,-153
1711032132067,599616062156090887,-180
1711032132073,599616062163772086,-192
1711032132081,599616062171453285,-175
1711032132089,599616062179134484,-165
1711032132097,599616062186815683,-153
1711032132105,599616062194496882,-139
1711032132113,599616062202178081,-163
1711032132121,599616062209859280,-187
1711032132128,599616062217540479,-168
1711032132136,599616062225221678,-144
1711032132144,599616062232902877,-146
1711032132151,599616062240584076,-149
1711032132159,599616062248265275,-141
1711032132167,599616062255946474,-134
1711032132174,599616062263627673,-132
1711032132182,599616062271308872,-125
1711032132190,599616062278990071,-110
1711032132197,599616062286671270,-105
1711032132205,599616062294352469,-122
1711032132213,599616062302033668,-139
1711032132220,599616062309714867,-139
1711032132228,599616062317396066,-129
1711032132236,599616062325077265,-127
1711032132243,599616062332758464,-127
1711032132251,599616062340439663,-127
1711032132259,599616062348120862,-132
1711032132265,599616062355802061,-127
1711032132273,599616062363483260,-110
1711032132281,599616062371164459,-98
1711032132289,599616062378845658,-93
1711032132297,599616062386526857,-101
1711032132305,599616062394208056,-117
1711032132313,599616062401889255,-125
1711032132320,599616062409570454,-101
1711032132328,599616062417251653,-62
1711032132336,599616062424932852,-50
1711032132343,599616062432614051,-50
1711032132351,599616062440295250,-28
1711032132359,599616062447976449,-24
1711032132366,599616062455657648,-55
1711032132374,599616062463338847,-79
1711032132382,599616062471020046,-86
1711032132389,599616062478701245,-76
1711032132397,599616062486382444,-55
1711032132405,599616062494063643,-57
1711032132412,599616062501744842,-88
1711032132420,599616062509426041,-115
1711032132428,599616062517107240,-62
1711032132435,599616062524788439,238
1711032132443,599616062532469638,820
1711032132451,599616062540150837,1325
1711032132459,599616062547857122,1159
1711032132465,599616062555537973,230
1711032132473,599616062563218824,-478
1711032132481,599616062570899675,-358
1711032132489,599616062578580526,-125
1711032132497,599616062586261377,-177
1711032132505,599616062593942228,-192
1711032132512,599616062601623079,-151
1711032132520,599616062609303930,-168
1711032132528,599616062616984781,-173
1711032132535,599616062624665632,-139
1711032132543,599616062632346483,-105
1711032132551,599616062640027334,-79
1711032132558,599616062647708185,-60
1711032132566,599616062655389036,-48
1711032132574,599616062663069887,-28
1711032132581,599616062670750738,-14
1711032132589,599616062678431589,-14
1711032132597,599616062686112440,-14
1711032132604,599616062693793291,2
1711032132612,599616062701474142,24
1711032132620,599616062709154993,33
1711032132627,599616062716835844,40
1711032132635,599616062724516695,43
1711032132643,599616062732197546,48
1711032132651,599616062739878397,55
1711032132657,599616062747559248,45
1711032132665,599616062755240099,28
1711032132673,599616062762920950,16
1711032132681,599616062770601801,0
1711032132689,599616062778282652,-12
1711032132697,599616062785963503,-14
1711032132704,599616062793644354,-21
1711032132712,599616062801325205,-36
1711032132720,599616062809006056,-57
1711032132727,599616062816686907,-88
1711032132735,599616062824367758,-115
1711032132743,599616062832048609,-117
1711032132750,599616062839729460,-122
1711032132758,599616062847410311,-146
1711032132766,599616062855091162,-173
1711032132773,599616062862772013,-177
1711032132781,599616062870452864,-149
1711032132789,599616062878133715,-127
1711032132796,599616062885814566,-129
1711032132804,599616062893495417,-134
1711032132812,599616062901176268,-125
1711032132820,599616062908857119,-105
1711032132827,599616062916537970,-88
1711032132835,599616062924218821,-81
1711032132843,599616062931899672,-84
1711032132849,599616062939580523,-81
1711032132857,599616062947261374,-74
1711032132865,599616062954942225,-67
1711032132873,599616062962623076,-67
1711032132881,599616062970303927,-72
1711032132889,599616062977984778,-81
1711032132896,599616062985665629,-81
1711032132904,599616062993346480,-72
1711032132912,599616063001027331,-74
1711032132919,599616063008708182,-88
1711032132927,599616063016389033,-84
1711032132935,599616063024069884,-67
1711032132942,599616063031750735,-60
1711032132950,599616063039431586,-55
1711032132958,599616063047112437,-43
1711032132965,599616063054793288,-36
1711032132973,599616063062474139,-40
1711032132981,599616063070154990,-48
1711032132988,599616063077835841,-43
1711032132996,599616063085516692,-43
1711032133004,599616063093197543,-52
1711032133012,599616063100878394,-48
1711032133019,599616063108539237,-36
1711032133027,599616063116220366,-28
1711032133035,599616063123901495,-26
1711032133041,599616063131582624,-33
1711032133049,599616063139263753,-45
1711032133057,599616063146944882,-45
1711032133065,599616063154626011,-28
1711032133073,599616063162307140,-21
1711032133081,599616063169988269,-43
1711032133088,599616063177669398,-55
1711032133096,599616063185350527,-24
1711032133104,599616063193031656,24
1711032133111,599616063200712785,31
1711032133119,599616063208393914,16
1711032133127,599616063216075043,14
1711032133134,599616063223756172,2
1711032133142,599616063231437301,-24
1711032133150,599616063239118430,-38
1711032133157,599616063246799559,-36
1711032133165,599616063254480688,-19
1711032133173,599616063262161817,-9
1711032133180,599616063269842946,-16
1711032133188,599616063277524075,-43
1711032133196,599616063285205204,-50
1711032133204,599616063292886333,84
1711032133211,599616063300567462,500
1711032133219,599616063308248591,1058
1711032133227,599616063315929720,1296
1711032133233,599616063323610849,735
1711032133241,599616063331291978,-204
1711032133249,599616063338973107,-456
1711032133257,599616063346654236,-146
1711032133265,599616063354335365,-72
1711032133273,599616063362016494,-139
1711032133280,599616063369697623,-98
1711032133288,599616063377378752,-81
1711032133296,599616063385059881,-98
1711032133303,599616063392741010,-84
1711032133311,599616063400422139,-74
1711032133319,599616063408103268,-69
1711032133326,599616063415784397,-48
1711032133334,599616063423465526,-45
1711032133342,599616063431146655,-45
1711032133349,599616063438827784,-26
1711032133357,599616063446508913,-9
1711032133365,599616063454190042,0
1711032133373,599616063461871171,19
1711032133380,599616063469552300,43
1711032133388,599616063477233429,60
1711032133396,599616063484914558,50
1711032133403,599616063492595687,24
1711032133411,599616063500276816,28
1711032133419,599616063507957945,69
1711032133425,599616063515639074,79
1711032133433,599616063523320203,55
1711032133441,599616063531001332,57
1711032133449,599616063538682461,67
1711032133457,599616063546363590,55
1711032133465,599616063554044719,38
1711032133472,599616063561725848,28
1711032133480,599616063569406977,9
1711032133488,599616063577088106,-4
1711032133495,599616063584769235,-26
1711032133503,599616063592450364,-76
1711032133511,599616063600131493,-127
1711032133518,599616063607812622,-134
1711032133526,599616063615493751,-120
1711032133534,599616063623174880,-132
1711032133542,599616063630856009,-146
1711032133549,599616063638537138,-129
1711032133557,599616063646218267,-113
1711032133565,599616063653899396,-101
1711032133572,599616063661580525,-79
1711032133580,599616063669256670,-60
1711032133588,599616063676937869,-52
1711032133595,599616063684619068,-50
1711032133603,599616063692300267,-38
1711032133611,599616063699981466,-26
1711032133617,599616063707662665,-19
1711032133625,599616063715343864,-12
1711032133633,599616063723025063,-21
1711032133641,599616063730706262,-38
1711032133649,599616063738387461,-33
1711032133657,599616063746068660,-24
1711032133664,599616063753749859,-14
1711032133672,599616063761431058,0
1711032133680,599616063769112257,9
1711032133687,599616063776793456,-7
1711032133695,599616063784474655,-36
1711032133703,599616063792155854,-21
1711032133710,599616063799837053,-12
1711032133718,599616063807518252,-45
1711032133726,599616063815199451,-45
1711032133734,599616063822880650,-7
1711032133741,599616063830561849,4
1711032133749,599616063838243048,-9
1711032133757,599616063845924247,-19
1711032133764,599616063853605446,-24
1711032133772,599616063861286645,-21
1711032133780,599616063868967844,-14
1711032133787,599616063876649043,-12
1711032133795,599616063884330242,-4
1711032133803,599616063892011441,9
1711032133809,599616063899692640,-2
1711032133817,599616063907373839,-9
1711032133825,599616063915055038,16
1711032133833,599616063922736237,24
1711032133841,599616063930417436,14
1711032133849,599616063938098635,28
1711032133856,599616063945779834,21
1711032133864,599616063953461033,-24
1711032133872,599616063961142232,-26
1711032133879,599616063968823431,2
1711032133887,599616063976504630,2
1711032133895,599616063984185829,19
1711032133903,599616063991867028,74
1711032133910,599616063999548227,93
1711032133918,599616064007229426,72
1711032133926,599616064014910625,64
1711032133933,599616064022591824,72
1711032133941,599616064030273023,64
1711032133949,599616064037954222,45
1711032133956,599616064045635421,38
1711032133964,599616064053316620,24
1711032133972,599616064060997819,9
1711032133979,599616064068679018,9
1711032133987,599616064076360217,38
1711032133995,599616064084041416,264
1711032134001,599616064091722615,771
1711032134009,599616064099403814,1284
1711032134017,599616064107085013,1255
1711032134025,599616064114766212,454
1711032134033,599616064122447411,-307
1711032134041,599616064130128610,-298
1711032134048,599616064137809809,-50
1711032134056,599616064145491008,-50
1711032134064,599616064153172207,-79
1711032134071,599616064160853406,-50
1711032134079,599616064168534605,-43
1711032134087,599616064176215804,-38
1711032134095,599616064183897003,-14
1711032134102,599616064191578202,9
1711032134110,599616064199259401,7
1711032134118,599616064206940600,-7
1711032134125,599616064214621799,2
1711032134133,599616064222302998,45
1711032134141,599616064230014325,74
1711032134148,599616064237695106,45
1711032134156,599616064245375887,28
1711032134164,599616064253056668,74
1711032134171,599616064260737449,108
1711032134179,599616064268418230,127
1711032134187,599616064276099011,156
1711032134193,599616064283779792,163
1711032134201,599616064291460573,168
1711032134209,599616064299141354,170
1711032134217,599616064306822135,146
1711032134225,599616064314502916,132
1711032134233,599616064322183697,129
1711032134241,599616064329864478,125
1711032134248,599616064337545259,127
1711032134256,599616064345226040,122
1711032134264,599616064352906821,101
1711032134271,599616064360587602,93
1711032134279,599616064368268383,91
1711032134287,599616064375949164,60
1711032134294,599616064383629945,24
1711032134302,599616064391310726,12
1711032134310,599616064398991507,7
1711032134317,599616064406672288,2
1711032134325,599616064414353069,-7
1711032134333,599616064422033850,-16
1711032134340,599616064429714631,-16
1711032134348,599616064437395412,-4
1711032134356,599616064445076193,12
1711032134363,599616064452756974,31
1711032134371,599616064460437755,28
1711032134379,599616064468118536,16
1711032134385,599616064475799317,36
1711032134393,599616064483480098,57
1711032134401,599616064491160879,45
1711032134409,599616064498841660,31
1711032134417,599616064506522441,45
1711032134425,599616064514203222,50
1711032134433,599616064521884003,36
1711032134440,599616064529564784,45
1711032134448,599616064537245565,60
1711032134456,599616064544926346,55
1711032134463,599616064552607127,64
1711032134471,599616064560287908,67
1711032134479,599616064567968689,57
1711032134486,599616064575649470,69
1711032134494,599616064583330251,60
1711032134502,599616064591011032,21
1711032134509,599616064598691813,45
1711032134517,599616064606372594,93
1711032134525,599616064614053375,84
1711032134532,599616064621734156,64
1711032134540,599616064629414937,72
1711032134548,599616064637095718,79
1711032134555,599616064644776499,74
1711032134563,599616064652457280,64
1711032134571,599616064660138061,69
1711032134577,599616064667818842,84
1711032134585,599616064675499623,69
1711032134593,599616064683180404,45
1711032134601,599616064690861185,52
1711032134609,599616064698541966,64
1711032134617,599616064706222747,52
1711032134625,599616064713903528,38
1711032134632,599616064721584309,33
1711032134640,599616064729265090,40
1711032134648,599616064736945871,38
1711032134655,599616064744626652,38
1711032134663,599616064752307433,93
1711032134671,599616064759988214,153
1711032134678,599616064767668995,144
1711032134686,599616064775349776,117
1711032134694,599616064783030557,120
1711032134701,599616064790681270,101
1711032134709,599616064798362469,88
1711032134717,599616064806043668,96
1711032134724,599616064813724867,76
1711032134732,599616064821406066,50
1711032134740,599616064829087265,50
1711032134747,599616064836768464,24
1711032134755,599616064844449663,-7
1711032134763,599616064852130862,2
1711032134769,599616064859812061,129
1711032134777,599616064867493260,521
1711032134785,599616064875174459,1103
1711032134793,599616064882855658,1423
1711032134801,599616064890536857,961
1711032134809,599616064898218056,16
1711032134817,599616064905899255,-363
1711032134824,599616064913580454,-113
1711032134832,599616064921261653,14
1711032134840,599616064928942852,-43
1711032134847,599616064936624051,-33
1711032134855,599616064944305250,-7
1711032134863,599616064951986449,-7
1711032134870,599616064959667648,-16
1711032134878,599616064967348847,-19
1711032134886,599616064975030046,9
1711032134893,599616064982711245,38
1711032134901,599616064990392444,38
1711032134909,599616064998073643,33
1711032134916,599616065005754842,50
1711032134924,599616065013436041,93
1711032134932,599616065021117240,117
1711032134939,599616065028798439,86
1711032134947,599616065036479638,69
1711032134955,599616065044160837,120
1711032134961,599616065051842036,168
1711032134969,599616065059523235,165
1711032134977,599616065067204434,170
1711032134985,599616065074885633,189
1711032134993,599616065082566832,182
1711032135001,599616065090248031,173
1711032135009,599616065097929230,182
1711032135016,599616065105610429,180
1711032135024,599616065113291628,158
1711032135032,599616065120972827,149
1711032135039,599616065128654026,146
1711032135047,599616065136335225,120
1711032135055,599616065144016424,93
1711032135062,599616065151697623,57
1711032135070,599616065159378822,16
1711032135078,599616065167060021,4
1711032135085,599616065174741220,-7
1711032135093,599616065182422419,-38
1711032135101,599616065190103618,-40
1711032135108,599616065197784817,-12
1711032135116,599616065205466016,-9
1711032135124,599616065213147215,-24
1711032135131,599616065220828414,-21
1711032135139,599616065228509613,0
1711032135147,599616065236190812,26
1711032135155,599616065243872011,31
1711032135161,599616065251553210,24
1711032135169,599616065259234409,40
1711032135177,599616065266915608,55
1711032135185,599616065274596807,24
1711032135193,599616065282278006,2
1711032135201,599616065289959205,21
1711032135208,599616065297640404,21
1711032135216,599616065305321603,12
1711032135224,599616065313002802,26
1711032135231,599616065320684001,43
1711032135239,599616065328365200,48
1711032135247,599616065336046399,57
1711032135254,599616065343727598,67
1711032135262,599616065351438925,72
1711032135270,599616065359119706,64
1711032135277,599616065366800487,40
1711032135285,599616065374481268,12
1711032135293,599616065382162049,14
1711032135300,599616065389842830,36
1711032135308,599616065397523611,38
1711032135316,599616065405204392,21
1711032135324,599616065412885173,28
1711032135331,599616065420565954,33
1711032135339,599616065428246735,0
1711032135347,599616065435927516,-19
1711032135353,599616065443608297,2
1711032135361,599616065451289078,9
1711032135369,599616065458969859,-14
1711032135377,599616065466650640,-14
1711032135385,599616065474331421,9
1711032135393,599616065482012202,14
1711032135400,599616065489692983,33
1711032135408,599616065497373764,74
1711032135416,599616065505054545,91
1711032135423,599616065512735326,88
1711032135431,599616065520416107,84
1711032135439,599616065528096888,67
1711032135446,599616065535777669,40
1711032135454,599616065543458450,36
1711032135462,599616065551139231,50
1711032135469,599616065558820012,64
1711032135477,599616065566500793,57
1711032135485,599616065574181574,36
1711032135493,599616065581862355,4
1711032135500,599616065589543136,101
1711032135508,599616065597223917,574
1711032135516,599616065604904698,1313
1711032135523,599616065612585479,1673
1711032135531,599616065620266260,1036
1711032135539,599616065627947041,-105
1711032135545,599616065635627822,-480
1711032135553,599616065643308603,-144
1711032135561,599616065650989384,-19
1711032135569,599616065658670165,-74
1711032135577,599616065666350946,-45
1711032135585,599616065674031727,-38
1711032135592,599616065681712508,-40
1711032135600,599616065689393289,2
1711032135608,599616065697074070,16
1711032135615,599616065704754851,-12
1711032135623,599616065712435632,-16
1711032135631,599616065720116413,7
1711032135638,599616065727797194,28
1711032135646,599616065735477975,48
1711032135654,599616065743158756,64
1711032135661,599616065750839537,74
1711032135669,599616065758520318,74
1711032135677,599616065766201099,91
1711032135685,599616065773881880,125
1711032135692,599616065781562661,144
1711032135700,599616065789243442,151
1711032135708,599616065796924223,158
1711032135715,599616065804605004,163
1711032135723,599616065812285785,153
1711032135731,599616065819966566,134
1711032135737,599616065827647347,125
1711032135745,599616065835328128,127
1711032135753,599616065843008909,122
1711032135761,599616065850689690,101
1711032135769,599616065858370471,62
1711032135777,599616065866051252,26
1711032135784,599616065873732033,2
1711032135792,599616065881412814,-14
1711032135800,599616065889093595,-31
1711032135807,599616065896774376,-57
1711032135815,599616065904455157,-79
1711032135823,599616065912105870,-84
1711032135830,599616065919787069,-76
1711032135838,599616065927468268,-84
1711032135846,599616065935149467,-96
1711032135853,599616065942830666,-88
1711032135861,599616065950511865,-81
1711032135869,599616065958193064,-96
1711032135877,599616065965874263,-110
1711032135884,599616065973555462,-91
1711032135892,599616065981236661,-64
1711032135900,599616065988917860,-50
1711032135907,599616065996599059,-57
1711032135915,599616066004280258,-72
1711032135923,599616066011961457,-64
1711032135929,599616066019642656,-50
1711032135937,599616066027323855,-57
1711032135945,599616066035005054,-60
1711032135953,599616066042686253,-48
1711032135961,599616066050367452,-57
1711032135969,599616066058048651,-72
1711032135976,599616066065729850,-62
1711032135984,599616066073411049,-50
1711032135992,599616066081092248,-48
1711032135999,599616066088773447,-55
1711032136007,599616066096454646,-62
1711032136015,599616066104135845,-60
1711032136022,599616066111817044,-55
1711032136030,599616066119498243,-45
1711032136038,599616066127179442,-38
1711032136046,599616066134860641,-36
1711032136053,599616066142541840,-36
1711032136061,599616066150223039,-28
1711032136069,599616066157904238,-12
1711032136076,599616066165585437,-9
1711032136084,599616066173266636,-33
1711032136092,599616066180947835,-40
1711032136099,599616066188629034,-26
1711032136107,599616066196310233,-33
1711032136115,599616066203991432,-43
1711032136121,599616066211672631,-31
1711032136129,599616066219353830,-26
1711032136137,599616066227035029,-21
1711032136145,599616066234716228,-12
1711032136153,599616066242397427,-7
1711032136161,599616066250078626,-2
1711032136168,599616066257759825,26
1711032136176,599616066265441024,64
1711032136184,599616066273122223,60
1711032136191,599616066280803422,16
1711032136199,599616066288484621,-9
1711032136207,599616066296165820,-9
1711032136214,599616066303847019,0
1711032136222,599616066311528218,16
1711032136230,599616066319209417,4
1711032136238,599616066326890616,-33
1711032136245,599616066334571815,-48
1711032136253,599616066342253014,28
1711032136261,599616066349934213,363
1711032136268,599616066357615412,959
1711032136276,599616066365296611,1440
1711032136284,599616066372977810,1252
1711032136291,599616066380659009,329
1711032136299,599616066388340208,-370
1711032136307,599616066396021407,-254
1711032136313,599616066403702606,-21
1711032136321,599616066411383805,-81
1711032136329,599616066419065004,-127
1711032136337,599616066426746203,-93
1711032136345,599616066434427402,-79
1711032136353,599616066442108601,-74
1711032136360,599616066449789800,-64
1711032136368,599616066457470999,-60
1711032136376,599616066465152198,-45
1711032136383,599616066472833431,-19
1711032136391,599616066480514630,-2
1711032136399,599616066488195829,-7
1711032136407,599616066495877028,-19
1711032136414,599616066503558227,-9
1711032136422,599616066511239426,16
1711032136430,599616066518920625,31
1711032136437,599616066526601824,40
1711032136445,599616066534283023,60
1711032136453,599616066541964222,76
1711032136460,599616066549645421,88
1711032136468,599616066557326620,105
1711032136476,599616066565007819,113
1711032136483,599616066572689018,110
1711032136491,599616066580370217,108
1711032136499,599616066588051416,101
1711032136505,599616066595732615,98
1711032136513,599616066603413814,88
1711032136521,599616066611095013,60
1711032136529,599616066618776212,36
1711032136537,599616066626457411,12
1711032136545,599616066634138610,-21
1711032136552,599616066641819809,-60
1711032136560,599616066649501008,-84
1711032136568,599616066657182207,-96
1711032136576,599616066664863406,-103
1711032136583,599616066672544605,-105
1711032136591,599616066680225804,-113
1711032136599,599616066687907003,-110
1711032136606,599616066695588202,-96
1711032136614,599616066703269401,-96
1711032136622,599616066710950600,-93
1711032136629,599616066718631799,-74
1711032136637,599616066726312998,-57
1711032136645,599616066733994197,-62
1711032136652,599616066741675396,-64
1711032136660,599616066749356595,-48
1711032136668,599616066757037794,-31
1711032136675,599616066764718993,-26
1711032136683,599616066772400192,-36
1711032136691,599616066780081391,-45
1711032136697,599616066787762590,-38
1711032136705,599616066795443789,-19
1711032136713,599616066803124988,-19
1711032136721,599616066810806187,-38
1711032136729,599616066818487386,-40
1711032136737,599616066826168585,-33
1711032136744,599616066833849784,-45
1711032136752,599616066841530983,-55
1711032136760,599616066849212182,-40
1711032136768,599616066856893381,-36
1711032136775,599616066864574580,-33
1711032136783,599616066872255779,-28
1711032136791,599616066879936978,-38
1711032136798,599616066887618177,-50
1711032136806,599616066895299376,-43
1711032136814,599616066902980575,-28
1711032136821,599616066910661774,-33
1711032136829,599616066918342973,-40
1711032136837,599616066926024172,-31
1711032136844,599616066933705371,-21
1711032136852,599616066941386570,-24
1711032136860,599616066949067769,-36
1711032136867,599616066956748968,-48
1711032136875,599616066964430167,-55
1711032136883,599616066972111366,-60
1711032136889,599616066979792565,-55
1711032136897,599616066987473764,-28
1711032136905,599616066995154963,4
1711032136913,599616067002836162,14
1711032136921,599616067010517361,24
1711032136929,599616067018198560,38
1711032136937,599616067025879759,19
1711032136944,599616067033576038,-16
1711032136952,599616067041257028,-33
1711032136960,599616067048938018,-38
1711032136967,599616067056619008,-31
1711032136975,599616067064299998,-12
1711032136983,599616067071980988,-2
1711032136990,599616067079661978,-16
1711032136998,599616067087342968,-26
1711032137006,599616067095023958,113
1711032137013,599616067102704948,569
1711032137021,599616067110385938,1190
1711032137029,599616067118066928,1411
1711032137036,599616067125747918,781
1711032137044,599616067133428908,-173
1711032137052,599616067141109898,-423
1711032137059,599616067148790888,-141
1711032137067,599616067156471878,-74
1711032137075,599616067164152868,-132
1711032137081,599616067171833858,-98
1711032137089,599616067179514848,-93
1711032137097,599616067187195838,-120
1711032137105,599616067194876828,-93
1711032137113,599616067202557818,-50
1711032137121,599616067210238808,-50
1711032137129,599616067217919798,-60
1711032137136,599616067225600788,-55
1711032137144,599616067233281778,-38
1711032137152,599616067240962768,-16
1711032137159,599616067248643758,0
1711032137167,599616067256324748,9
1711032137175,599616067264005738,16
1711032137182,599616067271686728,21
1711032137190,599616067279367718,40
1711032137198,599616067287048708,64
1711032137205,599616067294729698,76
1711032137213,599616067302410688,86
1711032137221,599616067310091678,103
1711032137228,599616067317772668,113
1711032137236,599616067325453658,108
1711032137244,599616067333134648,108
1711032137251,599616067340815638,103
1711032137259,599616067348496628,86
1711032137267,599616067356177618,67
1711032137275,599616067363858608,45
1711032137281,599616067371539598,26
1711032137289,599616067379220588,0
1711032137297,599616067386901578,-21
1711032137305,599616067394582568,-43
1711032137313,599616067402263558,-57
1711032137321,599616067409944548,-62
1711032137328,599616067417625538,-67
1711032137336,599616067425306528,-79
1711032137344,599616067432987518,-84
1711032137351,599616067440668508,-72
1711032137359,599616067448349498,-52
1711032137367,599616067456030488,-45
1711032137374,599616067463711478,-50
1711032137382,599616067471392468,-48
1711032137390,599616067479073458,-40
1711032137397,599616067486754448,-31
1711032137405,599616067494435438,-12
1711032137413,599616067502116428,-14
1711032137420,599616067509797418,-38
1711032137428,599616067517478408,-45
1711032137436,599616067525159398,-31
1711032137443,599616067532840388,-33
1711032137451,599616067540521378,-43
1711032137459,599616067548202368,-26
1711032137467,599616067555883358,-12
1711032137473,599616067563564348,-21
1711032137481,599616067571245338,-24
1711032137489,599616067578926328,-9
1711032137497,599616067586607318,-2
1711032137505,599616067594288337,-14
1711032137513,599616067601969327,-21
1711032137520,599616067609650317,-12
1711032137528,599616067617331307,-12
1711032137536,599616067625012297,-21
1711032137543,599616067632693287,-24
1711032137551,599616067640374277,-31
1711032137559,599616067648055267,-31
1711032137566,599616067655736257,-12
1711032137574,599616067663417247,-2
1711032137582,599616067671098237,-7
1711032137589,599616067678779227,-2
1711032137597,599616067686460217,12
1711032137605,599616067694141207,14
1711032137612,599616067701822197,12
1711032137620,599616067709503187,4
1711032137628,599616067717184177,-12
1711032137636,599616067724865167,-16
1711032137643,599616067732546157,9
1711032137651,599616067740227147,40
1711032137659,599616067747908137,38
1711032137665,599616067755589127,24
1711032137673,599616067763270117,24
1711032137681,599616067770951107,14
1711032137689,599616067778632097,-7
1711032137697,599616067786313087,-26
1711032137705,599616067793994077,-31
1711032137712,599616067801675067,-21
1711032137720,599616067809356057,-16
1711032137728,599616067817037047,-16
1711032137735,599616067824718037,-24
1711032137743,599616067832399027,-28
1711032137751,599616067840080017,91
1711032137758,599616067847761007,514
1711032137766,599616067855441997,1101
1711032137774,599616067863122987,1341
1711032137781,599616067870803977,781
1711032137789,599616067878484967,-132
1711032137797,599616067886165957,-394
1711032137804,599616067893846947,-125
1711032137812,599616067901527937,-50
1711032137820,599616067909208927,-115
1711032137828,599616067916889917,-103
1711032137835,599616067924570907,-93
1711032137843,599616067932251897,-101
1711032137851,599616067939932887,-76
1711032137857,599616067947613877,-57
1711032137865,599616067955294867,-60
1711032137873,599616067962975857,-55
1711032137881,599616067970656847,-36
1711032137889,599616067978337837,-21
1711032137897,599616067986018827,-9
1711032137904,599616067993699817,7
1711032137912,599616068001380807,21
1711032137920,599616068009061797,36
1711032137927,599616068016742787,45
1711032137935,599616068024423777,52
1711032137943,599616068032104767,55
1711032137950,599616068039785757,55
1711032137958,599616068047466747,64
1711032137966,599616068055147737,76
1711032137973,599616068062828727,72
1711032137981,599616068070509717,62
1711032137989,599616068078190707,57
1711032137997,599616068085871697,60
1711032138004,599616068093552687,55
1711032138012,599616068101233677,33
1711032138020,599616068108914667,7
1711032138027,599616068116595657,-9
1711032138035,599616068124276647,-31
1711032138043,599616068131957637,-64
1711032138049,599616068139638627,-105
1711032138057,599616068147319617,-127
1711032138065,599616068154990630,-132
1711032138073,599616068162671759,-134
1711032138081,599616068170352888,-144
1711032138089,599616068178034017,-153
1711032138096,599616068185715146,-141
1711032138104,599616068193396275,-129
1711032138112,599616068201077404,-139
1711032138119,599616068208758533,-134
1711032138127,599616068216439662,-103
1711032138135,599616068224120791,-93
1711032138142,599616068231801920,-105
1711032138150,599616068239483049,-108
1711032138158,599616068247164178,-108
1711032138165,599616068254845307,-108
1711032138173,599616068262526436,-103
1711032138181,599616068270207565,-93
1711032138189,599616068277888694,-93
1711032138196,599616068285569823,-110
1711032138204,599616068293250952,-105
1711032138212,599616068300932081,-88
1711032138219,599616068308613210,-101
1711032138227,599616068316294339,-125
1711032138235,599616068323975468,-117
1711032138241,599616068331656597,-103
1711032138249,599616068339337726,-115
1711032138257,599616068347018855,-120
1711032138265,599616068354699984,-93
1711032138273,599616068362381113,-88
1711032138281,599616068370062242,-103
1711032138288,599616068377743371,-96
1711032138296,599616068385424500,-101
1711032138304,599616068393105629,-129
1711032138311,599616068400786758,-134
1711032138319,599616068408467887,-110
1711032138327,599616068416149016,-98
1711032138334,599616068423830145,-113
1711032138342,599616068431511274,-120
1711032138350,599616068439192403,-115
1711032138358,599616068446873532,-113
1711032138365,599616068454554661,-113
1711032138373,599616068462235790,-122
1711032138381,599616068469916919,-134
1711032138388,599616068477598048,-120
1711032138396,599616068485279177,-122
1711032138404,599616068492960306,-125
1711032138411,599616068500641435,-84
1711032138419,599616068508322564,-50
1711032138427,599616068516003693,-62
1711032138433,599616068523684822,-76
1711032138441,599616068531365951,-86
1711032138449,599616068539047080,-84
1711032138457,599616068546728209,-86
1711032138465,599616068554409338,-103
1711032138473,599616068562090467,-101
1711032138480,599616068569771596,-86
1711032138488,599616068577452725,-81
1711032138496,599616068585133854,-84
1711032138503,599616068592814983,-74
1711032138511,599616068600496112,110
1711032138519,599616068608177241,646
1711032138527,599616068615858370,1288
1711032138534,599616068623539499,1377
1711032138542,599616068631220628,557
1711032138550,599616068638901757,-367
1711032138557,599616068646582886,-456
1711032138565,599616068654264015,-173
1711032138573,599616068661945144,-165
1711032138580,599616068669626273,-206
1711032138588,599616068677307402,-151
1711032138596,599616068684988531,-144
1711032138603,599616068692669660,-146
1711032138611,599616068700350789,-120
1711032138619,599616068708031918,-103
1711032138625,599616068715733117,-96
1711032138633,599616068723413968,-86
1711032138641,599616068731094819,-74
1711032138649,599616068738775670,-60
1711032138657,599616068746456521,-50
1711032138665,599616068754137372,-43
1711032138672,599616068761818223,-16
1711032138680,599616068769499074,19
1711032138688,599616068777179925,38
1711032138696,599616068784860776,45
1711032138703,599616068792541627,50
1711032138711,599616068800222478,64
1711032138719,599616068807903329,88
1711032138726,599616068815584180,103
1711032138734,599616068823265031,98
1711032138742,599616068830945882,86
1711032138749,599616068838626733,86
1711032138757,599616068846307584,86
1711032138765,599616068853988435,76
1711032138772,599616068861669286,50
1711032138780,599616068869350137,28
1711032138788,599616068877030988,9
1711032138795,599616068884711839,-12
1711032138803,599616068892392690,-36
1711032138811,599616068900073541,-62
1711032138817,599616068907754392,-86
1711032138825,599616068915435243,-96
1711032138833,599616068923116094,-96
1711032138841,599616068930796945,-101
1711032138849,599616068938477796,-96
1711032138857,599616068946158647,-74
1711032138864,599616068953839498,-64
1711032138872,599616068961520349,-76
1711032138880,599616068969201200,-81
1711032138888,599616068976882051,-67
1711032138895,599616068984562902,-60
1711032138903,599616068992243753,-62
1711032138911,599616068999924604,-62
1711032138918,599616069007605455,-62
1711032138926,599616069015286306,-48
1711032138934,599616069022967157,-33
1711032138941,599616069030648008,-40
1711032138949,599616069038328859,-50
1711032138957,599616069046009710,-36
1711032138964,599616069053690561,-19
1711032138972,599616069061371412,-24
1711032138980,599616069069052263,-31
1711032138987,599616069076733114,-31
1711032138995,599616069084413965,-26
1711032139003,599616069092094816,-21
1711032139009,599616069099775667,-16
1711032139017,599616069107456518,-14
1711032139025,599616069115137369,-12
1711032139033,599616069122818220,-14
1711032139041,599616069130499071,-19
1711032139049,599616069138179922,-14
1711032139057,599616069145860773,-24
1711032139064,599616069153541624,-33
1711032139072,599616069161222475,-16
1711032139080,599616069168903326,-12
1711032139087,599616069176584177,-33
1711032139095,599616069184265028,-38
1711032139103,599616069191945879,-28
1711032139110,599616069199626730,-16
1711032139118,599616069207307581,14
1711032139126,599616069214988432,33
1711032139133,599616069222669283,26
1711032139141,599616069230350134,38
1711032139149,599616069238030985,52
1711032139156,599616069245711836,26
1711032139164,599616069253392687,-12
1711032139172,599616069261073538,-33
1711032139179,599616069268754389,-33
1711032139187,599616069276410190,-24
1711032139195,599616069284091389,-7
1711032139201,599616069291772588,14
1711032139209,599616069299453787,0
1711032139217,599616069307134986,-16
1711032139225,599616069314816185,170
1711032139233,599616069322497384,738
1711032139241,599616069330178583,1438
1711032139249,599616069337859782,1558
1711032139256,599616069345540981,680
1711032139264,599616069353222180,-348
1711032139272,599616069360903379,-440
1711032139279,599616069368584578,-84
1711032139287,599616069376265777,-67
1711032139295,599616069383946976,-132
1711032139302,599616069391628175,-79
1711032139310,599616069399309374,-81
1711032139318,599616069406990573,-91
1711032139325,599616069414671772,-50
1711032139333,599616069422352971,-31
1711032139341,599616069430034170,-28
1711032139348,599616069437715369,-7
1711032139356,599616069445396568,14
1711032139364,599616069453077767,31
1711032139371,599616069460758966,38
1711032139379,599616069468440165,43
1711032139387,599616069476121364,69
1711032139393,599616069483802563,96
1711032139401,599616069491483762,96
1711032139409,599616069499164961,91
1711032139417,599616069506846160,101
1711032139425,599616069514527359,113
1711032139433,599616069522208558,122
1711032139441,599616069529889757,139
1711032139448,599616069537570956,141
1711032139456,599616069545252155,137
1711032139464,599616069552933354,146
1711032139471,599616069560614553,153
1711032139479,599616069568295752,132
1711032139487,599616069575976951,103
1711032139494,599616069583658150,81
1711032139502,599616069591339349,52
1711032139510,599616069599020548,16
1711032139517,599616069606701747,-21
1711032139525,599616069614382946,-57
1711032139533,599616069622064145,-81
1711032139540,599616069629745344,-88
1711032139548,599616069637426543,-86
1711032139556,599616069645107742,-88
1711032139563,599616069652788941,-96
1711032139571,599616069660470140,-91
1711032139579,599616069668151339,-67
1711032139585,599616069675832538,-62
1711032139593,599616069683513737,-69
1711032139601,599616069691194936,-52
1711032139609,599616069698876135,-26
1711032139617,599616069706557334,-26
1711032139625,599616069714238533,-33
1711032139633,599616069721919732,-28
1711032139640,599616069729600931,-19
1711032139648,599616069737282130,-14
1711032139656,599616069744963329,-12
1711032139663,599616069752644528,-9
1711032139671,599616069760325727,-12
1711032139679,599616069768006926,-14
1711032139686,599616069775688125,-4
1711032139694,599616069783369324,-2
1711032139702,599616069791050523,-9
1711032139709,599616069798731722,-2
1711032139717,599616069806412921,7
1711032139725,599616069814094120,2
1711032139732,599616069821775319,-2
1711032139740,599616069829456518,4
1711032139748,599616069837167847,12
1711032139755,599616069844848628,14
1711032139763,599616069852529409,7
1711032139771,599616069860210190,0
1711032139779,599616069867890971,-2
1711032139785,599616069875571752,-7
1711032139793,599616069883252533,-16
1711032139801,599616069890933314,-14
1711032139809,599616069898614095,-14
1711032139817,599616069906294876,-36
1711032139825,599616069913975657,-55
1711032139832,599616069921656438,-64
1711032139840,599616069929337219,-79
1711032139848,599616069937018000,-79
1711032139855,599616069944698781,-52
1711032139863,599616069952379562,-14
1711032139871,599616069960060343,14
1711032139878,599616069967741124,31
1711032139886,599616069975421905,45
1711032139894,599616069983102686,50
1711032139901,599616069990783467,31
1711032139909,599616069998464248,-4
1711032139917,599616070006145029,-28
1711032139924,599616070013825810,-26
1711032139932,599616070021506591,-16
1711032139940,599616070029187372,-9
1711032139948,599616070036868153,-26
1711032139955,599616070044548934,-45
1711032139963,599616070052229715,115
1711032139971,599616070059910496,622
1711032139977,599616070067591277,1245
1711032139985,599616070075272058,1454
1711032139993,599616070082952839,858
1711032140001,599616070090633620,-115
1711032140009,599616070098314401,-437
1711032140017,599616070105995182,-141
1711032140024,599616070113675963,-43
1711032140032,599616070121356744,-144
1711032140040,599616070129037525,-129
1711032140047,599616070136718306,-101
1711032140055,599616070144399087,-125
1711032140063,599616070152079868,-105
1711032140070,599616070159760649,-64
1711032140078,599616070167441430,-57
1711032140086,599616070175122211,-57
1711032140093,599616070182802992,-38
1711032140101,599616070190483773,-21
1711032140109,599616070198164554,-14
1711032140116,599616070205845335,0
1711032140124,599616070213526116,14
1711032140132,599616070221206897,16
1711032140140,599616070228887678,31
1711032140147,599616070236568459,64
1711032140155,599616070244249240,81
1711032140163,599616070251930021,86
1711032140169,599616070259610802,103
1711032140177,599616070267291583,117
1711032140185,599616070274972364,113
1711032140193,599616070282653145,101
1711032140201,599616070290333926,113
1711032140209,599616070298014707,122
1711032140216,599616070305695488,110
1711032140224,599616070313376269,88
1711032140232,599616070321057050,60
1711032140239,599616070328737831,33
1711032140247,599616070336418612,9
1711032140255,599616070344099393,-31
1711032140262,599616070351780174,-74
1711032140270,599616070359460955,-86
1711032140278,599616070367141736,-88
1711032140285,599616070374822517,-91
1711032140293,599616070382503298,-86
1711032140301,599616070390184079,-86
1711032140308,599616070397834792,-84
1711032140316,599616070405515991,-76
1711032140324,599616070413197190,-72
1711032140332,599616070420878389,-64
1711032140339,599616070428559588,-50
1711032140347,599616070436240787,-40
1711032140355,599616070443921986,-43
1711032140361,599616070451603185,-45
1711032140369,599616070459284384,-50
1711032140377,599616070466965583,-55
1711032140385,599616070474646782,-38
1711032140393,599616070482327981,-16
1711032140401,599616070490009180,-21
1711032140408,599616070497690379,-28
1711032140416,599616070505371578,-26
1711032140424,599616070513052777,-21
1711032140431,599616070520733976,-21
1711032140439,599616070528415175,-31
1711032140447,599616070536096374,-28
1711032140454,599616070543777573,-16
1711032140462,599616070551458772,-14
1711032140470,599616070559139971,-31
1711032140477,599616070566821170,-36
1711032140485,599616070574502369,-24
1711032140493,599616070582183568,-16
1711032140501,599616070589864767,-21
1711032140508,599616070597545966,-26
1711032140516,599616070605227165,-19
1711032140524,599616070612908364,-12
1711032140531,599616070620589563,-19
1711032140539,599616070628270762,-26
1711032140547,599616070635951961,-28
1711032140553,599616070643633160,-31
1711032140561,599616070651314359,-28
1711032140569,599616070658995558,-28
1711032140577,599616070666676757,-28
1711032140585,599616070674357956,-14
1711032140593,599616070682039155,-4
1711032140600,599616070689720354,-14
1711032140608,599616070697401553,-16
1711032140616,599616070705082752,-9
1711032140623,599616070712763951,-4
1711032140631,599616070720445150,-14
1711032140639,599616070728126349,-21
1711032140646,599616070735807548,4
1711032140654,599616070743488747,33
1711032140662,599616070751169946,38
1711032140669,599616070758851145,36
1711032140677,599616070766532344,24
1711032140685,599616070774213543,7
1711032140693,599616070781894742,-9
1711032140700,599616070789575941,-24
1711032140708,599616070797257140,-21
1711032140716,599616070804938339,-7
1711032140723,599616070812619538,-4
1711032140731,599616070820300737,-7
1711032140739,599616070827981936,-19
1711032140745,599616070835663135,9
1711032140753,599616070843344334,250
1711032140761,599616070851025533,781
1711032140769,599616070858706732,1303
1711032140777,599616070866387931,1214
1711032140785,599616070874069130,346
1711032140792,599616070881750329,-391
1711032140800,599616070889431528,-310
1711032140808,599616070897112727,-52
1711032140815,599616070904793926,-84
1711032140823,599616070912475125,-110
1711032140831,599616070920156324,-69
1711032140838,599616070927837523,-84
1711032140846,599616070935518722,-103
1711032140854,599616070943199921,-72
1711032140862,599616070950881120,-45
1711032140869,599616070958562351,-57
1711032140877,599616070966243550,-62
1711032140885,599616070973924749,-31
1711032140892,599616070981605948,-16
1711032140900,599616070989287147,-31
1711032140908,599616070996968346,-16
1711032140915,599616071004649545,19
1711032140923,599616071012330744,33
1711032140931,599616071020011943,38
1711032140937,599616071027693142,45
1711032140945,599616071035374341,48
1711032140953,599616071043055540,57
1711032140961,599616071050736739,76
1711032140969,599616071058417938,84
1711032140977,599616071066099137,76
1711032140984,599616071073780336,76
1711032140992,599616071081461535,86
1711032141000,599616071089142734,86
1711032141007,599616071096823933,69
1711032141015,599616071104505132,48
1711032141023,599616071112186331,26
1711032141031,599616071119867530,4
1711032141038,599616071127548729,-21
1711032141046,599616071135229928,-48
1711032141054,599616071142911127,-69
1711032141061,599616071150592326,-72
1711032141069,599616071158273525,-64
1711032141077,599616071165954724,-79
