phoneTimestamp,sensorTimestamp,ecg
1711636904868,599616058352955792,10557
1711636904875,599616058360622568,10501
1711636904883,599616058368289344,10234
1711636904891,599616058375956120,10067
1711636904897,599616058383622896,9956
1711636904905,599616058391289672,9805
1711636904913,599616058398956448,9721
1711636904921,599616058406623224,9620
1711636904929,599616058414290000,9455
1711636904937,599616058421956776,9331
1711636904944,599616058429623552,9216
1711636904952,599616058437290328,9080
1711636904960,599616058444957104,8981
1711636904967,599616058452623880,8888
1711636904975,599616058460290656,8814
1711636904983,599616058467957432,8762
1711636904990,599616058475624208,8581
1711636904998,599616058483290984,8328
1711636905006,599616058490957760,8206
1711636905013,599616058498624536,8114
1711636905021,599616058506291312,7967
1711636905029,599616058513958088,7885
1711636905036,599616058521624864,7759
1711636905044,599616058529291640,7481
1711636905052,599616058536958416,7253
1711636905059,599616058544625192,7174
1711636905067,599616058552291968,7120
1711636905075,599616058559958744,7025
1711636905081,599616058567625520,6899
1711636905089,599616058575292296,6750
1711636905097,599616058582959072,6628
1711636905105,599616058590625848,6569
1711636905113,599616058598292624,6533
1711636905121,599616058605959400,6429
1711636905128,599616058613626176,6284
1711636905136,599616058621292952,6199
1711636905144,599616058628959728,6108
1711636905151,599616058636626504,6000
1711636905159,599616058644293280,5937
1711636905167,599616058651960056,5860
1711636905174,599616058659626832,5763
1711636905182,599616058667293608,5702
1711636905190,599616058674960384,5605
1711636905197,599616058682627160,5471
1711636905205,599616058690293936,5397
1711636905213,599616058697960712,5327
1711636905220,599616058705627488,5227
1711636905228,599616058713294264,5182
1711636905236,599616058720961040,5124
1711636905243,599616058728627816,4966
1711636905251,599616058736294592,4993
1711636905259,599616058743961368,5241
1711636905265,599616058751628144,5243
1711636905273,599616058759294920,4884
1711636905281,599616058766961696,4344
1711636905289,599616058774628472,3938
1711636905297,599616058782295248,4033
1711636905305,599616058789962024,4195
1711636905312,599616058797628800,4060
1711636905320,599616058805295576,3994
1711636905328,599616058812962352,3985
1711636905335,599616058820629128,3852
1711636905343,599616058828295904,3755
1711636905351,599616058835962680,3683
1711636905358,599616058843629456,3570
1711636905366,599616058851296232,3545
1711636905374,599616058858963008,3559
1711636905381,599616058866629784,3491
1711636905389,599616058874296560,3403
1711636905397,599616058881963336,3378
1711636905404,599616058889630112,3378
1711636905412,599616058897296888,3358
1711636905420,599616058904963664,3358
1711636905427,599616058912645528,3353
1711636905435,599616058920312095,3301
1711636905443,599616058927978662,3249
1711636905449,599616058935645229,3195
1711636905457,599616058943311796,3132
1711636905465,599616058950978363,3098
1711636905473,599616058958644930,3062
1711636905481,599616058966311497,2960
1711636905489,599616058973978064,2843
1711636905496,599616058981644631,2786
1711636905504,599616058989311198,2768
1711636905512,599616058996977765,2746
1711636905519,599616059004644332,2725
1711636905527,599616059012310899,2678
1711636905535,599616059019977466,2556
1711636905542,599616059027644033,2459
1711636905550,599616059035310600,2447
1711636905558,599616059042977167,2447
1711636905565,599616059050643734,2450
1711636905573,599616059058310301,2389
1711636905581,599616059065976868,2206
1711636905588,599616059073643435,2102
1711636905596,599616059081310002,2143
1711636905604,599616059088976569,2197
1711636905611,599616059096643136,2208
1711636905619,599616059104309703,2190
1711636905627,599616059111976270,2156
1711636905633,599616059119642837,2120
1711636905641,599616059127309404,2082
1711636905649,599616059134975971,2075
1711636905657,599616059142642538,2100
1711636905665,599616059150309105,2084
1711636905673,599616059157975672,2014
1711636905680,599616059165642239,1976
1711636905688,599616059173308806,1980
1711636905696,599616059180975373,1978
1711636905703,599616059188641940,2048
1711636905711,599616059196308507,2271
1711636905719,599616059203975074,2445
1711636905726,599616059211641641,2278
1711636905734,599616059219308208,1763
1711636905742,599616059226974775,1397
1711636905749,599616059234641342,1555
1711636905757,599616059242307909,1745
1711636905765,599616059249974476,1603
1711636905772,599616059257641043,1420
1711636905780,599616059265307610,1309
1711636905788,599616059272974177,1219
1711636905795,599616059280640744,1187
1711636905803,599616059288307311,1187
1711636905811,599616059295973878,1097
1711636905817,599616059303640445,998
1711636905825,599616059311307012,1023
1711636905833,599616059318973579,1077
1711636905841,599616059326640146,1090
1711636905849,599616059334306713,1115
1711636905857,599616059341973280,1140
1711636905864,599616059349639847,1124
1711636905872,599616059357306414,1113
1711636905880,599616059364972981,1156
1711636905887,599616059372639548,1196
1711636905895,599616059380306115,1172
1711636905903,599616059387972682,1135
1711636905910,599616059395639249,1120
1711636905918,599616059403305816,1081
1711636905926,599616059410972383,1056
1711636905933,599616059418638950,1065
1711636905941,599616059426305517,1052
1711636905949,599616059433972084,1032
1711636905956,599616059441638651,1029
1711636905964,599616059449305218,998
1711636905972,599616059456971785,957
1711636905979,599616059464638352,989
1711636905987,599616059472244764,1016
1711636905993,599616059479912167,984
1711636906001,599616059487579570,973
1711636906009,599616059495246973,977
1711636906017,599616059502914376,928
1711636906025,599616059510581779,849
1711636906033,599616059518249182,810
1711636906040,599616059525916585,808
1711636906048,599616059533583988,806
1711636906056,599616059541251391,758
1711636906063,599616059548918794,663
1711636906071,599616059556586197,616
1711636906079,599616059564253600,657
1711636906086,599616059571921003,684
1711636906094,599616059579588406,677
1711636906102,599616059587255809,686
1711636906109,599616059594923212,684
1711636906117,599616059602590615,677
1711636906125,599616059610258018,691
1711636906132,599616059617925421,700
1711636906140,599616059625592824,704
1711636906148,599616059633260227,733
1711636906155,599616059640927630,808
1711636906163,599616059648595033,1007
1711636906171,599616059656262436,1260
1711636906177,599616059663929839,1280
1711636906185,599616059671597242,840
1711636906193,599616059679264645,331
1711636906201,599616059686932048,388
1711636906209,599616059694599451,614
1711636906217,599616059702266854,510
1711636906224,599616059709934257,440
1711636906232,599616059717601660,535
1711636906240,599616059725269063,557
1711636906247,599616059732936466,517
1711636906255,599616059740603869,465
1711636906263,599616059748271272,359
1711636906270,599616059755938675,173
1711636906278,599616059763606078,-2
1711636906286,599616059771273481,-9
1711636906293,599616059778940884,67
1711636906301,599616059786608287,67
1711636906309,599616059794275690,47
1711636906316,599616059801943093,79
1711636906324,599616059809610496,130
1711636906332,599616059817277899,180
1711636906339,599616059824945302,232
1711636906347,599616059832612705,270
1711636906355,599616059840280108,248
1711636906361,599616059847947511,194
1711636906369,599616059855614914,196
1711636906377,599616059863282317,239
1711636906385,599616059870949720,255
1711636906393,599616059878617123,255
1711636906401,599616059886284526,241
1711636906408,599616059893951929,210
1711636906416,599616059901619332,210
1711636906424,599616059909286735,252
1711636906431,599616059916954138,284
1711636906439,599616059924621541,320
1711636906447,599616059932288944,334
1711636906455,599616059939956347,284
1711636906462,599616059947623750,261
1711636906470,599616059955291153,316
1711636906478,599616059962958556,361
1711636906485,599616059970625959,392
1711636906493,599616059978293362,420
1711636906501,599616059985960765,374
1711636906508,599616059993628168,291
1711636906516,599616060001295571,248
1711636906524,599616060008962974,239
1711636906531,599616060016630377,268
1711636906539,599616060024297780,286
1711636906545,599616060031950182,243
1711636906553,599616060039617794,210
1711636906561,599616060047285406,241
1711636906569,599616060054953018,284
1711636906577,599616060062620630,309
1711636906585,599616060070288242,286
1711636906593,599616060077955854,144
1711636906600,599616060085623466,-65
1711636906608,599616060093291078,-146
1711636906616,599616060100958690,-85
1711636906623,599616060108626302,2
1711636906631,599616060116293914,176
1711636906639,599616060123961526,379
1711636906646,599616060131629138,280
1711636906654,599616060139296750,-225
1711636906662,599616060146964362,-600
1711636906669,599616060154631974,-435
1711636906677,599616060162299586,-246
1711636906685,599616060169967198,-338
1711636906692,599616060177634810,-379
1711636906700,599616060185302422,-331
1711636906708,599616060192970034,-356
1711636906715,599616060200637646,-395
1711636906723,599616060208305258,-399
1711636906731,599616060215972870,-447
1711636906737,599616060223640482,-528
1711636906745,599616060231308094,-560
1711636906753,599616060238975706,-566
1711636906761,599616060246643318,-609
1711636906769,599616060254310930,-663
1711636906777,599616060261978542,-742
1711636906784,599616060269646154,-824
1711636906792,599616060277313766,-810
1711636906800,599616060284981378,-731
1711636906807,599616060292648990,-668
1711636906815,599616060300316602,-614
1711636906823,599616060307984214,-580
1711636906830,599616060315651826,-566
1711636906838,599616060323319438,-562
1711636906846,599616060330987050,-564
1711636906853,599616060338654662,-551
1711636906861,599616060346322274,-528
1711636906869,599616060353989886,-528
1711636906876,599616060361657498,-514
1711636906884,599616060369325110,-487
1711636906892,599616060376992722,-476
1711636906899,599616060384660334,-440
1711636906907,599616060392327946,-390
1711636906915,599616060399995558,-379
1711636906921,599616060407663170,-361
1711636906929,599616060415330782,-311
1711636906937,599616060422998394,-295
1711636906945,599616060430666006,-286
1711636906953,599616060438333618,-261
1711636906961,599616060446001230,-275
1711636906968,599616060453668842,-284
1711636906976,599616060461336454,-241
1711636906984,599616060469004066,-277
1711636906991,599616060476671678,-388
1711636906999,599616060484339290,-397
1711636907007,599616060492006902,-383
1711636907014,599616060499674514,-420
1711636907022,599616060507342126,-370
1711636907030,599616060515009738,-293
1711636907037,599616060522677350,-313
1711636907045,599616060530344962,-336
1711636907053,599616060538012574,-307
1711636907060,599616060545680186,-270
1711636907068,599616060553347798,-221
1711636907076,599616060561015410,-180
1711636907083,599616060568683022,-214
1711636907091,599616060576350634,-261
1711636907099,599616060584018246,-137
1711636907105,599616060591685906,160
1711636907113,599616060599353518,379
1711636907121,599616060607021130,212
1711636907129,599616060614688742,-313
1711636907137,599616060622356354,-578
1711636907145,599616060630023966,-343
1711636907152,599616060637691578,-212
1711636907160,599616060645359190,-298
1711636907168,599616060653026802,-282
1711636907175,599616060660694414,-336
1711636907183,599616060668362026,-580
1711636907191,599616060676029638,-724
1711636907198,599616060683697250,-677
1711636907206,599616060691364862,-627
1711636907214,599616060699032474,-602
1711636907221,599616060706700086,-546
1711636907229,599616060714367698,-539
1711636907237,599616060722035310,-566
1711636907244,599616060729702922,-535
1711636907252,599616060737370534,-517
1711636907260,599616060745038146,-532
1711636907267,599616060752705758,-476
1711636907275,599616060760373370,-438
1711636907283,599616060768040982,-526
1711636907289,599616060775708594,-573
1711636907297,599616060783376206,-487
1711636907305,599616060791043818,-433
1711636907313,599616060798711430,-438
1711636907321,599616060806379042,-469
1711636907329,599616060814046654,-580
1711636907336,599616060821714266,-657
1711636907344,599616060829381878,-598
1711636907352,599616060837049490,-530
1711636907359,599616060844717102,-492
1711636907367,599616060852384714,-465
1711636907375,599616060860052326,-521
1711636907382,599616060867719938,-575
1711636907390,599616060875387550,-508
1711636907398,599616060883055162,-415
1711636907405,599616060890722774,-365
1711636907413,599616060898390386,-325
1711636907421,599616060906057998,-361
1711636907428,599616060913725610,-451
1711636907436,599616060921393222,-435
1711636907444,599616060929060834,-334
1711636907451,599616060936728446,-282
1711636907459,599616060944396058,-250
1711636907467,599616060952063670,-223
1711636907473,599616060959731282,-219
1711636907481,599616060967398894,-189
1711636907489,599616060975066506,-151
1711636907497,599616060982734118,-176
1711636907505,599616060990401730,-219
1711636907513,599616060998069342,-234
1711636907520,599616061005736954,-302
1711636907528,599616061013404566,-377
1711636907536,599616061021072178,-361
1711636907543,599616061028739790,-345
1711636907551,599616061036407402,-374
1711636907559,599616061044075014,-370
1711636907566,599616061051742626,-350
1711636907574,599616061059410238,-291
1711636907582,599616061067077850,-36
1711636907589,599616061074745462,316
1711636907597,599616061082413074,377
1711636907605,599616061090080686,-63
1711636907612,599616061097748298,-523
1711636907620,599616061105415910,-422
1711636907628,599616061113083522,-191
1711636907635,599616061120751134,-282
1711636907643,599616061128418746,-338
1711636907651,599616061136086358,-289
1711636907657,599616061143753970,-318
1711636907665,599616061151446684,-356
1711636907673,599616061159113948,-356
1711636907681,599616061166781212,-341
1711636907689,599616061174448476,-309
1711636907697,599616061182115740,-280
1711636907704,599616061189783004,-248
1711636907712,599616061197450268,-275
1711636907720,599616061205117532,-404
1711636907727,599616061212784796,-449
1711636907735,599616061220452060,-361
1711636907743,599616061228119324,-356
1711636907750,599616061235786588,-388
1711636907758,599616061243453852,-322
1711636907766,599616061251121116,-273
1711636907773,599616061258788380,-298
1711636907781,599616061266455644,-363
1711636907789,599616061274122908,-442
1711636907796,599616061281790172,-435
1711636907804,599616061289457436,-370
1711636907812,599616061297124700,-377
1711636907819,599616061304791964,-408
1711636907827,599616061312459228,-386
1711636907835,599616061320126492,-361
1711636907841,599616061327793756,-347
1711636907849,599616061335461020,-304
1711636907857,599616061343128284,-298
1711636907865,599616061350795548,-365
1711636907873,599616061358462812,-386
1711636907881,599616061366130076,-329
1711636907888,599616061373797340,-291
1711636907896,599616061381464604,-232
1711636907904,599616061389131868,-151
1711636907911,599616061396799132,-128
1711636907919,599616061404466396,-124
1711636907927,599616061412133660,-79
1711636907934,599616061419800924,-38
1711636907942,599616061427468188,15
1711636907950,599616061435135452,85
1711636907957,599616061442802716,108
1711636907965,599616061450469980,108
1711636907973,599616061458137244,137
1711636907980,599616061465804508,158
1711636907988,599616061473471772,115
1711636907996,599616061481139036,31
1711636908003,599616061488806300,-31
1711636908011,599616061496473564,-65
1711636908019,599616061504140828,-101
1711636908025,599616061511808092,-119
1711636908033,599616061519475356,-85
1711636908041,599616061527142620,13
1711636908049,599616061534809884,194
1711636908057,599616061542477148,386
1711636908065,599616061550144412,415
1711636908072,599616061557811676,160
1711636908080,599616061565478940,-300
1711636908088,599616061573146204,-469
1711636908095,599616061580813468,-214
1711636908103,599616061588480732,-135
1711636908111,599616061596147996,-298
1711636908118,599616061603815260,-311
1711636908126,599616061611482524,-230
1711636908134,599616061619149788,-203
1711636908141,599616061626817052,-182
1711636908149,599616061634484316,-153
1711636908157,599616061642151580,-155
1711636908164,599616061649818844,-151
1711636908172,599616061657486108,-101
1711636908180,599616061665153372,-54
1711636908187,599616061672820636,-9
1711636908195,599616061680487900,40
1711636908203,599616061688155164,-27
1711636908209,599616061695822428,-149
1711636908217,599616061703489692,-108
1711636908225,599616061711136964,-4
1711636908233,599616061718804506,-4
1711636908241,599616061726472048,-58
1711636908249,599616061734139590,-128
1711636908256,599616061741807132,-216
1711636908264,599616061749474674,-246
1711636908272,599616061757142216,-198
1711636908279,599616061764809758,-198
1711636908287,599616061772477300,-331
1711636908295,599616061780144842,-483
1711636908302,599616061787812384,-503
1711636908310,599616061795479926,-447
1711636908318,599616061803147468,-386
1711636908325,599616061810815010,-322
1711636908333,599616061818482552,-268
1711636908341,599616061826150094,-243
1711636908348,599616061833817636,-246
1711636908356,599616061841485178,-219
1711636908364,599616061849152720,-142
1711636908371,599616061856820262,-70
1711636908379,599616061864487804,-51
1711636908387,599616061872155346,-70
1711636908393,599616061879822888,-101
1711636908401,599616061887490430,-180
1711636908409,599616061895157972,-214
1711636908417,599616061902825514,-119
1711636908425,599616061910493056,-56
1711636908433,599616061918160598,-67
1711636908440,599616061925828140,-6
1711636908448,599616061933495682,31
1711636908456,599616061941163224,-65
1711636908463,599616061948830766,-121
1711636908471,599616061956498308,-70
1711636908479,599616061964165850,-88
1711636908486,599616061971833392,-185
1711636908494,599616061979500934,-216
1711636908502,599616061987168476,-189
1711636908509,599616061994836018,-124
1711636908517,599616062002503560,101
1711636908525,599616062010171102,422
1711636908532,599616062017838644,551
1711636908540,599616062025506186,239
1711636908548,599616062033173728,-334
1711636908555,599616062040841270,-483
1711636908563,599616062048508812,-239
1711636908571,599616062056176354,-255
1711636908577,599616062063843896,-374
1711636908585,599616062071511438,-302
1711636908593,599616062079178980,-316
1711636908601,599616062086846522,-431
1711636908609,599616062094514064,-401
1711636908617,599616062102181606,-313
1711636908624,599616062109849148,-309
1711636908632,599616062117516690,-277
1711636908640,599616062125184232,-216
1711636908647,599616062132851774,-225
1711636908655,599616062140519316,-219
1711636908663,599616062148186858,-119
1711636908670,599616062155854400,-47
1711636908678,599616062163521942,-27
1711636908686,599616062171189484,22
1711636908693,599616062178857026,70
1711636908701,599616062186524568,72
1711636908709,599616062194192110,88
1711636908716,599616062201859652,133
1711636908724,599616062209527194,119
1711636908732,599616062217194736,27
1711636908739,599616062224862278,-94
1711636908747,599616062232529820,-194
1711636908755,599616062240197362,-223
1711636908761,599616062247864904,-207
1711636908769,599616062255532446,-185
1711636908777,599616062263199988,-149
1711636908785,599616062270877610,-88
1711636908793,599616062278545013,-103
1711636908801,599616062286212416,-221
1711636908808,599616062293879819,-243
1711636908816,599616062301547222,-160
1711636908824,599616062309214625,-112
1711636908831,599616062316882028,-99
1711636908839,599616062324549431,-158
1711636908847,599616062332216834,-259
1711636908854,599616062339884237,-246
1711636908862,599616062347551640,-164
1711636908870,599616062355219043,-101
1711636908877,599616062362886446,-47
1711636908885,599616062370553849,-112
1711636908893,599616062378221252,-264
1711636908900,599616062385888655,-252
1711636908908,599616062393556058,-189
1711636908916,599616062401223461,-275
1711636908923,599616062408890864,-320
1711636908931,599616062416558267,-298
1711636908939,599616062424225670,-392
1711636908945,599616062431893073,-447
1711636908953,599616062439560476,-350
1711636908961,599616062447227879,-289
1711636908969,599616062454895282,-275
1711636908977,599616062462562685,-169
1711636908985,599616062470230088,45
1711636908992,599616062477897491,230
1711636909000,599616062485564894,124
1711636909008,599616062493232297,-379
1711636909015,599616062500899700,-745
1711636909023,599616062508567103,-555
1711636909031,599616062516234506,-370
1711636909038,599616062523901909,-471
1711636909046,599616062531569312,-471
1711636909054,599616062539236715,-368
1711636909061,599616062546904118,-327
1711636909069,599616062554571521,-298
1711636909077,599616062562238924,-266
1711636909084,599616062569906327,-270
1711636909092,599616062577573730,-270
1711636909100,599616062585241133,-225
1711636909107,599616062592908536,-151
1711636909115,599616062600575939,-99
1711636909123,599616062608243342,-106
1711636909129,599616062615910745,-153
1711636909137,599616062623578148,-178
1711636909145,599616062631245551,-133
1711636909153,599616062638912954,-63
1711636909161,599616062646580357,-15
1711636909169,599616062654247760,13
1711636909176,599616062661915163,9
1711636909184,599616062669582566,6
1711636909192,599616062677249969,56
1711636909199,599616062684917372,83
1711636909207,599616062692584775,47
1711636909215,599616062700252178,20
1711636909222,599616062707919581,-38
1711636909230,599616062715586984,-130
1711636909238,599616062723254387,-121
1711636909245,599616062730921790,-51
1711636909253,599616062738589193,-33
1711636909261,599616062746256596,-20
1711636909268,599616062753923999,-18
1711636909276,599616062761591402,-108
1711636909284,599616062769258805,-182
1711636909291,599616062776926208,-144
1711636909299,599616062784593611,-173
1711636909307,599616062792261014,-320
1711636909313,599616062799928417,-329
1711636909321,599616062807595820,-230
1711636909329,599616062815263223,-216
1711636909337,599616062822930626,-200
1711636909345,599616062830598074,-115
1711636909353,599616062838265477,-81
1711636909360,599616062845932880,-92
1711636909368,599616062853600283,-92
1711636909376,599616062861267686,-121
1711636909383,599616062868935089,-149
1711636909391,599616062876602492,-140
1711636909399,599616062884269895,-133
1711636909406,599616062891937298,-99
1711636909414,599616062899604701,-40
1711636909422,599616062907272104,-79
1711636909429,599616062914939507,-160
1711636909437,599616062922606910,-36
1711636909445,599616062930274313,250
1711636909452,599616062937941716,392
1711636909460,599616062945609119,176
1711636909468,599616062953276522,-408
1711636909475,599616062960943925,-788
1711636909483,599616062968611328,-580
1711636909491,599616062976278731,-404
1711636909497,599616062983946134,-485
1711636909505,599616062991613537,-431
1711636909513,599616062999280940,-338
1711636909521,599616063006948343,-370
1711636909529,599616063014615746,-381
1711636909537,599616063022283149,-334
1711636909544,599616063029950552,-311
1711636909552,599616063037617955,-280
1711636909560,599616063045285358,-200
1711636909567,599616063052952761,-151
1711636909575,599616063060620164,-160
1711636909583,599616063068287567,-153
1711636909590,599616063075954970,-88
1711636909598,599616063083622373,-9
1711636909606,599616063091289776,47
1711636909614,599616063098957179,81
1711636909621,599616063106624582,76
1711636909629,599616063114291985,54
1711636909637,599616063121959388,63
1711636909644,599616063129626791,106
1711636909652,599616063137294194,135
1711636909660,599616063144961597,115
1711636909667,599616063152629000,15
1711636909675,599616063160296403,-103
1711636909683,599616063167963806,-119
1711636909689,599616063175631209,-67
1711636909697,599616063183298612,-36
1711636909705,599616063190966015,-2
1711636909713,599616063198633418,-2
1711636909721,599616063206300821,-65
1711636909729,599616063213968224,-83
1711636909736,599616063221635627,-9
1711636909744,599616063229303030,47
1711636909752,599616063236970433,79
1711636909759,599616063244637836,115
1711636909767,599616063252305239,94
1711636909775,599616063259972642,65
1711636909782,599616063267640045,130
1711636909790,599616063275307448,214
1711636909798,599616063282974851,219
1711636909805,599616063290642254,130
1711636909813,599616063298309657,-74
1711636909821,599616063305977060,-237
1711636909828,599616063313644463,-234
1711636909836,599616063321311866,-198
1711636909844,599616063328979269,-182
1711636909851,599616063336646672,-164
1711636909859,599616063344314075,-196
1711636909867,599616063351981478,-210
1711636909873,599616063359648881,-133
1711636909881,599616063367316284,-83
1711636909889,599616063374983687,-38
1711636909897,599616063382651090,176
1711636909905,599616063390303492,442
1711636909913,599616063397971104,487
1711636909920,599616063405638716,151
1711636909928,599616063413306328,-424
1711636909936,599616063420973940,-596
1711636909943,599616063428641552,-293
1711636909951,599616063436309164,-214
1711636909959,599616063443976776,-388
1711636909966,599616063451644388,-420
1711636909974,599616063459312000,-374
1711636909982,599616063466979612,-377
1711636909989,599616063474647224,-345
1711636909997,599616063482314836,-316
1711636910005,599616063489982448,-413
1711636910012,599616063497650060,-548
1711636910020,599616063505317672,-544
1711636910028,599616063512985284,-444
1711636910035,599616063520652896,-381
1711636910043,599616063528320508,-354
1711636910051,599616063535988120,-318
1711636910057,599616063543655732,-275
1711636910065,599616063551323344,-228
1711636910073,599616063558990956,-155
1711636910081,599616063566658568,-90
1711636910089,599616063574326180,-51
1711636910097,599616063581993792,-20
1711636910104,599616063589661404,-20
1711636910112,599616063597329016,-33
1711636910120,599616063604996628,-22
1711636910127,599616063612664240,-15
1711636910135,599616063620331852,-15
1711636910143,599616063627999464,0
1711636910150,599616063635667076,-11
1711636910158,599616063643334688,-31
1711636910166,599616063651002300,-18
1711636910173,599616063658669912,-6
1711636910181,599616063666337524,-6
1711636910189,599616063674005136,15
1711636910196,599616063681672748,60
1711636910204,599616063689340360,70
1711636910212,599616063697007972,15
1711636910219,599616063704675584,0
1711636910227,599616063712343196,65
1711636910235,599616063720010808,97
1711636910241,599616063727678420,70
1711636910249,599616063735346032,27
1711636910257,599616063743013644,-24
1711636910265,599616063750681256,-38
1711636910273,599616063758348868,-11
1711636910281,599616063766016480,2
1711636910288,599616063773684092,-22
1711636910296,599616063781351704,-81
1711636910304,599616063789019316,-146
1711636910311,599616063796686928,-214
1711636910319,599616063804354540,-302
1711636910327,599616063812022152,-331
1711636910334,599616063819689764,-291
1711636910342,599616063827357376,-291
1711636910350,599616063835024988,-341
1711636910357,599616063842692600,-237
1711636910365,599616063850360212,67
1711636910373,599616063858027824,234
1711636910380,599616063865695436,-60
1711636910388,599616063873363048,-600
1711636910396,599616063881030660,-776
1711636910403,599616063888698272,-571
1711636910411,599616063896365884,-514
1711636910419,599616063904033496,-569
1711636910425,599616063911701108,-471
1711636910433,599616063919368720,-392
1711636910441,599616063927036332,-386
1711636910449,599616063934703944,-359
1711636910457,599616063942371556,-392
1711636910465,599616063950069312,-424
1711636910472,599616063957736506,-347
1711636910480,599616063965403700,-275
1711636910488,599616063973070894,-257
1711636910495,599616063980738088,-234
1711636910503,599616063988405282,-223
1711636910511,599616063996072476,-214
1711636910518,599616064003739670,-160
1711636910526,599616064011406864,-92
1711636910534,599616064019074058,-51
1711636910541,599616064026741252,-115
1711636910549,599616064034408446,-275
1711636910557,599616064042075640,-320
1711636910564,599616064049742834,-212
1711636910572,599616064057410028,-153
1711636910580,599616064065077222,-155
1711636910587,599616064072744416,-182
1711636910595,599616064080411610,-304
1711636910603,599616064088078804,-411
1711636910609,599616064095745998,-363
1711636910617,599616064103413192,-266
1711636910625,599616064111080386,-196
1711636910633,599616064118747580,-162
1711636910641,599616064126414774,-207
1711636910649,599616064134081968,-225
1711636910656,599616064141749162,-126
1711636910664,599616064149416356,-38
1711636910672,599616064157083550,0
1711636910679,599616064164750744,42
1711636910687,599616064172417938,31
1711636910695,599616064180085132,-47
1711636910702,599616064187752326,-99
1711636910710,599616064195419520,-81
1711636910718,599616064203086714,-36
1711636910725,599616064210753908,-2
1711636910733,599616064218421102,-27
1711636910741,599616064226088296,-142
1711636910748,599616064233755490,-221
1711636910756,599616064241422684,-169
1711636910764,599616064249089878,-153
1711636910771,599616064256757072,-200
1711636910779,599616064264424266,-185
1711636910787,599616064272091460,-180
1711636910793,599616064279758654,-219
1711636910801,599616064287425848,-146
1711636910809,599616064295093042,81
1711636910817,599616064302760236,338
1711636910825,599616064310427430,438
1711636910833,599616064318094624,167
1711636910840,599616064325761818,-422
1711636910848,599616064333429012,-686
1711636910856,599616064341096206,-420
1711636910863,599616064348763400,-316
1711636910871,599616064356430594,-508
1711636910879,599616064364097788,-566
1711636910886,599616064371764982,-557
1711636910894,599616064379432176,-596
1711636910902,599616064387099370,-564
1711636910909,599616064394766564,-505
1711636910917,599616064402433758,-485
1711636910925,599616064410100952,-433
1711636910932,599616064417768146,-370
1711636910940,599616064425435340,-390
1711636910948,599616064433102534,-424
1711636910955,599616064440769728,-390
1711636910963,599616064448436922,-338
1711636910971,599616064456104116,-309
1711636910977,599616064463771310,-257
1711636910985,599616064471438504,-182
1711636910993,599616064479105698,-101
1711636911001,599616064486772892,-22
1711636911009,599616064494440086,6
1711636911017,599616064502107280,0
1711636911024,599616064509769478,0
1711636911032,599616064517436742,-6
1711636911040,599616064525104006,-29
1711636911047,599616064532771270,-63
1711636911055,599616064540438534,-103
1711636911063,599616064548105798,-106
1711636911070,599616064555773062,-81
1711636911078,599616064563440326,-146
1711636911086,599616064571107590,-284
1711636911093,599616064578774854,-336
1711636911101,599616064586442118,-322
1711636911109,599616064594109382,-304
1711636911116,599616064601776646,-230
1711636911124,599616064609443910,-153
1711636911132,599616064617111174,-140
1711636911139,599616064624778438,-124
1711636911147,599616064632445702,-81
1711636911155,599616064640112966,-31
1711636911161,599616064647780230,31
1711636911169,599616064655447494,74
1711636911177,599616064663114758,76
1711636911185,599616064670782022,67
1711636911193,599616064678449286,22
1711636911201,599616064686116550,-42
1711636911208,599616064693783814,-31
1711636911216,599616064701451078,27
1711636911224,599616064709118342,45
1711636911231,599616064716785606,11
1711636911239,599616064724452870,-51
1711636911247,599616064732120134,-94
1711636911254,599616064739787398,-42
1711636911262,599616064747454662,173
1711636911270,599616064755121926,458
1711636911277,599616064762789190,517
1711636911285,599616064770456454,164
1711636911293,599616064778123718,-359
1711636911300,599616064785790982,-485
1711636911308,599616064793458246,-171
1711636911316,599616064801125510,-45
1711636911323,599616064808792774,-223
1711636911331,599616064816460038,-341
1711636911339,599616064824127302,-336
1711636911345,599616064831794566,-343
1711636911353,599616064839461830,-341
1711636911361,599616064847129094,-316
1711636911369,599616064854796358,-347
1711636911377,599616064862463622,-377
1711636911385,599616064870130886,-327
1711636911392,599616064877798150,-259
1711636911400,599616064885465414,-225
1711636911408,599616064893132678,-203
1711636911415,599616064900799942,-191
1711636911423,599616064908467206,-234
1711636911431,599616064916134470,-289
1711636911438,599616064923801734,-280
1711636911446,599616064931468998,-255
1711636911454,599616064939136262,-230
1711636911461,599616064946803526,-200
1711636911469,599616064954470790,-223
1711636911477,599616064962138054,-270
1711636911484,599616064969805318,-228
1711636911492,599616064977472582,-155
1711636911500,599616064985139846,-158
1711636911507,599616064992807110,-173
1711636911515,599616065000474374,-185
1711636911523,599616065008141638,-203
1711636911529,599616065015808902,-173
1711636911537,599616065023476166,-112
1711636911545,599616065031143430,-88
1711636911553,599616065038810694,-85
1711636911561,599616065046477958,-63
1711636911569,599616065054145222,-47
1711636911576,599616065061812486,-70
1711636911584,599616065069459756,-74
1711636911592,599616065077127298,-22
1711636911599,599616065084794840,15
1711636911607,599616065092462382,2
1711636911615,599616065100129924,-85
1711636911622,599616065107797466,-216
1711636911630,599616065115465008,-239
1711636911638,599616065123132550,-151
1711636911645,599616065130800092,-103
1711636911653,599616065138467634,-108
1711636911661,599616065146135176,-108
1711636911668,599616065153802718,-99
1711636911676,599616065161470260,-79
1711636911684,599616065169137802,-81
1711636911691,599616065176805344,-124
1711636911699,599616065184472886,-142
1711636911707,599616065192140428,-142
1711636911713,599616065199807970,-121
1711636911721,599616065207475512,110
1711636911729,599616065215143054,481
1711636911737,599616065222810596,560
1711636911745,599616065230478138,149
1711636911753,599616065238145680,-322
1711636911760,599616065245813222,-370
1711636911768,599616065253480764,-275
1711636911776,599616065261148306,-320
1711636911783,599616065268815848,-313
1711636911791,599616065276483390,-273
1711636911799,599616065284150932,-307
1711636911806,599616065291818474,-334
1711636911814,599616065299486016,-354
1711636911822,599616065307153558,-415
1711636911829,599616065314821100,-517
1711636911837,599616065322488642,-600
1711636911845,599616065330156184,-557
1711636911852,599616065337823726,-465
1711636911860,599616065345491268,-453
1711636911868,599616065353158810,-426
1711636911875,599616065360826352,-329
1711636911883,599616065368493894,-275
1711636911891,599616065376161436,-259
1711636911897,599616065383828978,-198
1711636911905,599616065391496520,-160
1711636911913,599616065399164062,-149
1711636911921,599616065406831604,-119
1711636911929,599616065414499146,-160
1711636911937,599616065422166688,-270
1711636911944,599616065429834230,-302
1711636911952,599616065437501772,-295
1711636911960,599616065445169314,-372
1711636911967,599616065452836856,-431
1711636911975,599616065460504398,-399
1711636911983,599616065468171940,-350
1711636911990,599616065475839482,-291
1711636911998,599616065483507024,-219
1711636912006,599616065491174566,-176
1711636912013,599616065498842108,-173
1711636912021,599616065506509650,-162
1711636912029,599616065514177192,-117
1711636912036,599616065521844734,-58
1711636912044,599616065529512276,0
1711636912052,599616065537179818,47
1711636912059,599616065544847360,56
1711636912067,599616065552514902,56
1711636912075,599616065560182444,101
1711636912081,599616065567849986,164
1711636912089,599616065575517528,212
1711636912097,599616065583185070,248
1711636912105,599616065590852612,243
1711636912113,599616065598520154,185
1711636912121,599616065606187696,151
1711636912128,599616065613855238,187
1711636912136,599616065621522780,237
1711636912144,599616065629200402,255
1711636912151,599616065636867805,189
1711636912159,599616065644535208,60
1711636912167,599616065652202611,56
1711636912174,599616065659870014,237
1711636912182,599616065667537417,458
1711636912190,599616065675204820,573
1711636912197,599616065682872223,345
1711636912205,599616065690539626,-225
1711636912213,599616065698207029,-465
1711636912220,599616065705874432,-164
1711636912228,599616065713541835,-11
1711636912236,599616065721209238,-88
1711636912243,599616065728876641,-65
1711636912251,599616065736544044,-108
1711636912259,599616065744211447,-252
1711636912265,599616065751878850,-275
1711636912273,599616065759546253,-230
1711636912281,599616065767213656,-257
1711636912289,599616065774881059,-327
1711636912297,599616065782548462,-422
1711636912305,599616065790215865,-508
1711636912312,599616065797883268,-483
1711636912320,599616065805550671,-377
1711636912328,599616065813218074,-325
1711636912335,599616065820885477,-390
1711636912343,599616065828552880,-478
1711636912351,599616065836220283,-462
1711636912358,599616065843887686,-392
1711636912366,599616065851555089,-343
1711636912374,599616065859222492,-273
1711636912381,599616065866889895,-219
1711636912389,599616065874557298,-241
1711636912397,599616065882224701,-273
1711636912404,599616065889892104,-266
1711636912412,599616065897559507,-257
1711636912420,599616065905226910,-273
1711636912427,599616065912894313,-329
1711636912435,599616065920561716,-361
1711636912443,599616065928229119,-327
1711636912449,599616065935896522,-298
1711636912457,599616065943563925,-268
1711636912465,599616065951231328,-205
1711636912473,599616065958898731,-173
1711636912481,599616065966566134,-180
1711636912489,599616065974233537,-173
1711636912496,599616065981900940,-207
1711636912504,599616065989568343,-250
1711636912512,599616065997235746,-200
1711636912519,599616066004903149,-133
1711636912527,599616066012570552,-112
1711636912535,599616066020237955,-70
1711636912542,599616066027905358,-27
1711636912550,599616066035572761,-22
1711636912558,599616066043240164,9
1711636912565,599616066050907567,42
1711636912573,599616066058574970,29
1711636912581,599616066066242373,33
1711636912588,599616066073909776,65
1711636912596,599616066081577179,90
1711636912604,599616066089244582,133
1711636912611,599616066096911985,173
1711636912619,599616066104579388,169
1711636912627,599616066112246791,252
1711636912633,599616066119914194,496
1711636912641,599616066127581597,691
1711636912649,599616066135249000,575
1711636912657,599616066142916403,92
1711636912665,599616066150583806,-327
1711636912673,599616066158251209,-241
1711636912680,599616066165918612,-76
1711636912688,599616066173586015,-196
1711636912696,599616066181253418,-266
1711636912703,599616066188920866,-200
1711636912711,599616066196588269,-189
1711636912719,599616066204255672,-212
1711636912726,599616066211923075,-219
1711636912734,599616066219590478,-246
1711636912742,599616066227257881,-248
1711636912749,599616066234925284,-255
1711636912757,599616066242592687,-309
1711636912765,599616066250260090,-304
1711636912772,599616066257927493,-234
1711636912780,599616066265594896,-230
1711636912788,599616066273262299,-311
1711636912795,599616066280929702,-354
1711636912803,599616066288597105,-273
1711636912811,599616066296264508,-171
1711636912817,599616066303931911,-128
1711636912825,599616066311599314,-101
1711636912833,599616066319266717,-155
1711636912841,599616066326934120,-316
1711636912849,599616066334601523,-388
1711636912857,599616066342268926,-327
1711636912864,599616066349936329,-298
1711636912872,599616066357603732,-286
1711636912880,599616066365271135,-293
1711636912887,599616066372938538,-388
1711636912895,599616066380605941,-447
1711636912903,599616066388273344,-379
1711636912910,599616066395940747,-325
1711636912918,599616066403608150,-345
1711636912926,599616066411275553,-350
1711636912933,599616066418942956,-356
1711636912941,599616066426610359,-383
1711636912949,599616066434277762,-329
1711636912956,599616066441945165,-219
1711636912964,599616066449612568,-142
1711636912972,599616066457279971,-88
1711636912979,599616066464947374,-83
1711636912987,599616066472614777,-97
1711636912995,599616066480282180,-63
1711636913001,599616066487949583,-9
1711636913009,599616066495616986,63
1711636913017,599616066503284389,85
1711636913025,599616066510951792,-9
1711636913033,599616066518619195,-103
1711636913041,599616066526286598,-92
1711636913048,599616066533954001,-49
1711636913056,599616066541621404,-36
1711636913064,599616066549288807,24
1711636913072,599616066556956210,92
1711636913079,599616066564623613,121
1711636913087,599616066572291016,320
1711636913095,599616066579958419,641
1711636913102,599616066587625822,672
1711636913110,599616066595293225,293
1711636913118,599616066602960628,-121
1711636913125,599616066610628031,-146
1711636913133,599616066618295434,18
1711636913141,599616066625962837,0
1711636913148,599616066633630240,-36
1711636913156,599616066641297643,2
1711636913164,599616066648965046,-42
1711636913171,599616066656632449,-117
1711636913179,599616066664299852,-142
1711636913187,599616066671967255,-176
1711636913193,599616066679634658,-214
1711636913201,599616066687302061,-219
1711636913209,599616066694969464,-232
1711636913217,599616066702636867,-282
1711636913225,599616066710304270,-338
1711636913233,599616066717971673,-372
1711636913240,599616066725639076,-336
1711636913248,599616066733306479,-246
1711636913256,599616066740973882,-198
1711636913263,599616066748656380,-200
1711636913271,599616066756323574,-169
1711636913279,599616066763990768,-126
1711636913286,599616066771657962,-126
1711636913294,599616066779325156,-121
1711636913302,599616066786992350,-76
1711636913309,599616066794659544,-85
1711636913317,599616066802326738,-158
1711636913325,599616066809993932,-252
1711636913332,599616066817661126,-320
1711636913340,599616066825328320,-368
1711636913348,599616066832995514,-469
1711636913355,599616066840662708,-541
1711636913363,599616066848329902,-535
1711636913371,599616066855997096,-562
1711636913377,599616066863664290,-582
1711636913385,599616066871331484,-514
1711636913393,599616066878998678,-429
1711636913401,599616066886665872,-422
1711636913409,599616066894333066,-469
1711636913417,599616066902000260,-483
1711636913424,599616066909667454,-433
1711636913432,599616066917334648,-368
1711636913440,599616066925001842,-365
1711636913447,599616066932669036,-329
1711636913455,599616066940336230,-194
1711636913463,599616066948003424,-130
1711636913470,599616066955670618,-137
1711636913478,599616066963337812,-83
1711636913486,599616066971005006,-18
1711636913493,599616066978672200,-6
1711636913501,599616066986339394,-29
1711636913509,599616066994006588,-4
1711636913516,599616067001673782,76
1711636913524,599616067009340976,117
1711636913532,599616067017008170,92
1711636913539,599616067024675364,97
1711636913547,599616067032342558,189
1711636913555,599616067040009752,401
1711636913561,599616067047676946,602
1711636913569,599616067055344140,476
1711636913577,599616067063011334,-70
1711636913585,599616067070678528,-508
1711636913593,599616067078345722,-347
1711636913601,599616067086012916,-60
1711636913608,599616067093680110,-106
1711636913616,599616067101347304,-160
1711636913624,599616067109014498,-67
1711636913631,599616067116681692,-58
1711636913639,599616067124348886,-126
1711636913647,599616067132016080,-140
1711636913654,599616067139683274,-169
1711636913662,599616067147350468,-273
1711636913670,599616067155017662,-329
1711636913677,599616067162684856,-322
1711636913685,599616067170352050,-304
1711636913693,599616067178019244,-250
1711636913700,599616067185686438,-167
1711636913708,599616067193353632,-115
1711636913716,599616067201020826,-110
1711636913723,599616067208688020,-108
1711636913731,599616067216355214,-97
1711636913739,599616067224022408,-79
1711636913745,599616067231689602,-24
1711636913753,599616067239356796,20
1711636913761,599616067247023990,-51
1711636913769,599616067254691184,-173
1711636913777,599616067262358378,-169
1711636913785,599616067270025572,-119
1711636913792,599616067277692766,-130
1711636913800,599616067285359960,-126
1711636913808,599616067293027154,-106
1711636913815,599616067300694348,-115
1711636913823,599616067308361586,-101
1711636913831,599616067316028780,-47
1711636913838,599616067323695974,-33
1711636913846,599616067331363168,-106
1711636913854,599616067339030362,-189
1711636913861,599616067346697556,-203
1711636913869,599616067354364750,-191
1711636913877,599616067362031944,-164
1711636913884,599616067369699138,-119
1711636913892,599616067377366332,-92
1711636913900,599616067385033526,-151
1711636913907,599616067392700720,-334
1711636913915,599616067400367914,-460
1711636913923,599616067408035108,-395
1711636913929,599616067415702302,-302
1711636913937,599616067423369496,-264
1711636913945,599616067431036690,-214
1711636913953,599616067438703884,-210
1711636913961,599616067446371078,-225
1711636913969,599616067454038272,-178
1711636913976,599616067461705466,-99
1711636913984,599616067469372660,-42
1711636913992,599616067477039854,4
1711636913999,599616067484707048,36
1711636914007,599616067492374242,49
1711636914015,599616067500041436,158
1711636914022,599616067507708630,408
1711636914030,599616067515375824,578
1711636914038,599616067523043018,365
1711636914045,599616067530710212,-117
1711636914053,599616067538377406,-295
1711636914061,599616067546044600,-90
1711636914068,599616067553711794,-13
1711636914076,599616067561378988,-65
1711636914084,599616067569046182,-13
1711636914091,599616067576713376,15
1711636914099,599616067584380570,-72
1711636914107,599616067592047764,-187
1711636914113,599616067599714958,-223
1711636914121,599616067607382152,-212
1711636914129,599616067615049346,-252
1711636914137,599616067622716540,-293
1711636914145,599616067630383734,-316
1711636914153,599616067638050928,-361
1711636914160,599616067645718122,-359
1711636914168,599616067653385316,-284
1711636914176,599616067661052510,-228
1711636914183,599616067668719704,-205
1711636914191,599616067676386898,-169
1711636914199,599616067684054092,-124
1711636914206,599616067691721286,-99
1711636914214,599616067699388480,-65
1711636914222,599616067707055674,-31
1711636914229,599616067714722868,-40
1711636914237,599616067722390062,-47
1711636914245,599616067730057256,-38
1711636914252,599616067737724450,-76
1711636914260,599616067745391644,-115
1711636914268,599616067753058838,-97
1711636914275,599616067760726032,-79
1711636914283,599616067768393226,-67
1711636914291,599616067776060420,-47
1711636914297,599616067783727614,-92
1711636914305,599616067791394808,-153
1711636914313,599616067799062002,-126
1711636914321,599616067806729196,-79
1711636914329,599616067814396390,-72
1711636914337,599616067822063584,-42
1711636914344,599616067829730778,-49
1711636914352,599616067837397972,-135
1711636914360,599616067845065166,-180
1711636914367,599616067852732360,-153
1711636914375,599616067860399554,-99
1711636914383,599616067868031656,-36
1711636914390,599616067875699338,-27
1711636914398,599616067883367020,-76
1711636914406,599616067891034702,-83
1711636914413,599616067898702384,-54
1711636914421,599616067906370066,-56
1711636914429,599616067914037748,-60
1711636914436,599616067921705430,-70
1711636914444,599616067929373112,-185
1711636914452,599616067937040794,-356
1711636914459,599616067944708476,-374
1711636914467,599616067952376158,-309
1711636914475,599616067960043840,-336
1711636914481,599616067967711522,-313
1711636914489,599616067975379204,-90
1711636914497,599616067983046886,212
1711636914505,599616067990714568,354
1711636914513,599616067998382250,135
1711636914521,599616068006049932,-289
1711636914528,599616068013717614,-361
1711636914536,599616068021385296,-121
1711636914544,599616068029052978,-117
1711636914551,599616068036720660,-259
1711636914559,599616068044388342,-234
1711636914567,599616068052056024,-187
1711636914574,599616068059723706,-232
1711636914582,599616068067391388,-268
1711636914590,599616068075059070,-293
1711636914597,599616068082726752,-341
1711636914605,599616068090394434,-334
1711636914613,599616068098062116,-273
1711636914620,599616068105729798,-230
1711636914628,599616068113397480,-207
1711636914636,599616068121065162,-191
1711636914643,599616068128732844,-214
1711636914651,599616068136400526,-237
1711636914659,599616068144068208,-171
1711636914665,599616068151735890,-70
1711636914673,599616068159403572,-11
1711636914681,599616068167071254,-18
1711636914689,599616068174738936,-133
1711636914697,599616068182406618,-214
1711636914705,599616068190074300,-133
1711636914712,599616068197741982,-63
1711636914720,599616068205409664,-94
1711636914728,599616068213077346,-108
1711636914735,599616068220745028,-119
1711636914743,599616068228412710,-162
1711636914751,599616068236080392,-135
1711636914758,599616068243748074,-49
1711636914766,599616068251415756,-6
1711636914774,599616068259083438,4
1711636914781,599616068266751120,-22
1711636914789,599616068274418802,-119
1711636914797,599616068282086484,-173
1711636914804,599616068289754166,-106
1711636914812,599616068297421848,-27
1711636914820,599616068305089530,9
1711636914827,599616068312757212,20
1711636914835,599616068320424894,11
1711636914843,599616068328092576,-6
1711636914849,599616068335760258,-72
1711636914857,599616068343427940,-144
1711636914865,599616068351095622,-124
1711636914873,599616068358763304,-90
1711636914881,599616068366430986,-110
1711636914889,599616068374098668,-124
1711636914896,599616068381766350,-90
1711636914904,599616068389434032,-29
1711636914912,599616068397101714,-6
1711636914919,599616068404769396,-58
1711636914927,599616068412437078,-151
1711636914935,599616068420104760,-180
1711636914942,599616068427802564,-128
1711636914950,599616068435469828,-81
1711636914958,599616068443137092,-65
1711636914965,599616068450804356,-83
1711636914973,599616068458471620,-155
1711636914981,599616068466138884,-280
1711636914988,599616068473806148,-266
1711636914996,599616068481473412,70
1711636915004,599616068489140676,359
1711636915011,599616068496807940,185
1711636915019,599616068504475204,-320
1711636915027,599616068512142468,-666
1711636915033,599616068519809732,-580
1711636915041,599616068527476996,-438
1711636915049,599616068535144260,-481
1711636915057,599616068542811524,-462
1711636915065,599616068550478788,-363
1711636915073,599616068558146052,-345
1711636915080,599616068565813316,-372
1711636915088,599616068573480580,-356
1711636915096,599616068581147844,-302
1711636915103,599616068588815108,-250
1711636915111,599616068596482372,-234
1711636915119,599616068604149636,-178
1711636915126,599616068611816900,-112
1711636915134,599616068619484164,-153
1711636915142,599616068627151428,-225
1711636915149,599616068634818692,-205
1711636915157,599616068642485956,-133
1711636915165,599616068650153220,-70
1711636915172,599616068657820484,-92
1711636915180,599616068665487748,-176
1711636915188,599616068673155012,-130
1711636915195,599616068680822276,-47
1711636915203,599616068688489540,-72
1711636915211,599616068696156804,-63
1711636915217,599616068703824068,-18
1711636915225,599616068711491332,-54
1711636915233,599616068719158596,-103
1711636915241,599616068726825860,-92
1711636915249,599616068734493124,-51
1711636915257,599616068742160388,0
1711636915264,599616068749827652,36
1711636915272,599616068757494916,38
1711636915280,599616068765162180,27
1711636915287,599616068772829444,29
1711636915295,599616068780496708,58
1711636915303,599616068788163972,92
1711636915310,599616068795831236,110
1711636915318,599616068803498500,90
1711636915326,599616068811165764,-2
1711636915333,599616068818833028,-88
1711636915341,599616068826500292,-74
1711636915349,599616068834167556,-92
1711636915356,599616068841834820,-223
1711636915364,599616068849502084,-239
1711636915372,599616068857169348,-124
1711636915379,599616068864836612,-176
1711636915387,599616068872503876,-302
1711636915395,599616068880171140,-250
1711636915401,599616068887838404,-171
1711636915409,599616068895505668,-173
1711636915417,599616068903172932,-176
1711636915425,599616068910840196,-210
1711636915433,599616068918507460,-228
1711636915441,599616068926174724,-146
1711636915448,599616068933841988,-81
1711636915456,599616068941509252,-79
1711636915464,599616068949176516,-94
1711636915471,599616068956843780,-146
1711636915479,599616068964511044,-210
1711636915487,599616068972178308,-216
1711636915494,599616068979845572,-79
1711636915502,599616068987497808,203
1711636915510,599616068995165281,329
1711636915517,599616069002832754,4
1711636915525,599616069010500227,-555
1711636915533,599616069018167700,-697
1711636915540,599616069025835173,-401
1711636915548,599616069033502646,-289
1711636915556,599616069041170119,-404
1711636915563,599616069048837592,-471
1711636915571,599616069056505065,-541
1711636915579,599616069064172538,-551
1711636915585,599616069071840011,-456
1711636915593,599616069079507484,-388
1711636915601,599616069087174957,-356
1711636915609,599616069094842430,-343
1711636915617,599616069102509903,-399
1711636915625,599616069110177376,-469
1711636915632,599616069117844849,-460
1711636915640,599616069125512322,-386
1711636915648,599616069133179795,-318
1711636915655,599616069140847268,-284
1711636915663,599616069148514741,-266
1711636915671,599616069156182214,-234
1711636915678,599616069163849687,-191
1711636915686,599616069171517160,-128
1711636915694,599616069179184633,-60
1711636915701,599616069186852106,-36
1711636915709,599616069194519579,-83
1711636915717,599616069202187052,-169
1711636915724,599616069209854525,-187
1711636915732,599616069217521998,-149
1711636915740,599616069225189471,-146
1711636915747,599616069232856944,-146
1711636915755,599616069240524417,-112
1711636915763,599616069248191890,-58
1711636915769,599616069255859363,-20
1711636915777,599616069263526836,-29
1711636915785,599616069271194309,-22
1711636915793,599616069278861782,42
1711636915801,599616069286529255,81
1711636915809,599616069294196728,67
1711636915816,599616069301864201,85
1711636915824,599616069309531674,137
1711636915832,599616069317199147,137
1711636915839,599616069324866620,79
1711636915847,599616069332534093,-11
1711636915855,599616069340201566,-171
1711636915862,599616069347869039,-341
1711636915870,599616069355536512,-406
1711636915878,599616069363203985,-431
1711636915885,599616069370871458,-431
1711636915893,599616069378538931,-354
1711636915901,599616069386206404,-277
1711636915908,599616069393873877,-257
1711636915916,599616069401541350,-268
1711636915924,599616069409208823,-298
1711636915931,599616069416876296,-338
1711636915939,599616069424543769,-379
1711636915947,599616069432211242,-415
1711636915953,599616069439878715,-415
1711636915961,599616069447546188,-365
1711636915969,599616069455213661,-331
1711636915977,599616069462881134,-331
1711636915985,599616069470548607,-304
1711636915993,599616069478216080,-252
1711636916000,599616069485883553,-167
1711636916008,599616069493551026,49
1711636916016,599616069501218499,334
1711636916023,599616069508885972,390
1711636916031,599616069516553445,33
1711636916039,599616069524220918,-377
1711636916046,599616069531888391,-350
1711636916054,599616069539555864,-205
1711636916062,599616069547243448,-284
1711636916069,599616069554910642,-302
1711636916077,599616069562577836,-203
1711636916085,599616069570245030,-160
1711636916092,599616069577912224,-126
1711636916100,599616069585579418,-90
1711636916108,599616069593246612,-106
1711636916115,599616069600913806,-142
1711636916123,599616069608581000,-151
1711636916131,599616069616248194,-130
1711636916137,599616069623915388,-81
1711636916145,599616069631582582,-74
1711636916153,599616069639249776,-164
1711636916161,599616069646916970,-223
1711636916169,599616069654584164,-144
1711636916177,599616069662251358,-27
1711636916184,599616069669918552,60
1711636916192,599616069677585746,133
1711636916200,599616069685252940,155
1711636916207,599616069692920134,112
1711636916215,599616069700587328,99
1711636916223,599616069708254522,140
1711636916230,599616069715921716,162
1711636916238,599616069723588910,155
1711636916246,599616069731256104,99
1711636916253,599616069738923298,-33
1711636916261,599616069746590492,-97
1711636916269,599616069754257686,-31
1711636916276,599616069761924880,18
1711636916284,599616069769592074,13
1711636916292,599616069777259268,-13
1711636916299,599616069784926462,-72
1711636916307,599616069792593656,-99
1711636916315,599616069800260850,-51
1711636916321,599616069807928044,0
1711636916329,599616069815595238,27
1711636916337,599616069823262432,49
1711636916345,599616069830929626,31
1711636916353,599616069838596820,-31
1711636916361,599616069846264014,-121
1711636916368,599616069853931208,-243
1711636916376,599616069861598402,-313
1711636916384,599616069869265596,-334
1711636916391,599616069876932790,-438
1711636916399,599616069884599984,-571
1711636916407,599616069892267178,-564
1711636916414,599616069899934372,-476
1711636916422,599616069907601566,-426
1711636916430,599616069915268760,-392
1711636916437,599616069922935954,-379
1711636916445,599616069930603148,-399
1711636916453,599616069938270342,-383
1711636916460,599616069945937536,-331
1711636916468,599616069953604730,-280
1711636916476,599616069961271924,-237
1711636916483,599616069968939118,-216
1711636916491,599616069976606312,-228
1711636916499,599616069984273506,-228
1711636916505,599616069991940700,-115
1711636916513,599616069999607894,162
1711636916521,599616070007275088,440
1711636916529,599616070014942282,487
1711636916537,599616070022609476,155
1711636916545,599616070030276670,-298
1711636916552,599616070037943864,-298
1711636916560,599616070045611058,-47
1711636916568,599616070053278252,-65
1711636916575,599616070060945446,-126
1711636916583,599616070068612640,-60
1711636916591,599616070076279834,-124
1711636916598,599616070083947028,-239
1711636916606,599616070091614222,-223
1711636916614,599616070099281416,-212
1711636916621,599616070106948654,-234
1711636916629,599616070114615848,-189
1711636916637,599616070122283042,-133
1711636916644,599616070129950236,-112
1711636916652,599616070137617430,-54
1711636916660,599616070145284624,40
1711636916667,599616070152951818,65
1711636916675,599616070160619012,56
1711636916683,599616070168286206,60
1711636916689,599616070175953400,6
1711636916697,599616070183620594,-6
1711636916705,599616070191287788,97
1711636916713,599616070198954982,155
1711636916721,599616070206622176,142
1711636916729,599616070214289370,178
1711636916737,599616070221956564,171
1711636916744,599616070229623758,20
1711636916752,599616070237290952,-106
1711636916760,599616070244958146,-112
1711636916767,599616070252625340,-119
1711636916775,599616070260292534,-140
1711636916783,599616070267959728,-144
1711636916790,599616070275626922,-135
1711636916798,599616070283294116,-119
1711636916806,599616070290961310,-151
1711636916813,599616070298628504,-194
1711636916821,599616070306295698,-173
1711636916829,599616070313962892,-151
1711636916836,599616070321630086,-189
1711636916844,599616070329297280,-243
1711636916852,599616070336964474,-286
1711636916859,599616070344631668,-388
1711636916867,599616070352298862,-514
1711636916875,599616070359966056,-555
1711636916881,599616070367633250,-544
1711636916889,599616070375300444,-571
1711636916897,599616070382967638,-557
1711636916905,599616070390634832,-458
1711636916913,599616070398302026,-399
1711636916921,599616070405969220,-404
1711636916928,599616070413636414,-426
1711636916936,599616070421303608,-467
1711636916944,599616070428970802,-465
1711636916951,599616070436637996,-404
1711636916959,599616070444305190,-345
1711636916967,599616070451972384,-331
1711636916974,599616070459639578,-363
1711636916982,599616070467306772,-406
1711636916990,599616070474973966,-424
1711636916997,599616070482641160,-352
1711636917005,599616070490308354,-266
1711636917013,599616070497975548,-205
1711636917020,599616070505642742,33
1711636917028,599616070513309936,408
1711636917036,599616070520977130,548
1711636917043,599616070528644324,232
1711636917051,599616070536311518,-248
1711636917059,599616070543978712,-291
1711636917065,599616070551645906,-6
1711636917073,599616070559313100,47
1711636917081,599616070566980294,-51
1711636917089,599616070574647488,-27
1711636917097,599616070582314682,15
1711636917105,599616070589981876,-15
1711636917112,599616070597649070,-2
1711636917120,599616070605316264,18
1711636917128,599616070612983458,-76
1711636917135,599616070620650652,-155
1711636917143,599616070628317846,-94
1711636917151,599616070635985040,2
1711636917158,599616070643652234,83
1711636917166,599616070651319428,137
1711636917174,599616070658986622,137
1711636917181,599616070666653860,155
1711636917189,599616070674321054,234
1711636917197,599616070681988248,313
1711636917204,599616070689655442,331
1711636917212,599616070697322636,266
1711636917220,599616070704989830,185
1711636917227,599616070712657024,130
1711636917235,599616070720324218,103
1711636917243,599616070727991412,97
1711636917249,599616070735658606,72
1711636917257,599616070743325800,33
1711636917265,599616070750992994,-6
1711636917273,599616070758660188,-60
1711636917281,599616070766327382,-117
1711636917289,599616070773994576,-126
1711636917296,599616070781661770,-94
1711636917304,599616070789328964,-94
1711636917312,599616070796996158,-196
1711636917319,599616070804663352,-338
1711636917327,599616070812330546,-424
1711636917335,599616070819997740,-411
1711636917342,599616070827664934,-361
1711636917350,599616070835332128,-408
1711636917358,599616070842999322,-474
1711636917365,599616070850666516,-449
1711636917373,599616070858333710,-474
1711636917381,599616070866000904,-537
1711636917388,599616070873668098,-467
1711636917396,599616070881335292,-415
1711636917404,599616070889002486,-449
1711636917411,599616070896669680,-381
1711636917419,599616070904336874,-282
1711636917427,599616070912004068,-280
1711636917433,599616070919671262,-241
1711636917441,599616070927338456,-146
1711636917449,599616070935005650,-142
1711636917457,599616070942672844,-194
1711636917465,599616070950340038,-243
1711636917473,599616070958007232,-311
1711636917480,599616070965674426,-273
1711636917488,599616070973341620,-171
1711636917496,599616070981008814,-182
1711636917503,599616070988676008,-196
1711636917511,599616070996343202,-117
1711636917519,599616071004010396,38
1711636917526,599616071011677590,397
1711636917534,599616071019344784,761
1711636917542,599616071027011978,679
1711636917549,599616071034679172,162
1711636917557,599616071042346366,-200
1711636917565,599616071050013560,-83
1711636917572,599616071057680754,51
1711636917580,599616071065347948,0
1711636917588,599616071073015142,20
1711636917595,599616071080682336,38
1711636917603,599616071088349530,-31
1711636917611,599616071096016724,-29
1711636917617,599616071103683918,22
1711636917625,599616071111351112,11
1711636917633,599616071119018306,-18
1711636917641,599616071126685500,4
1711636917649,599616071134352694,45
1711636917657,599616071142019888,40
1711636917664,599616071149687082,-18
1711636917672,599616071157354276,-63
1711636917680,599616071165021470,-58
1711636917687,599616071172688664,-27
1711636917695,599616071180355858,15
1711636917703,599616071188023052,47
1711636917710,599616071195690246,60
1711636917718,599616071203357440,67
1711636917726,599616071211024634,72
1711636917733,599616071218691828,74
1711636917741,599616071226328970,94
1711636917749,599616071233996582,119
1711636917756,599616071241664194,70
1711636917764,599616071249331806,-45
1711636917772,599616071256999418,-126
1711636917779,599616071264667030,-169
1711636917787,599616071272334642,-212
1711636917795,599616071280002254,-212
1711636917801,599616071287669866,-223
1711636917809,599616071295337478,-334
1711636917817,599616071303005090,-433
1711636917825,599616071310672702,-388
1711636917833,599616071318340314,-316
1711636917841,599616071326007926,-356
1711636917848,599616071333675538,-429
1711636917856,599616071341343150,-510
1711636917864,599616071349010762,-611
1711636917871,599616071356678374,-580
1711636917879,599616071364345986,-510
1711636917887,599616071372013598,-605
1711636917894,599616071379681210,-659
1711636917902,599616071387348822,-578
1711636917910,599616071395016434,-578
1711636917917,599616071402684046,-578
1711636917925,599616071410351658,-438
1711636917933,599616071418019270,-336
1711636917940,599616071425686882,-316
1711636917948,599616071433354494,-250
1711636917956,599616071441022106,-214
1711636917963,599616071448689718,-248
1711636917971,599616071456357330,-214
1711636917979,599616071464024942,-128
1711636917985,599616071471692554,-126
1711636917993,599616071479360166,-167
1711636918001,599616071487027778,-185
1711636918009,599616071494695390,-216
1711636918017,599616071502363002,-191
1711636918025,599616071510030614,-106
1711636918032,599616071517698226,-18
1711636918040,599616071525365838,221
1711636918048,599616071533033450,571
1711636918055,599616071540701062,625
1711636918063,599616071548368674,210
1711636918071,599616071556036286,-187
1711636918078,599616071563703898,-94
1711636918086,599616071571371510,58
1711636918094,599616071579039122,-97
1711636918101,599616071586706734,-171
1711636918109,599616071594374346,-38
1711636918117,599616071602041958,33
1711636918124,599616071609709570,54
1711636918132,599616071617377182,124
1711636918140,599616071625044794,112
1711636918147,599616071632712406,36
1711636918155,599616071640380018,29
1711636918163,599616071648047630,24
1711636918169,599616071655715242,15
1711636918177,599616071663382854,67
1711636918185,599616071671050466,90
1711636918193,599616071678718078,51
1711636918201,599616071686385690,6
1711636918209,599616071694053302,-15
1711636918216,599616071701720914,58
1711636918224,599616071709388526,142
1711636918232,599616071717056138,85
1711636918239,599616071724723750,2
1711636918247,599616071732391362,9
1711636918255,599616071740058974,-42
1711636918262,599616071747726586,-153
1711636918270,599616071755394198,-169
1711636918278,599616071763061810,-182
1711636918285,599616071770729422,-239
1711636918293,599616071778397034,-259
1711636918301,599616071786094792,-280
1711636918308,599616071793761986,-286
1711636918316,599616071801429180,-234
1711636918324,599616071809096374,-228
1711636918331,599616071816763568,-307
1711636918339,599616071824430762,-411
1711636918347,599616071832097956,-562
1711636918353,599616071839765150,-659
1711636918361,599616071847432344,-589
1711636918369,599616071855099538,-503
1711636918377,599616071862766732,-499
1711636918385,599616071870433926,-485
1711636918393,599616071878101120,-499
1711636918400,599616071885768314,-541
1711636918408,599616071893435508,-505
1711636918416,599616071901102702,-447
1711636918423,599616071908769896,-415
1711636918431,599616071916437090,-320
1711636918439,599616071924104284,-223
1711636918446,599616071931771478,-223
1711636918454,599616071939438672,-205
1711636918462,599616071947105866,-119
1711636918469,599616071954773060,-60
1711636918477,599616071962440254,-40
1711636918485,599616071970107448,-18
1711636918492,599616071977774642,11
1711636918500,599616071985441836,33
1711636918508,599616071993109030,45
1711636918515,599616072000776224,63
1711636918523,599616072008443418,70
1711636918531,599616072016110612,60
1711636918537,599616072023777806,24
1711636918545,599616072031445000,-24
1711636918553,599616072039112194,115
1711636918561,599616072046779388,503
1711636918569,599616072054446582,781
1711636918577,599616072062113776,616
1711636918584,599616072069780970,42
1711636918592,599616072077448164,-365
1711636918600,599616072085115358,-237
1711636918607,599616072092782552,-45
1711636918615,599616072100449746,-60
1711636918623,599616072108116940,-20
1711636918630,599616072115784134,74
1711636918638,599616072123451328,63
1711636918646,599616072131118522,2
1711636918653,599616072138785716,-20
1711636918661,599616072146452910,-18
1711636918669,599616072154120104,11
1711636918676,599616072161787298,47
1711636918684,599616072169454492,40
1711636918692,599616072177121686,-15
1711636918699,599616072184788880,-38
1711636918707,599616072192456074,20
1711636918715,599616072200123268,90
1711636918721,599616072207790462,135
1711636918729,599616072215457656,115
1711636918737,599616072223124850,0
1711636918745,599616072230792044,-63
1711636918753,599616072238459238,-29
1711636918761,599616072246126432,-60
1711636918768,599616072253793626,-117
1711636918776,599616072261460820,-135
1711636918784,599616072269128014,-189
1711636918791,599616072276795208,-246
1711636918799,599616072284462402,-250
1711636918807,599616072292129596,-248
1711636918814,599616072299796790,-216
1711636918822,599616072307463984,-212
1711636918830,599616072315131178,-350
1711636918837,599616072322798372,-417
1711636918845,599616072330465566,-295
1711636918853,599616072338132760,-232
1711636918860,599616072345799998,-241
1711636918868,599616072353467192,-189
1711636918876,599616072361134386,-207
1711636918883,599616072368801580,-329
1711636918891,599616072376468774,-435
1711636918899,599616072384135968,-510
1711636918905,599616072391803162,-496
1711636918913,599616072399470356,-406
1711636918921,599616072407137550,-406
1711636918929,599616072414804744,-519
1711636918937,599616072422471938,-569
1711636918945,599616072430139132,-481
1711636918952,599616072437806326,-381
1711636918960,599616072445473520,-350
1711636918968,599616072453140714,-347
1711636918975,599616072460807908,-331
1711636918983,599616072468475102,-264
1711636918991,599616072476142296,-187
1711636918998,599616072483809490,-146
1711636919006,599616072491476684,-99
1711636919014,599616072499143878,-45
1711636919021,599616072506811072,-33
1711636919029,599616072514478266,-54
1711636919037,599616072522145460,-45
1711636919044,599616072529812654,22
1711636919052,599616072537479848,49
1711636919060,599616072545147042,0
1711636919067,599616072552814236,-2
1711636919075,599616072560481430,2
1711636919083,599616072568148624,-18
1711636919089,599616072575815818,130
1711636919097,599616072583483012,483
1711636919105,599616072591150206,745
1711636919113,599616072598817400,652
1711636919121,599616072606484594,160
1711636919129,599616072614151788,-311
1711636919136,599616072621818982,-237
1711636919144,599616072629486176,4
1711636919152,599616072637153370,-63
1711636919159,599616072644820564,-137
1711636919167,599616072652487758,-90
1711636919175,599616072660154952,-108
1711636919182,599616072667822146,-130
1711636919190,599616072675489340,-92
1711636919198,599616072683156534,-79
1711636919205,599616072690823728,-76
1711636919213,599616072698490922,-24
1711636919221,599616072706158116,4
1711636919228,599616072713825310,-18
1711636919236,599616072721492504,-18
1711636919244,599616072729159698,-18
1711636919251,599616072736826892,-47
1711636919259,599616072744494086,-70
1711636919267,599616072752161280,-121
1711636919273,599616072759828474,-223
1711636919281,599616072767495668,-264
1711636919289,599616072775162862,-225
1711636919297,599616072782830056,-178
1711636919305,599616072790497250,-151
1711636919313,599616072798164444,-162
1711636919320,599616072805831638,-207
1711636919328,599616072813498832,-266
1711636919336,599616072821166026,-311
1711636919343,599616072828833220,-313
1711636919351,599616072836500414,-291
1711636919359,599616072844167608,-275
1711636919366,599616072851834802,-270
1711636919374,599616072859501996,-266
1711636919382,599616072867169190,-270
1711636919389,599616072874836384,-307
1711636919397,599616072882503578,-379
1711636919405,599616072890170772,-415
1711636919412,599616072897837966,-422
1711636919420,599616072905505204,-490
1711636919428,599616072913172398,-537
1711636919435,599616072920839592,-481
1711636919443,599616072928506786,-404
1711636919451,599616072936173980,-336
1711636919457,599616072943841174,-252
1711636919465,599616072951508368,-228
1711636919473,599616072959175562,-264
1711636919481,599616072966842756,-241
1711636919489,599616072974509950,-160
1711636919497,599616072982177144,-108
1711636919504,599616072989844338,-70
1711636919512,599616072997511532,-70
1711636919520,599616073005178726,-151
1711636919527,599616073012845920,-178
1711636919535,599616073020513114,-88
1711636919543,599616073028180308,-38
1711636919550,599616073035847502,-40
1711636919558,599616073043514696,-18
1711636919566,599616073051181890,-42
1711636919573,599616073058849084,-99
1711636919581,599616073066516278,-79
1711636919589,599616073074183472,-45
1711636919596,599616073081850666,-24
1711636919604,599616073089517860,2
1711636919612,599616073097185054,2
1711636919619,599616073104852248,189
1711636919627,599616073112519442,580
1711636919635,599616073120186636,668
1711636919641,599616073127853830,232
1711636919649,599616073135521024,-223
1711636919657,599616073143188218,-205
1711636919665,599616073150855412,-63
1711636919673,599616073158522606,-164
1711636919681,599616073166189800,-182
1711636919688,599616073173856994,-49
1711636919696,599616073181524188,-33
1711636919704,599616073189191382,-83
1711636919711,599616073196858576,-72
1711636919719,599616073204525770,-47
1711636919727,599616073212192964,-29
1711636919734,599616073219860158,27
1711636919742,599616073227527352,76
1711636919750,599616073235194546,29
1711636919757,599616073242861740,-60
1711636919765,599616073250528934,-103
1711636919773,599616073258196128,-130
1711636919780,599616073265863322,-155
1711636919788,599616073273530516,-135
1711636919796,599616073281197710,-99
1711636919803,599616073288864904,-81
1711636919811,599616073296532098,-92
1711636919819,599616073304199292,-126
1711636919825,599616073311866486,-124
1711636919833,599616073319533680,-115
1711636919841,599616073327200874,-133
1711636919849,599616073334868068,-176
1711636919857,599616073342535262,-280
1711636919865,599616073350202456,-370
1711636919872,599616073357869650,-352
1711636919880,599616073365536844,-318
1711636919888,599616073373204038,-307
1711636919895,599616073380871232,-293
1711636919903,599616073388538426,-352
1711636919911,599616073396205620,-408
1711636919918,599616073403872814,-334
1711636919926,599616073411540008,-270
1711636919934,599616073419207202,-295
1711636919941,599616073426874396,-298
1711636919949,599616073434541590,-300
1711636919957,599616073442208784,-368
1711636919964,599616073449875978,-372
1711636919972,599616073457543172,-293
1711636919980,599616073465210410,-257
1711636919987,599616073472877604,-225
1711636919995,599616073480544798,-173
1711636920003,599616073488211992,-158
1711636920009,599616073495879186,-130
1711636920017,599616073503546380,-92
1711636920025,599616073511213574,-85
1711636920033,599616073518880768,-38
1711636920041,599616073526547962,51
1711636920049,599616073534215156,101
1711636920056,599616073541882350,90
1711636920064,599616073549549544,54
1711636920072,599616073557216738,24
1711636920079,599616073564883932,13
1711636920087,599616073572551126,36
1711636920095,599616073580218320,33
1711636920102,599616073587885514,-51
1711636920110,599616073595552708,-108
1711636920118,599616073603219902,-76
1711636920125,599616073610887096,-36
1711636920133,599616073618554290,22
1711636920141,599616073626221484,194
1711636920148,599616073633888678,404
1711636920156,599616073641555872,435
1711636920164,599616073649223066,189
1711636920171,599616073656890260,-320
1711636920179,599616073664557454,-634
1711636920187,599616073672224648,-422
1711636920193,599616073679891842,-241
1711636920201,599616073687559036,-331
1711636920209,599616073695226230,-322
1711636920217,599616073702893424,-230
1711636920225,599616073710560618,-198
1711636920233,599616073718227812,-149
1711636920240,599616073725895006,-85
1711636920248,599616073733562200,-92
1711636920256,599616073741229394,-146
1711636920263,599616073748896588,-169
1711636920271,599616073756563782,-155
1711636920279,599616073764230976,-167
1711636920286,599616073771898170,-194
1711636920294,599616073779565364,-212
1711636920302,599616073787232558,-275
1711636920309,599616073794899752,-327
1711636920317,599616073802566946,-266
1711636920325,599616073810234140,-182
1711636920332,599616073817901334,-146
1711636920340,599616073825568528,-176
1711636920348,599616073833235722,-264
1711636920355,599616073840902916,-300
1711636920363,599616073848570110,-243
1711636920371,599616073856237304,-203
1711636920377,599616073863904498,-198
1711636920385,599616073871571692,-207
1711636920393,599616073879238886,-259
1711636920401,599616073886906080,-345
1711636920409,599616073894573274,-429
1711636920417,599616073902240468,-440
1711636920424,599616073909907662,-368
1711636920432,599616073917574856,-325
1711636920440,599616073925242050,-341
1711636920447,599616073932909244,-322
1711636920455,599616073940576438,-259
1711636920463,599616073948243632,-194
1711636920470,599616073955910826,-146
1711636920478,599616073963578020,-137
1711636920486,599616073971245214,-205
1711636920493,599616073978912408,-295
1711636920501,599616073986579602,-282
1711636920509,599616073994246796,-198
1711636920516,599616074001913990,-151
1711636920524,599616074009581184,-124
1711636920532,599616074017248378,-97
1711636920539,599616074024915616,-108
1711636920547,599616074032582810,-142
1711636920555,599616074040250004,-153
1711636920561,599616074047917198,-124
1711636920569,599616074055584392,-83
1711636920577,599616074063251586,-79
1711636920585,599616074070918780,-144
1711636920593,599616074078585974,-228
1711636920601,599616074086253168,-214
1711636920608,599616074093920362,-140
1711636920616,599616074101587556,-108
1711636920624,599616074109254750,-97
1711636920631,599616074116921944,-74
1711636920639,599616074124589138,-58
1711636920647,599616074132256332,-29
1711636920654,599616074139923526,51
1711636920662,599616074147590720,268
1711636920670,599616074155257914,596
1711636920677,599616074162925108,724
1711636920685,599616074170592302,345
1711636920693,599616074178259496,-270
1711636920700,599616074185926690,-435
1711636920708,599616074193593884,-189
1711636920716,599616074201261078,-126
1711636920723,599616074208928272,-176
1711636920731,599616074216595466,-121
1711636920739,599616074224262660,-115
1711636920745,599616074231929854,-115
1711636920753,599616074239597048,-45
1711636920761,599616074247264242,-36
1711636920769,599616074254931436,-90
1711636920777,599616074262598630,-94
1711636920785,599616074270265824,-121
1711636920792,599616074277933018,-207
1711636920800,599616074285600212,-257
1711636920808,599616074293267406,-257
1711636920815,599616074300934600,-246
1711636920823,599616074308601794,-212
1711636920831,599616074316268988,-200
1711636920838,599616074323936182,-205
1711636920846,599616074331603376,-164
1711636920854,599616074339270570,-119
1711636920861,599616074346937764,-88
1711636920869,599616074354604958,-54
1711636920877,599616074362272152,-88
1711636920884,599616074369939346,-194
1711636920892,599616074377606540,-234
1711636920900,599616074385273734,-241
1711636920907,599616074392940928,-365
1711636920915,599616074400608122,-490
1711636920923,599616074408275316,-499
1711636920929,599616074415942510,-521
1711636920937,599616074423609704,-566
1711636920945,599616074431276898,-517
1711636920953,599616074438944092,-433
1711636920961,599616074446611286,-372
1711636920969,599616074454278480,-313
1711636920976,599616074461945674,-264
1711636920984,599616074469612868,-241
1711636920992,599616074477280062,-223
1711636920999,599616074484947256,-173
1711636921007,599616074492614450,-119
1711636921015,599616074500281644,-94
1711636921022,599616074507948838,-119
1711636921030,599616074515616032,-205
1711636921038,599616074523283226,-275
1711636921045,599616074530950420,-286
1711636921053,599616074538617614,-264
1711636921061,599616074546284808,-198
1711636921068,599616074553952002,-142
1711636921076,599616074561619196,-133
1711636921084,599616074569286390,-128
1711636921091,599616074576953584,-79
1711636921099,599616074584615782,-18
1711636921107,599616074592283046,11
1711636921113,599616074599950310,45
1711636921121,599616074607617574,79
1711636921129,599616074615284838,63
1711636921137,599616074622952102,56
1711636921145,599616074630619366,110
1711636921153,599616074638286630,173
1711636921160,599616074645953894,210
1711636921168,599616074653621158,239
1711636921176,599616074661288422,334
1711636921183,599616074668955686,532
1711636921191,599616074676622950,621
1711636921199,599616074684290214,329
1711636921207,599616074691957478,-155
1711636921214,599616074699624742,-302
1711636921222,599616074707292006,-162
1711636921230,599616074714959270,-178
1711636921237,599616074722626534,-214
1711636921245,599616074730293798,-112
1711636921253,599616074737961062,-42
1711636921260,599616074745628326,-58
1711636921268,599616074753295590,-151
1711636921276,599616074760962854,-277
1711636921283,599616074768630118,-322
1711636921291,599616074776297382,-354
1711636921299,599616074783964646,-388
1711636921305,599616074791631910,-352
1711636921313,599616074799299174,-338
1711636921321,599616074806966438,-354
1711636921329,599616074814633702,-309
1711636921337,599616074822300966,-225
1711636921345,599616074829968230,-153
1711636921352,599616074837635494,-99
1711636921360,599616074845302758,-92
1711636921368,599616074852970022,-169
1711636921375,599616074860637286,-225
1711636921383,599616074868304550,-173
1711636921391,599616074875971814,-108
1711636921398,599616074883639078,-103
1711636921406,599616074891306342,-158
1711636921414,599616074898973606,-293
1711636921421,599616074906640870,-379
1711636921429,599616074914308134,-329
1711636921437,599616074921975398,-270
1711636921444,599616074929642662,-250
1711636921452,599616074937309926,-221
1711636921460,599616074944977190,-180
1711636921467,599616074952644454,-149
1711636921475,599616074960311718,-108
1711636921483,599616074967978982,-54
1711636921489,599616074975646246,-20
1711636921497,599616074983313510,-6
1711636921505,599616074990980774,13
1711636921513,599616074998648038,22
1711636921521,599616075006315302,29
1711636921529,599616075013982566,58
1711636921536,599616075021649830,29
1711636921544,599616075029317094,-63
1711636921552,599616075036984358,-101
1711636921559,599616075044651622,-128
1711636921567,599616075052318886,-221
1711636921575,599616075059986150,-230
1711636921582,599616075067653414,-137
1711636921590,599616075075320678,-106
1711636921598,599616075082987942,-90
1711636921605,599616075090655206,-29
1711636921613,599616075098322470,-11
1711636921621,599616075105989734,-18
1711636921628,599616075113656998,24
1711636921636,599616075121324262,65
1711636921644,599616075128991526,92
1711636921651,599616075136658790,144
1711636921659,599616075144336156,176
1711636921667,599616075152003280,176
1711636921673,599616075159670404,221
1711636921681,599616075167337528,390
1711636921689,599616075175004652,679
1711636921697,599616075182671776,867
1711636921705,599616075190338900,648
1711636921713,599616075198006024,49
1711636921720,599616075205673148,-325
1711636921728,599616075213340272,-171
1711636921736,599616075221007396,-29
1711636921743,599616075228674520,-74
1711636921751,599616075236341644,-65
1711636921759,599616075244008768,-103
1711636921766,599616075251675892,-200
1711636921774,599616075259343016,-196
1711636921782,599616075267010140,-212
1711636921789,599616075274677264,-291
1711636921797,599616075282344388,-295
1711636921805,599616075290011512,-300
1711636921812,599616075297678636,-359
1711636921820,599616075305345760,-347
1711636921828,599616075313012884,-277
1711636921835,599616075320680008,-230
1711636921843,599616075328347132,-185
1711636921851,599616075336014256,-130
1711636921857,599616075343681380,-108
1711636921865,599616075351348504,-94
1711636921873,599616075359015628,-47
1711636921881,599616075366682752,0
1711636921889,599616075374349876,31
1711636921897,599616075382017000,24
1711636921904,599616075389684124,-106
1711636921912,599616075397351248,-318
1711636921920,599616075405018372,-424
1711636921927,599616075412685496,-390
1711636921935,599616075420352620,-361
1711636921943,599616075428019744,-350
1711636921950,599616075435686868,-336
1711636921958,599616075443353992,-345
1711636921966,599616075451021116,-320
1711636921973,599616075458688240,-241
1711636921981,599616075466355364,-176
1711636921989,599616075474022488,-124
1711636921996,599616075481689612,-94
1711636922004,599616075489356736,-117
1711636922012,599616075497023860,-126
1711636922019,599616075504690984,-83
1711636922027,599616075512358108,-81
1711636922035,599616075520025232,-126
1711636922041,599616075527692356,-126
1711636922049,599616075535359480,-121
1711636922057,599616075543026604,-130
1711636922065,599616075550693728,-81
1711636922073,599616075558360852,-20
1711636922081,599616075566027976,2
1711636922088,599616075573695100,22
1711636922096,599616075581362224,-22
1711636922104,599616075589029348,-124
1711636922111,599616075596696472,-108
1711636922119,599616075604363596,-22
1711636922127,599616075612030720,6
1711636922134,599616075619697844,33
1711636922142,599616075627364968,58
1711636922150,599616075635032092,42
1711636922157,599616075642699216,51
1711636922165,599616075650366340,103
1711636922173,599616075658033464,155
1711636922180,599616075665700588,205
1711636922188,599616075673367712,331
1711636922196,599616075681034836,584
1711636922203,599616075688701960,817
1711636922211,599616075696369084,756
1711636922219,599616075704031236,284
1711636922225,599616075711698430,-151
1711636922233,599616075719365624,-67
1711636922241,599616075727032818,101
1711636922249,599616075734700012,-6
1711636922257,599616075742367206,-51
1711636922265,599616075750034400,22
1711636922272,599616075757701594,-18
1711636922280,599616075765368788,-117
1711636922288,599616075773035982,-169
1711636922295,599616075780703176,-304
1711636922303,599616075788370370,-462
1711636922311,599616075796037564,-433
1711636922318,599616075803704758,-370
1711636922326,599616075811371952,-413
1711636922334,599616075819039146,-426
1711636922341,599616075826706340,-406
1711636922349,599616075834373534,-390
1711636922357,599616075842040728,-327
1711636922364,599616075849707922,-277
1711636922372,599616075857375116,-264
1711636922380,599616075865042310,-219
1711636922387,599616075872709504,-162
1711636922395,599616075880376698,-137
1711636922403,599616075888043892,-112
1711636922409,599616075895711086,-137
1711636922417,599616075903378280,-277
1711636922425,599616075911045474,-381
1711636922433,599616075918712668,-404
1711636922441,599616075926379862,-505
1711636922449,599616075934047056,-591
1711636922456,599616075941714250,-535
1711636922464,599616075949381444,-474
1711636922472,599616075957048638,-447
1711636922479,599616075964715832,-372
1711636922487,599616075972383026,-318
1711636922495,599616075980050220,-304
1711636922502,599616075987717414,-268
1711636922510,599616075995384608,-230
1711636922518,599616076003051802,-252
1711636922525,599616076010718996,-289
1711636922533,599616076018386190,-273
1711636922541,599616076026053384,-228
1711636922548,599616076033720578,-198
1711636922556,599616076041387772,-180
1711636922564,599616076049054966,-142
1711636922571,599616076056722160,-81
1711636922579,599616076064389354,-24
1711636922587,599616076072056548,13
1711636922593,599616076079723742,31
1711636922601,599616076087390936,40
1711636922609,599616076095058130,67
1711636922617,599616076102725324,92
1711636922625,599616076110392518,67
1711636922633,599616076118059712,-6
1711636922640,599616076125726906,-92
1711636922648,599616076133394100,-112
1711636922656,599616076141061294,-72
1711636922663,599616076148728488,-29
1711636922671,599616076156395682,18
1711636922679,599616076164062876,38
1711636922686,599616076171730070,22
1711636922694,599616076179397264,146
1711636922702,599616076187064458,447
1711636922709,599616076194731652,621
1711636922717,599616076202398846,374
1711636922725,599616076210066040,-103
1711636922732,599616076217733234,-221
1711636922740,599616076225400428,0
1711636922748,599616076233067622,18
1711636922755,599616076240734816,-97
1711636922763,599616076248402010,-88
1711636922771,599616076256069204,-110
1711636922777,599616076263746450,-207
1711636922785,599616076271413505,-243
1711636922793,599616076279080560,-214
1711636922801,599616076286747615,-164
1711636922809,599616076294414670,-108
1711636922817,599616076302081725,-49
1711636922824,599616076309748780,-38
1711636922832,599616076317415835,-200
1711636922840,599616076325082890,-395
1711636922847,599616076332749945,-352
1711636922855,599616076340417000,-243
1711636922863,599616076348084055,-266
1711636922870,599616076355751110,-270
1711636922878,599616076363418165,-221
1711636922886,599616076371085220,-210
1711636922893,599616076378752275,-194
1711636922901,599616076386419330,-142
1711636922909,599616076394086385,-115
1711636922916,599616076401753440,-212
1711636922924,599616076409420495,-365
1711636922932,599616076417087550,-392
1711636922939,599616076424754605,-343
1711636922947,599616076432421660,-334
1711636922955,599616076440088715,-304
1711636922961,599616076447755770,-261
1711636922969,599616076455422825,-298
1711636922977,599616076463089880,-392
1711636922985,599616076470756935,-440
1711636922993,599616076478423990,-377
1711636923001,599616076486091045,-270
1711636923008,599616076493758100,-255
1711636923016,599616076501425155,-334
1711636923024,599616076509092210,-379
1711636923031,599616076516759265,-338
1711636923039,599616076524426320,-270
1711636923047,599616076532093375,-207
1711636923054,599616076539760430,-164
1711636923062,599616076547427485,-140
1711636923070,599616076555094540,-108
1711636923077,599616076562761595,-70
1711636923085,599616076570428650,-24
1711636923093,599616076578095705,36
1711636923100,599616076585762760,90
1711636923108,599616076593429815,110
1711636923116,599616076601096870,112
1711636923123,599616076608763925,106
1711636923131,599616076616430980,101
1711636923139,599616076624098035,130
1711636923145,599616076631765090,144
1711636923153,599616076639432145,121
1711636923161,599616076647099200,117
1711636923169,599616076654766255,83
1711636923177,599616076662433310,4
1711636923185,599616076670100365,92
1711636923192,599616076677767420,424
1711636923200,599616076685434475,729
1711636923208,599616076693101530,720
1711636923215,599616076700768585,304
1711636923223,599616076708435640,-130
1711636923231,599616076716102695,-45
1711636923238,599616076723769750,205
1711636923246,599616076731436805,162
1711636923254,599616076739103860,106
1711636923261,599616076746770915,124
1711636923269,599616076754437970,40
1711636923277,599616076762105025,-36
1711636923284,599616076769772080,-27
1711636923292,599616076777439135,-38
1711636923300,599616076785106190,-45
1711636923307,599616076792773245,6
1711636923315,599616076800440300,31
1711636923323,599616076808107355,-2
1711636923329,599616076815774410,-2
1711636923337,599616076823421466,40
1711636923345,599616076831088799,81
1711636923353,599616076838756132,99
1711636923361,599616076846423465,47
1711636923369,599616076854090798,-65
1711636923376,599616076861758131,-126
1711636923384,599616076869425464,-153
1711636923392,599616076877092797,-185
1711636923399,599616076884760130,-164
1711636923407,599616076892427463,-133
1711636923415,599616076900094796,-205
1711636923422,599616076907762129,-363
1711636923430,599616076915429462,-449
1711636923438,599616076923096795,-413
1711636923445,599616076930764128,-361
1711636923453,599616076938431461,-359
1711636923461,599616076946098794,-424
1711636923468,599616076953766127,-528
1711636923476,599616076961433460,-546
1711636923484,599616076969100793,-467
1711636923491,599616076976768126,-411
1711636923499,599616076984435459,-401
1711636923507,599616076992102792,-467
1711636923513,599616076999770125,-609
1711636923521,599616077007437458,-661
1711636923529,599616077015104791,-582
1711636923537,599616077022772124,-514
1711636923545,599616077030439457,-467
1711636923553,599616077038106790,-392
1711636923560,599616077045774123,-350
1711636923568,599616077053441456,-356
1711636923576,599616077061108789,-309
1711636923583,599616077068776122,-219
1711636923591,599616077076443455,-153
1711636923599,599616077084110788,-101
1711636923606,599616077091778121,-83
1711636923614,599616077099445454,-112
1711636923622,599616077107112787,-94
1711636923629,599616077114780120,-24
1711636923637,599616077122447453,24
1711636923645,599616077130114786,76
1711636923652,599616077137782119,117
1711636923660,599616077145449452,97
1711636923668,599616077153116785,85
1711636923675,599616077160784118,178
1711636923683,599616077168451451,413
1711636923691,599616077176118784,733
1711636923697,599616077183786117,862
1711636923705,599616077191453450,469
1711636923713,599616077199120783,-160
1711636923721,599616077206788116,-237
1711636923729,599616077214455449,72
1711636923737,599616077222122782,101
1711636923744,599616077229790115,22
1711636923752,599616077237457448,51
1711636923760,599616077245124781,29
1711636923767,599616077252792114,15
1711636923775,599616077260459447,94
1711636923783,599616077268126780,158
1711636923790,599616077275794113,167
1711636923798,599616077283461446,133
1711636923806,599616077291128779,60
1711636923813,599616077298796112,40
1711636923821,599616077306463445,85
1711636923829,599616077314130778,128
1711636923836,599616077321798111,149
1711636923844,599616077329465444,158
1711636923852,599616077337132777,146
1711636923859,599616077344800110,137
1711636923867,599616077352467443,158
1711636923875,599616077360134776,203
1711636923881,599616077367802109,196
1711636923889,599616077375469442,119
1711636923897,599616077383146854,11
1711636923905,599616077390814048,-135
1711636923913,599616077398481242,-264
1711636923921,599616077406148436,-354
1711636923928,599616077413815630,-478
1711636923936,599616077421482824,-546
1711636923944,599616077429150018,-539
1711636923951,599616077436817212,-605
1711636923959,599616077444484406,-652
1711636923967,599616077452151600,-557
1711636923974,599616077459818794,-474
1711636923982,599616077467485988,-462
1711636923990,599616077475153182,-442
1711636923997,599616077482820376,-444
1711636924005,599616077490487570,-478
1711636924013,599616077498154764,-440
1711636924020,599616077505821958,-363
1711636924028,599616077513489152,-350
1711636924036,599616077521156346,-356
1711636924043,599616077528823540,-379
1711636924051,599616077536490734,-481
1711636924059,599616077544157928,-523
1711636924065,599616077551825122,-444
1711636924073,599616077559492316,-401
1711636924081,599616077567159510,-368
1711636924089,599616077574826704,-289
1711636924097,599616077582493898,-268
1711636924105,599616077590161092,-273
1711636924112,599616077597828286,-223
1711636924120,599616077605495480,-185
1711636924128,599616077613162674,-162
1711636924135,599616077620829868,-103
1711636924143,599616077628497062,-60
1711636924151,599616077636164256,-72
1711636924158,599616077643831450,-22
1711636924166,599616077651498644,214
1711636924174,599616077659165838,566
1711636924181,599616077666833032,758
1711636924189,599616077674500226,526
1711636924197,599616077682167420,11
1711636924204,599616077689834614,-178
1711636924212,599616077697501808,9
1711636924220,599616077705169002,45
1711636924227,599616077712836196,-4
1711636924235,599616077720503390,74
1711636924243,599616077728170584,88
1711636924249,599616077735837778,6
1711636924257,599616077743504972,-9
1711636924265,599616077751172166,38
1711636924273,599616077758839360,83
1711636924281,599616077766506554,130
1711636924289,599616077774173748,133
1711636924296,599616077781840942,49
1711636924304,599616077789508136,0
1711636924312,599616077797175330,38
1711636924319,599616077804842524,56
1711636924327,599616077812509718,49
1711636924335,599616077820176912,83
1711636924342,599616077827844106,99
1711636924350,599616077835511300,76
1711636924358,599616077843178494,90
1711636924365,599616077850845688,140
1711636924373,599616077858512882,169
1711636924381,599616077866180076,176
1711636924388,599616077873847270,149
1711636924396,599616077881514464,70
1711636924404,599616077889181658,-22
1711636924411,599616077896848852,-85
1711636924419,599616077904516046,-164
1711636924427,599616077912183240,-304
1711636924433,599616077919850434,-440
1711636924441,599616077927517628,-517
1711636924449,599616077935184822,-532
1711636924457,599616077942852060,-487
1711636924465,599616077950519254,-431
1711636924473,599616077958186448,-383
1711636924480,599616077965853642,-361
1711636924488,599616077973520836,-397
1711636924496,599616077981188030,-440
1711636924503,599616077988855224,-411
1711636924511,599616077996522418,-350
1711636924519,599616078004189612,-309
1711636924526,599616078011856806,-286
1711636924534,599616078019524000,-331
1711636924542,599616078027191194,-413
1711636924549,599616078034858388,-395
1711636924557,599616078042525582,-316
1711636924565,599616078050192776,-280
1711636924572,599616078057859970,-280
1711636924580,599616078065527164,-343
1711636924588,599616078073194358,-456
1711636924595,599616078080861552,-465
1711636924603,599616078088528746,-372
1711636924611,599616078096195940,-304
1711636924617,599616078103863134,-268
1711636924625,599616078111530328,-239
1711636924633,599616078119197522,-237
1711636924641,599616078126864716,-196
1711636924649,599616078134531910,9
1711636924657,599616078142199104,361
1711636924664,599616078149866298,596
1711636924672,599616078157533492,438
1711636924680,599616078165200686,-65
1711636924687,599616078172867880,-325
1711636924695,599616078180535074,-81
1711636924703,599616078188202268,90
1711636924710,599616078195869462,22
1711636924718,599616078203536656,51
1711636924726,599616078211203850,126
1711636924733,599616078218871044,115
1711636924741,599616078226538238,65
1711636924749,599616078234205432,49
1711636924756,599616078241872626,79
1711636924764,599616078249539820,117
1711636924772,599616078257207014,126
1711636924779,599616078264874208,83
1711636924787,599616078272541402,31
1711636924795,599616078280208596,70
1711636924801,599616078287875790,140
1711636924809,599616078295542984,160
1711636924817,599616078303210178,189
1711636924825,599616078310877372,239
1711636924833,599616078318544566,225
1711636924841,599616078326211760,178
1711636924848,599616078333878954,173
1711636924856,599616078341546148,178
1711636924864,599616078349213342,160
1711636924871,599616078356880536,146
1711636924879,599616078364547730,112
1711636924887,599616078372214924,60
1711636924894,599616078379882118,33
1711636924902,599616078387549312,11
1711636924910,599616078395216506,-11
1711636924917,599616078402883700,-58
1711636924925,599616078410550894,-203
1711636924933,599616078418218088,-341
1711636924940,599616078425885282,-372
1711636924948,599616078433552476,-386
1711636924956,599616078441219670,-395
1711636924963,599616078448886864,-341
1711636924971,599616078456554058,-286
1711636924979,599616078464221252,-289
1711636924985,599616078471888446,-336
1711636924993,599616078479555640,-363
1711636925001,599616078487222834,-325
1711636925009,599616078494890028,-277
1711636925017,599616078502557268,-270
1711636925025,599616078510224462,-316
1711636925032,599616078517891656,-368
1711636925040,599616078525558850,-356
1711636925048,599616078533226044,-289
1711636925055,599616078540893238,-228
1711636925063,599616078548560432,-219
1711636925071,599616078556227626,-282
1711636925078,599616078563894820,-377
1711636925086,599616078571562014,-388
1711636925094,599616078579229208,-331
1711636925101,599616078586896402,-304
1711636925109,599616078594563596,-275
1711636925117,599616078602230790,-248
1711636925124,599616078609897984,-273
1711636925132,599616078617565178,-115
1711636925140,599616078625232372,304
1711636925147,599616078632899566,557
1711636925155,599616078640566760,313
1711636925163,599616078648233954,-189
1711636925169,599616078655901148,-368
1711636925177,599616078663568342,-187
1711636925185,599616078671235536,-119
1711636925193,599616078678902730,-140
1711636925201,599616078686569924,-42
1711636925209,599616078694237118,42
1711636925216,599616078701904312,24
1711636925224,599616078709571506,-20
1711636925232,599616078717238700,-49
1711636925239,599616078724905894,-58
1711636925247,599616078732573088,-15
1711636925255,599616078740240282,54
1711636925262,599616078747907476,79
1711636925270,599616078755574670,58
1711636925278,599616078763241864,54
1711636925285,599616078770909058,88
1711636925293,599616078778576252,146
1711636925301,599616078786243446,207
1711636925308,599616078793910640,234
1711636925316,599616078801577834,173
1711636925324,599616078809245028,81
1711636925331,599616078816912222,88
1711636925339,599616078824579416,110
1711636925347,599616078832246610,51
1711636925353,599616078839913804,0
1711636925361,599616078847580998,-33
1711636925369,599616078855248192,-99
1711636925377,599616078862915386,-117
1711636925385,599616078870582580,-72
1711636925393,599616078878249774,-40
1711636925400,599616078885916968,-27
1711636925408,599616078893584162,-22
1711636925416,599616078901251356,-33
1711636925423,599616078908918550,-72
1711636925431,599616078916585744,-185
1711636925439,599616078924252938,-300
1711636925446,599616078931920132,-336
1711636925454,599616078939587326,-401
1711636925462,599616078947254520,-521
1711636925469,599616078954921714,-587
1711636925477,599616078962588908,-607
1711636925485,599616078970256102,-616
1711636925492,599616078977923296,-593
1711636925500,599616078985590490,-553
1711636925508,599616078993257684,-521
1711636925515,599616079000924878,-492
1711636925523,599616079008592072,-440
1711636925531,599616079016259266,-365
1711636925537,599616079023926460,-329
1711636925545,599616079031593654,-345
1711636925553,599616079039260848,-336
1711636925561,599616079046928042,-302
1711636925569,599616079054595236,-289
1711636925577,599616079062277522,-257
1711636925584,599616079069944507,-191
1711636925592,599616079077611492,-155
1711636925600,599616079085278477,-153
1711636925607,599616079092945462,-92
1711636925615,599616079100612447,140
1711636925623,599616079108279432,499
1711636925630,599616079115946417,684
1711636925638,599616079123613402,406
1711636925646,599616079131280387,-128
1711636925653,599616079138947372,-363
1711636925661,599616079146614357,-302
1711636925669,599616079154281342,-322
1711636925676,599616079161948327,-352
1711636925684,599616079169615312,-282
1711636925692,599616079177282297,-225
1711636925699,599616079184949282,-189
1711636925707,599616079192616267,-158
1711636925715,599616079200283252,-144
1711636925721,599616079207950237,-164
1711636925729,599616079215617222,-203
1711636925737,599616079223284207,-182
1711636925745,599616079230951192,-108
1711636925753,599616079238618177,-72
1711636925761,599616079246285162,-49
1711636925768,599616079253952147,6
1711636925776,599616079261619132,54
1711636925784,599616079269286117,88
1711636925791,599616079276953102,144
1711636925799,599616079284620087,198
1711636925807,599616079292287072,207
1711636925814,599616079299954057,189
1711636925822,599616079307621042,176
1711636925830,599616079315288027,185
1711636925837,599616079322955012,205
1711636925845,599616079330621997,169
1711636925853,599616079338288982,11
1711636925861,599616079345955967,-146
1711636925868,599616079353622952,-162
1711636925876,599616079361289937,-124
1711636925884,599616079368956922,-97
1711636925891,599616079376623907,-47
1711636925899,599616079384290892,-22
1711636925907,599616079391957877,-42
1711636925913,599616079399624862,-40
1711636925921,599616079407291847,0
1711636925929,599616079414958832,4
1711636925937,599616079422625817,-97
1711636925945,599616079430292802,-237
1711636925953,599616079437959787,-307
1711636925960,599616079445626772,-361
1711636925968,599616079453293757,-438
1711636925976,599616079460960742,-471
1711636925983,599616079468627727,-456
1711636925991,599616079476294712,-462
1711636925999,599616079483961697,-537
1711636926006,599616079491628682,-593
1711636926014,599616079499295667,-541
1711636926022,599616079506962652,-451
1711636926029,599616079514629637,-395
1711636926037,599616079522296622,-365
1711636926045,599616079529963607,-361
1711636926052,599616079537630592,-372
1711636926060,599616079545297577,-341
1711636926068,599616079552964562,-280
1711636926075,599616079560631547,-225
1711636926083,599616079568298532,-169
1711636926091,599616079575965517,-130
1711636926097,599616079583632502,-97
1711636926105,599616079591299487,101
1711636926113,599616079598966472,487
1711636926121,599616079606633457,742
1711636926129,599616079614300442,575
1711636926136,599616079621947380,74
1711636926144,599616079629614644,-196
1711636926152,599616079637281908,-4
1711636926159,599616079644949172,121
1711636926167,599616079652616436,40
1711636926175,599616079660283700,85
1711636926182,599616079667950964,185
1711636926190,599616079675618228,92
1711636926198,599616079683285492,-101
1711636926205,599616079690952756,-158
1711636926213,599616079698620020,-124
1711636926221,599616079706287284,-140
1711636926228,599616079713954548,-133
1711636926236,599616079721621812,-92
1711636926244,599616079729289076,-88
1711636926252,599616079736956340,-51
1711636926259,599616079744623604,45
1711636926267,599616079752290868,137
1711636926275,599616079759958132,182
1711636926281,599616079767625396,207
1711636926289,599616079775292660,241
1711636926297,599616079782959924,277
1711636926305,599616079790627188,298
1711636926313,599616079798294452,304
1711636926321,599616079805961716,313
1711636926328,599616079813628980,331
1711636926336,599616079821296244,313
1711636926344,599616079828963508,223
1711636926351,599616079836630772,108
1711636926359,599616079844298036,51
1711636926367,599616079851965300,42
1711636926374,599616079859632564,22
1711636926382,599616079867299828,-13
1711636926390,599616079874967092,-99
1711636926397,599616079882634356,-189
1711636926405,599616079890301620,-160
1711636926413,599616079897968884,-101
1711636926420,599616079905636148,-108
1711636926428,599616079913303412,-103
1711636926436,599616079920970676,-121
1711636926443,599616079928637940,-241
1711636926451,599616079936305204,-352
1711636926459,599616079943972468,-426
1711636926465,599616079951639732,-519
1711636926473,599616079959306996,-530
1711636926481,599616079966974260,-465
1711636926489,599616079974641524,-453
1711636926497,599616079982308788,-442
1711636926505,599616079989976052,-388
1711636926512,599616079997643316,-361
1711636926520,599616080005310580,-377
1711636926528,599616080012977844,-408
1711636926535,599616080020645108,-476
1711636926543,599616080028312372,-526
1711636926551,599616080035979636,-508
1711636926558,599616080043646900,-478
1711636926566,599616080051314164,-440
1711636926574,599616080058981428,-359
1711636926581,599616080066648692,-273
1711636926589,599616080074315956,-115
1711636926597,599616080081983220,198
1711636926604,599616080089650484,458
1711636926612,599616080097317748,345
1711636926620,599616080104985012,-112
1711636926627,599616080112652276,-383
1711636926635,599616080120319540,-210
1711636926643,599616080127986804,-76
1711636926649,599616080135654068,-140
1711636926657,599616080143321332,-108
1711636926665,599616080150988596,-22
1711636926673,599616080158655860,-6
1711636926681,599616080166323124,9
1711636926689,599616080173990388,42
1711636926696,599616080181682800,40
1711636926704,599616080189349715,-11
1711636926712,599616080197016630,-74
1711636926719,599616080204683545,-72
1711636926727,599616080212350460,-70
1711636926735,599616080220017375,-151
1711636926742,599616080227684290,-173
1711636926750,599616080235351205,-92
1711636926758,599616080243018120,-45
1711636926765,599616080250685035,11
1711636926773,599616080258351950,60
1711636926781,599616080266018865,-83
1711636926788,599616080273685780,-246
1711636926796,599616080281352695,-164
1711636926804,599616080289019610,-60
1711636926811,599616080296686525,-90
1711636926819,599616080304353440,-92
1711636926827,599616080312020355,-99
1711636926833,599616080319687270,-162
1711636926841,599616080327354185,-180
1711636926849,599616080335021100,-169
1711636926857,599616080342688015,-169
1711636926865,599616080350354930,-164
1711636926873,599616080358021845,-194
1711636926880,599616080365688760,-212
1711636926888,599616080373355675,-189
1711636926896,599616080381022590,-185
1711636926903,599616080388689505,-146
1711636926911,599616080396356420,-74
1711636926919,599616080404023335,-79
1711636926926,599616080411690250,-164
1711636926934,599616080419357165,-264
1711636926942,599616080427024080,-311
1711636926949,599616080434690995,-370
1711636926957,599616080442357910,-476
1711636926965,599616080450024825,-526
1711636926972,599616080457691740,-535
1711636926980,599616080465358655,-526
1711636926988,599616080473025570,-467
1711636926995,599616080480692485,-417
1711636927003,599616080488359400,-399
1711636927011,599616080496026315,-379
1711636927017,599616080503693230,-365
1711636927025,599616080511360145,-345
1711636927033,599616080519027060,-325
1711636927041,599616080526693975,-266
1711636927049,599616080534360890,-149
1711636927057,599616080542027805,-133
1711636927064,599616080549694720,-216
1711636927072,599616080557361635,-162
1711636927080,599616080565028550,99
1711636927087,599616080572695465,347
1711636927095,599616080580362380,320
1711636927103,599616080588029295,-60
1711636927110,599616080595696210,-401
1711636927118,599616080603363125,-300
1711636927126,599616080611030040,-115
1711636927133,599616080618696955,-128
1711636927141,599616080626363870,-74
1711636927149,599616080634030785,27
1711636927156,599616080641697700,-6
1711636927164,599616080649364615,-42
1711636927172,599616080657031530,4
1711636927179,599616080664698445,58
1711636927187,599616080672365360,101
1711636927195,599616080680032275,117
1711636927201,599616080687699190,94
1711636927209,599616080695366105,63
1711636927217,599616080703033020,60
1711636927225,599616080710699935,76
1711636927233,599616080718366850,108
1711636927241,599616080726033765,153
1711636927248,599616080733700680,158
1711636927256,599616080741347574,176
1711636927264,599616080749014768,216
1711636927271,599616080756681962,167
1711636927279,599616080764349156,126
1711636927287,599616080772016350,137
1711636927294,599616080779683544,101
1711636927302,599616080787350738,106
1711636927310,599616080795017932,130
1711636927317,599616080802685126,24
1711636927325,599616080810352320,-101
1711636927333,599616080818019514,-99
1711636927340,599616080825686708,-97
1711636927348,599616080833353902,-155
1711636927356,599616080841021096,-135
1711636927363,599616080848688290,-67
1711636927371,599616080856355484,-85
1711636927379,599616080864022678,-133
1711636927385,599616080871689872,-101
1711636927393,599616080879357066,-38
1711636927401,599616080887024260,9
1711636927409,599616080894691454,24
1711636927417,599616080902358648,-6
1711636927425,599616080910025842,-70
1711636927432,599616080917693036,-142
1711636927440,599616080925360230,-149
1711636927448,599616080933027424,-191
1711636927455,599616080940694618,-431
1711636927463,599616080948361812,-584
1711636927471,599616080956029006,-523
1711636927478,599616080963696200,-517
1711636927486,599616080971363394,-544
1711636927494,599616080979030588,-469
1711636927501,599616080986697782,-433
1711636927509,599616080994364976,-438
1711636927517,599616081002032170,-399
1711636927524,599616081009699364,-374
1711636927532,599616081017366558,-361
1711636927540,599616081025033752,-316
1711636927547,599616081032700946,-273
1711636927555,599616081040368140,-182
1711636927563,599616081048035334,72
1711636927569,599616081055702528,395
1711636927577,599616081063369722,537
1711636927585,599616081071036916,275
1711636927593,599616081078704110,-246
1711636927601,599616081086371304,-415
1711636927609,599616081094038498,-248
1711636927616,599616081101705692,-302
1711636927624,599616081109372886,-390
1711636927632,599616081117040080,-255
1711636927639,599616081124707274,-164
1711636927647,599616081132374468,-160
1711636927655,599616081140041662,-133
1711636927662,599616081147708856,-153
1711636927670,599616081155376050,-137
1711636927678,599616081163043244,-24
1711636927685,599616081170710438,15
1711636927693,599616081178377632,-40
1711636927701,599616081186044826,-60
1711636927708,599616081193712020,-56
1711636927716,599616081201379214,-58
1711636927724,599616081209046408,11
1711636927731,599616081216713602,117
1711636927739,599616081224380796,162
1711636927747,599616081232047990,196
1711636927753,599616081239715184,232
1711636927761,599616081247382378,237
1711636927769,599616081255049572,223
1711636927777,599616081262716766,210
1711636927785,599616081270383960,216
1711636927793,599616081278051154,219
1711636927800,599616081285718348,121
1711636927808,599616081293385542,-27
1711636927816,599616081301052780,-47
1711636927823,599616081308719974,-13
1711636927831,599616081316387168,-60
1711636927839,599616081324054362,-65
1711636927846,599616081331721556,-67
1711636927854,599616081339388750,-200
1711636927862,599616081347055944,-289
1711636927869,599616081354723138,-225
1711636927877,599616081362390332,-171
1711636927885,599616081370057526,-167
1711636927892,599616081377724720,-140
1711636927900,599616081385391914,-124
1711636927908,599616081393059108,-160
1711636927915,599616081400726302,-171
1711636927923,599616081408393496,-173
1711636927931,599616081416060690,-243
1711636927937,599616081423727884,-347
1711636927945,599616081431395078,-433
1711636927953,599616081439062272,-517
1711636927961,599616081446729466,-555
1711636927969,599616081454396660,-521
1711636927977,599616081462063854,-485
1711636927984,599616081469731048,-508
1711636927992,599616081477398242,-551
1711636928000,599616081485065436,-580
1711636928007,599616081492732630,-575
1711636928015,599616081500399824,-530
1711636928023,599616081508067018,-487
1711636928030,599616081515734212,-431
1711636928038,599616081523401406,-350
1711636928046,599616081531068600,-228
1711636928053,599616081538735794,60
1711636928061,599616081546402988,397
1711636928069,599616081554070182,343
1711636928076,599616081561737376,-146
1711636928084,599616081569404570,-435
1711636928092,599616081577071764,-221
1711636928099,599616081584738958,-70
1711636928107,599616081592406152,-149
1711636928115,599616081600073346,-117
1711636928121,599616081607740540,-42
1711636928129,599616081615407734,-65
1711636928137,599616081623074928,-101
1711636928145,599616081630742122,-144
1711636928153,599616081638409316,-167
1711636928161,599616081646076510,-119
1711636928168,599616081653743704,-79
1711636928176,599616081661410898,-56
1711636928184,599616081669078092,-33
1711636928191,599616081676745286,-58
1711636928199,599616081684412480,-81
1711636928207,599616081692079674,-63
1711636928214,599616081699746868,-27
1711636928222,599616081707414062,42
1711636928230,599616081715081256,112
1711636928237,599616081722748450,142
1711636928245,599616081730415644,151
1711636928253,599616081738082838,158
1711636928260,599616081745750032,160
1711636928268,599616081753417226,169
1711636928276,599616081761084420,189
1711636928283,599616081768751614,185
1711636928291,599616081776418808,130
1711636928299,599616081784086002,74
1711636928305,599616081791753196,58
1711636928313,599616081799420390,24
1711636928321,599616081807087584,-42
1711636928329,599616081814754778,-45
1711636928337,599616081822421972,-33
1711636928345,599616081830089166,-117
1711636928352,599616081837756360,-182
1711636928360,599616081845423554,-158
1711636928368,599616081853090748,-128
1711636928375,599616081860757988,-88
1711636928383,599616081868425182,-22
1711636928391,599616081876092376,-40
1711636928398,599616081883759570,-140
1711636928406,599616081891426764,-167
1711636928414,599616081899093958,-142
1711636928421,599616081906761152,-178
1711636928429,599616081914428346,-275
1711636928437,599616081922095540,-431
1711636928444,599616081929762734,-517
1711636928452,599616081937429928,-458
1711636928460,599616081945097122,-481
1711636928467,599616081952764316,-618
1711636928475,599616081960431510,-641
1711636928483,599616081968098704,-643
1711636928489,599616081975765898,-749
1711636928497,599616081983433092,-711
1711636928505,599616081991100286,-530
1711636928513,599616081998767480,-465
1711636928521,599616082006434674,-487
1711636928529,599616082014101868,-442
1711636928536,599616082021769062,-273
1711636928544,599616082029436256,42
1711636928552,599616082037103450,381
1711636928559,599616082044770644,438
1711636928567,599616082052437838,40
1711636928575,599616082060105032,-383
1711636928582,599616082067772226,-343
1711636928590,599616082075439420,-160
1711636928598,599616082083106614,-160
1711636928605,599616082090773808,-155
1711636928613,599616082098441002,-58
1711636928621,599616082106108196,13
1711636928628,599616082113775390,-15
1711636928636,599616082121442584,-36
1711636928644,599616082129109778,24
1711636928651,599616082136776972,88
1711636928659,599616082144444166,106
1711636928667,599616082152111360,106
1711636928673,599616082159778554,81
1711636928681,599616082167445748,47
1711636928689,599616082175112942,72
1711636928697,599616082182780136,151
1711636928705,599616082190447330,232
1711636928713,599616082198114524,309
1711636928720,599616082205781718,327
1711636928728,599616082213448912,223
1711636928736,599616082221116106,99
1711636928743,599616082228783300,124
1711636928751,599616082236450494,194
1711636928759,599616082244117688,180
1711636928766,599616082251784882,162
1711636928774,599616082259452076,160
1711636928782,599616082267119270,108
1711636928789,599616082274786464,49
1711636928797,599616082282453658,13
1711636928805,599616082290120852,-20
1711636928812,599616082297788046,-27
1711636928820,599616082305455240,-13
1711636928828,599616082313122434,-29
1711636928835,599616082320789628,-60
1711636928843,599616082328456822,-36
1711636928851,599616082336124016,15
1711636928857,599616082343791210,11
1711636928865,599616082351458404,-2
1711636928873,599616082359125598,-49
1711636928881,599616082366792792,-187
1711636928889,599616082374459986,-239
1711636928897,599616082382127180,-191
1711636928904,599616082389794374,-252
1711636928912,599616082397461568,-334
1711636928920,599616082405128762,-280
1711636928927,599616082412795956,-246
1711636928935,599616082420463194,-309
1711636928943,599616082428130388,-300
1711636928950,599616082435797582,-241
1711636928958,599616082443464776,-228
1711636928966,599616082451131970,-277
1711636928973,599616082458799164,-404
1711636928981,599616082466466358,-449
1711636928989,599616082474133552,-379
1711636928996,599616082481800746,-341
1711636929004,599616082489467940,-352
1711636929012,599616082497135134,-352
1711636929019,599616082504802328,-408
1711636929027,599616082512469522,-440
1711636929035,599616082520136716,-189
1711636929041,599616082527803910,173
1711636929049,599616082535471104,241
1711636929057,599616082543138298,-128
1711636929065,599616082550805492,-598
1711636929073,599616082558472686,-575
1711636929081,599616082566139880,-280
1711636929088,599616082573807074,-261
1711636929096,599616082581474268,-286
1711636929104,599616082589141462,-167
1711636929111,599616082596808656,-99
1711636929119,599616082604475850,-124
1711636929127,599616082612143044,-140
1711636929134,599616082619810238,-106
1711636929142,599616082627477432,-38
1711636929150,599616082635144626,27
1711636929157,599616082642811820,81
1711636929165,599616082650479014,140
1711636929173,599616082658146208,121
1711636929180,599616082665813402,47
1711636929188,599616082673480596,42
1711636929196,599616082681147790,92
1711636929203,599616082688814984,162
1711636929211,599616082696482178,219
1711636929219,599616082704149372,137
1711636929225,599616082711816566,45
1711636929233,599616082719483760,99
1711636929241,599616082727150954,151
1711636929249,599616082734818148,144
1711636929257,599616082742485342,151
1711636929265,599616082750152536,70
1711636929272,599616082757819730,-112
1711636929280,599616082765486924,-176
1711636929288,599616082773154118,-128
1711636929295,599616082780821312,-142
1711636929303,599616082788488506,-144
1711636929311,599616082796155700,-97
1711636929318,599616082803822894,-103
1711636929326,599616082811490088,-112
1711636929334,599616082819157282,-63
1711636929341,599616082826824476,-4
1711636929349,599616082834491670,24
1711636929357,599616082842158864,-4
1711636929364,599616082849826058,-94
1711636929372,599616082857493252,-119
1711636929380,599616082865160446,-101
1711636929387,599616082872827640,-155
1711636929395,599616082880494834,-180
1711636929403,599616082888162028,-142
1711636929409,599616082895829222,-164
1711636929417,599616082903496416,-230
