value,timestamp
-0.0,1711005183000000
-0.0,1711005183015625
-0.0,1711005183031250
-0.0,1711005183046875
-0.0,1711005183062500
-0.0,1711005183078125
-0.0,1711005183093750
-0.0,1711005183109375
-0.0,1711005183125000
-0.0,1711005183140625
0.0,1711005183156250
0.01,1711005183171875
0.01,1711005183187500
-0.0,1711005183203125
-0.03,1711005183218750
-0.05,1711005183234375
-0.05,1711005183250000
0.0,1711005183265625
0.13,1711005183281250
0.36,1711005183296875
0.66,1711005183312500
1.01,1711005183328125
1.37,1711005183343750
1.72,1711005183359375
2.06,1711005183375000
2.4,1711005183390625
2.79,1711005183406250
3.24,1711005183421875
3.8,1711005183437500
4.42,1711005183453125
5.06,1711005183468750
5.66,1711005183484375
6.2,1711005183500000
6.68,1711005183515625
7.15,1711005183531250
7.68,1711005183546875
8.31,1711005183562500
9.14,1711005183578125
10.09,1711005183593750
11.04,1711005183609375
11.88,1711005183625000
12.56,1711005183640625
13.14,1711005183656250
13.76,1711005183671875
14.65,1711005183687500
15.96,1711005183703125
17.91,1711005183718750
20.32,1711005183734375
22.9,1711005183750000
25.38,1711005183765625
27.58,1711005183781250
29.57,1711005183796875
31.68,1711005183812500
34.32,1711005183828125
37.81,1711005183843750
42.54,1711005183859375
48.15,1711005183875000
54.1,1711005183890625
59.83,1711005183906250
64.97,1711005183921875
69.58,1711005183937500
74.14,1711005183953125
79.34,1711005183968750
85.71,1711005183984375
93.76,1711005184000000
103.0,1711005184015625
112.62,1711005184031250
121.73,1711005184046875
129.77,1711005184062500
136.75,1711005184078125
143.3,1711005184093750
150.75,1711005184109375
157.77,1711005184125000
166.64,1711005184140625
177.95,1711005184156250
191.79,1711005184171875
206.97,1711005184187500
220.57,1711005184203125
228.25,1711005184218750
225.36,1711005184234375
208.53,1711005184250000
176.87,1711005184265625
132.76,1711005184281250
80.05,1711005184296875
23.07,1711005184312500
-34.94,1711005184328125
-92.44,1711005184343750
-149.16,1711005184359375
-205.23,1711005184375000
-260.37,1711005184390625
-313.74,1711005184406250
-363.87,1711005184421875
-409.83,1711005184437500
-450.91,1711005184453125
-486.5,1711005184468750
-515.74,1711005184484375
-537.23,1711005184500000
-549.22,1711005184515625
-549.96,1711005184531250
-538.37,1711005184546875
-514.21,1711005184562500
-478.67,1711005184578125
-433.88,1711005184593750
-382.45,1711005184609375
-327.02,1711005184625000
-269.84,1711005184640625
-212.63,1711005184656250
-156.66,1711005184671875
-102.95,1711005184687500
-52.37,1711005184703125
-5.9,1711005184718750
35.58,1711005184734375
71.43,1711005184750000
101.35,1711005184765625
125.5,1711005184781250
144.38,1711005184796875
158.69,1711005184812500
169.15,1711005184828125
176.37,1711005184843750
180.75,1711005184859375
182.57,1711005184875000
182.07,1711005184890625
179.51,1711005184906250
175.23,1711005184921875
169.65,1711005184937500
163.18,1711005184953125
156.15,1711005184968750
148.81,1711005184984375
141.3,1711005185000000
133.69,1711005185015625
126.02,1711005185031250
118.33,1711005185046875
110.69,1711005185062500
103.16,1711005185078125
95.8,1711005185093750
88.68,1711005185109375
81.83,1711005185125000
75.25,1711005185140625
68.95,1711005185156250
62.95,1711005185171875
57.25,1711005185187500
51.86,1711005185203125
46.78,1711005185218750
42.03,1711005185234375
37.59,1711005185250000
33.45,1711005185265625
29.61,1711005185281250
26.07,1711005185296875
22.81,1711005185312500
19.83,1711005185328125
17.11,1711005185343750
14.67,1711005185359375
12.48,1711005185375000
10.54,1711005185390625
8.83,1711005185406250
7.35,1711005185421875
6.07,1711005185437500
4.97,1711005185453125
4.05,1711005185468750
3.27,1711005185484375
2.62,1711005185500000
2.09,1711005185515625
1.65,1711005185531250
1.3,1711005185546875
1.01,1711005185562500
0.79,1711005185578125
0.61,1711005185593750
0.47,1711005185609375
0.37,1711005185625000
0.28,1711005185640625
0.22,1711005185656250
0.18,1711005185671875
0.15,1711005185687500
0.13,1711005185703125
0.12,1711005185718750
0.12,1711005185734375
0.13,1711005185750000
0.14,1711005185765625
0.17,1711005185781250
0.19,1711005185796875
0.23,1711005185812500
0.26,1711005185828125
0.3,1711005185843750
0.35,1711005185859375
0.39,1711005185875000
0.44,1711005185890625
0.48,1711005185906250
0.53,1711005185921875
0.58,1711005185937500
0.64,1711005185953125
0.69,1711005185968750
0.75,1711005185984375
0.81,1711005186000000
0.88,1711005186015625
0.96,1711005186031250
1.04,1711005186046875
1.13,1711005186062500
1.23,1711005186078125
1.35,1711005186093750
1.48,1711005186109375
1.62,1711005186125000
1.78,1711005186140625
1.97,1711005186156250
2.17,1711005186171875
2.39,1711005186187500
2.64,1711005186203125
2.92,1711005186218750
3.22,1711005186234375
3.55,1711005186250000
3.91,1711005186265625
4.31,1711005186281250
4.74,1711005186296875
5.21,1711005186312500
5.71,1711005186328125
6.26,1711005186343750
6.84,1711005186359375
7.47,1711005186375000
8.13,1711005186390625
8.85,1711005186406250
9.6,1711005186421875
10.41,1711005186437500
11.25,1711005186453125
12.15,1711005186468750
13.08,1711005186484375
14.07,1711005186500000
15.12,1711005186515625
16.24,1711005186531250
17.42,1711005186546875
18.65,1711005186562500
19.93,1711005186578125
21.2,1711005186593750
22.41,1711005186609375
23.49,1711005186625000
24.34,1711005186640625
24.83,1711005186656250
24.86,1711005186671875
24.3,1711005186687500
23.04,1711005186703125
21.02,1711005186718750
18.21,1711005186734375
14.67,1711005186750000
10.48,1711005186765625
5.85,1711005186781250
1.03,1711005186796875
-3.75,1711005186812500
-8.25,1711005186828125
-12.3,1711005186843750
-15.75,1711005186859375
-18.56,1711005186875000
-20.67,1711005186890625
-22.08,1711005186906250
-22.8,1711005186921875
-22.87,1711005186937500
-22.36,1711005186953125
-21.38,1711005186968750
-20.09,1711005186984375
-18.68,1711005187000000
-17.3,1711005187015625
-16.05,1711005187031250
-14.94,1711005187046875
-13.89,1711005187062500
-12.81,1711005187078125
-11.63,1711005187093750
-10.35,1711005187109375
-9.07,1711005187125000
-7.99,1711005187140625
-7.25,1711005187156250
-6.94,1711005187171875
-6.94,1711005187187500
-6.97,1711005187203125
-6.82,1711005187218750
-6.25,1711005187234375
-5.23,1711005187250000
-4.0,1711005187265625
-2.99,1711005187281250
-2.61,1711005187296875
-3.06,1711005187312500
-4.17,1711005187328125
-5.47,1711005187343750
-6.55,1711005187359375
-6.96,1711005187375000
-6.59,1711005187390625
-5.83,1711005187406250
-5.35,1711005187421875
-5.85,1711005187437500
-7.68,1711005187453125
-10.62,1711005187468750
-13.96,1711005187484375
-17.15,1711005187500000
-19.51,1711005187515625
-20.8,1711005187531250
-21.28,1711005187546875
-21.67,1711005187562500
-22.94,1711005187578125
-26.06,1711005187593750
-31.83,1711005187609375
-40.5,1711005187625000
-51.69,1711005187640625
-63.25,1711005187656250
-71.75,1711005187671875
-73.56,1711005187687500
-66.29,1711005187703125
-49.97,1711005187718750
-27.33,1711005187734375
-2.91,1711005187750000
21.03,1711005187765625
40.58,1711005187781250
53.59,1711005187796875
60.06,1711005187812500
61.53,1711005187828125
59.96,1711005187843750
56.79,1711005187859375
52.85,1711005187875000
48.53,1711005187890625
44.38,1711005187906250
40.72,1711005187921875
38.3,1711005187937500
37.54,1711005187953125
38.23,1711005187968750
39.42,1711005187984375
39.78,1711005188000000
38.25,1711005188015625
34.37,1711005188031250
28.55,1711005188046875
21.55,1711005188062500
14.69,1711005188078125
9.06,1711005188093750
5.04,1711005188109375
2.13,1711005188125000
-0.77,1711005188140625
-4.79,1711005188156250
-10.56,1711005188171875
-17.85,1711005188187500
-25.92,1711005188203125
-33.54,1711005188218750
-39.7,1711005188234375
-44.13,1711005188250000
-47.33,1711005188265625
-50.4,1711005188281250
-54.39,1711005188296875
-60.04,1711005188312500
-67.47,1711005188328125
-76.47,1711005188343750
-86.39,1711005188359375
-96.28,1711005188375000
-104.74,1711005188390625
-109.88,1711005188406250
-109.6,1711005188421875
-102.2,1711005188437500
-87.11,1711005188453125
-65.37,1711005188468750
-39.54,1711005188484375
-12.8,1711005188500000
12.04,1711005188515625
33.39,1711005188531250
50.97,1711005188546875
65.33,1711005188562500
77.06,1711005188578125
86.24,1711005188593750
92.45,1711005188609375
95.23,1711005188625000
94.64,1711005188640625
91.54,1711005188656250
87.28,1711005188671875
83.3,1711005188687500
80.42,1711005188703125
78.66,1711005188718750
77.41,1711005188734375
75.86,1711005188750000
73.52,1711005188765625
70.43,1711005188781250
67.05,1711005188796875
63.9,1711005188812500
61.25,1711005188828125
58.83,1711005188843750
56.05,1711005188859375
52.19,1711005188875000
46.91,1711005188890625
40.36,1711005188906250
33.2,1711005188921875
26.22,1711005188937500
20.06,1711005188953125
14.81,1711005188968750
10.11,1711005188984375
5.39,1711005189000000
0.19,1711005189015625
-5.52,1711005189031250
-11.4,1711005189046875
-17.01,1711005189062500
-22.07,1711005189078125
-26.7,1711005189093750
-31.29,1711005189109375
-36.33,1711005189125000
-42.07,1711005189140625
-48.41,1711005189156250
-54.87,1711005189171875
-60.88,1711005189187500
-66.01,1711005189203125
-70.21,1711005189218750
-73.83,1711005189234375
-77.6,1711005189250000
-82.36,1711005189265625
-88.86,1711005189281250
-97.4,1711005189296875
-107.61,1711005189312500
-118.19,1711005189328125
-126.92,1711005189343750
-131.08,1711005189359375
-128.23,1711005189375000
-117.0,1711005189390625
-97.79,1711005189406250
-72.76,1711005189421875
-45.19,1711005189437500
-18.35,1711005189453125
5.49,1711005189468750
25.56,1711005189484375
42.23,1711005189500000
56.28,1711005189515625
68.12,1711005189531250
77.53,1711005189546875
83.99,1711005189562500
87.22,1711005189578125
87.58,1711005189593750
86.1,1711005189609375
83.97,1711005189625000
82.06,1711005189640625
80.66,1711005189656250
79.53,1711005189671875
78.22,1711005189687500
76.44,1711005189703125
74.21,1711005189718750
71.86,1711005189734375
69.68,1711005189750000
67.83,1711005189765625
66.1,1711005189781250
64.09,1711005189796875
61.24,1711005189812500
57.16,1711005189828125
51.82,1711005189843750
45.58,1711005189859375
39.05,1711005189875000
32.88,1711005189890625
27.41,1711005189906250
22.57,1711005189921875
17.97,1711005189937500
13.16,1711005189953125
7.86,1711005189968750
2.18,1711005189984375
-3.6,1711005190000000
-9.19,1711005190015625
-14.49,1711005190031250
-19.62,1711005190046875
-24.76,1711005190062500
-30.02,1711005190078125
-35.34,1711005190093750
-40.49,1711005190109375
-45.23,1711005190125000
-49.45,1711005190140625
-53.22,1711005190156250
-56.77,1711005190171875
-60.47,1711005190187500
-64.77,1711005190203125
-70.04,1711005190218750
-76.57,1711005190234375
-84.49,1711005190250000
-93.55,1711005190265625
-103.07,1711005190281250
-111.66,1711005190296875
-117.43,1711005190312500
-118.31,1711005190328125
-112.67,1711005190343750
-99.96,1711005190359375
-81.12,1711005190375000
-58.34,1711005190390625
-34.37,1711005190406250
-11.65,1711005190421875
8.31,1711005190437500
25.2,1711005190453125
39.39,1711005190468750
51.29,1711005190484375
60.96,1711005190500000
68.03,1711005190515625
72.06,1711005190531250
73.08,1711005190546875
71.69,1711005190562500
69.03,1711005190578125
66.3,1711005190593750
64.37,1711005190609375
63.49,1711005190625000
63.4,1711005190640625
63.59,1711005190656250
63.56,1711005190671875
63.08,1711005190687500
62.17,1711005190703125
60.94,1711005190718750
59.41,1711005190734375
57.43,1711005190750000
54.68,1711005190765625
50.87,1711005190781250
45.97,1711005190796875
40.16,1711005190812500
33.89,1711005190828125
27.61,1711005190843750
21.61,1711005190859375
16.0,1711005190875000
10.75,1711005190890625
5.75,1711005190906250
1.02,1711005190921875
-3.56,1711005190937500
-8.17,1711005190953125
-13.1,1711005190968750
-18.61,1711005190984375
-24.75,1711005191000000
-31.26,1711005191015625
-37.58,1711005191031250
-43.21,1711005191046875
-47.82,1711005191062500
-51.5,1711005191078125
-54.64,1711005191093750
-57.86,1711005191109375
-61.88,1711005191125000
-67.29,1711005191140625
-74.46,1711005191156250
-83.17,1711005191171875
-92.44,1711005191187500
-100.4,1711005191203125
-104.6,1711005191218750
-102.76,1711005191234375
-93.56,1711005191250000
-77.34,1711005191265625
-56.1,1711005191281250
-32.84,1711005191296875
-10.63,1711005191312500
8.4,1711005191328125
23.51,1711005191343750
35.06,1711005191359375
43.89,1711005191375000
50.73,1711005191390625
55.8,1711005191406250
58.99,1711005191421875
60.2,1711005191437500
59.76,1711005191453125
58.34,1711005191468750
56.84,1711005191484375
55.8,1711005191500000
55.29,1711005191515625
54.93,1711005191531250
54.2,1711005191546875
52.78,1711005191562500
50.7,1711005191578125
48.27,1711005191593750
45.8,1711005191609375
43.44,1711005191625000
41.13,1711005191640625
38.63,1711005191656250
35.72,1711005191671875
32.17,1711005191687500
27.8,1711005191703125
22.54,1711005191718750
16.48,1711005191734375
9.89,1711005191750000
3.34,1711005191765625
-2.51,1711005191781250
-7.17,1711005191796875
-10.6,1711005191812500
-13.29,1711005191828125
-16.05,1711005191843750
-19.72,1711005191859375
-24.83,1711005191875000
-31.37,1711005191890625
-38.78,1711005191906250
-46.19,1711005191921875
-52.8,1711005191937500
-58.16,1711005191953125
-62.39,1711005191968750
-66.14,1711005191984375
-70.4,1711005192000000
-76.12,1711005192015625
-83.92,1711005192031250
-93.75,1711005192046875
-104.79,1711005192062500
-115.35,1711005192078125
-123.11,1711005192093750
-125.58,1711005192109375
-120.84,1711005192125000
-108.17,1711005192140625
-88.5,1711005192156250
-64.2,1711005192171875
-38.35,1711005192187500
-13.78,1711005192203125
7.82,1711005192218750
26.05,1711005192234375
41.4,1711005192250000
54.53,1711005192265625
65.7,1711005192281250
74.56,1711005192296875
80.59,1711005192312500
83.6,1711005192328125
84.04,1711005192343750
82.92,1711005192359375
81.33,1711005192375000
80.02,1711005192390625
79.12,1711005192406250
78.28,1711005192421875
77.03,1711005192437500
75.09,1711005192453125
72.62,1711005192468750
69.99,1711005192484375
67.56,1711005192500000
65.4,1711005192515625
63.22,1711005192531250
60.57,1711005192546875
57.05,1711005192562500
52.59,1711005192578125
47.35,1711005192593750
41.72,1711005192609375
35.98,1711005192625000
30.31,1711005192640625
24.75,1711005192656250
19.27,1711005192671875
13.86,1711005192687500
8.6,1711005192703125
3.52,1711005192718750
-1.44,1711005192734375
-6.39,1711005192750000
-11.55,1711005192765625
-17.04,1711005192781250
-22.93,1711005192796875
-29.25,1711005192812500
-35.94,1711005192828125
-42.94,1711005192843750
-50.05,1711005192859375
-57.03,1711005192875000
-63.51,1711005192890625
-69.23,1711005192906250
-74.22,1711005192921875
-78.89,1711005192937500
-84.0,1711005192953125
-90.42,1711005192968750
-98.77,1711005192984375
-109.01,1711005193000000
-120.11,1711005193015625
-129.99,1711005193031250
-135.89,1711005193046875
-135.16,1711005193062500
-126.08,1711005193078125
-108.64,1711005193093750
-84.63,1711005193109375
-57.11,1711005193125000
-29.39,1711005193140625
-4.0,1711005193156250
17.93,1711005193171875
36.42,1711005193187500
52.15,1711005193203125
65.6,1711005193218750
76.78,1711005193234375
85.3,1711005193250000
90.8,1711005193265625
93.42,1711005193281250
93.84,1711005193296875
93.11,1711005193312500
92.15,1711005193328125
91.46,1711005193343750
91.01,1711005193359375
90.33,1711005193375000
88.96,1711005193390625
86.69,1711005193406250
83.75,1711005193421875
80.68,1711005193437500
78.09,1711005193453125
76.17,1711005193468750
74.66,1711005193484375
72.83,1711005193500000
69.94,1711005193515625
65.57,1711005193531250
59.86,1711005193546875
53.36,1711005193562500
46.78,1711005193578125
40.63,1711005193593750
35.03,1711005193609375
29.86,1711005193625000
24.87,1711005193640625
19.89,1711005193656250
14.91,1711005193671875
10.01,1711005193687500
5.37,1711005193703125
1.1,1711005193718750
-2.67,1711005193734375
-6.02,1711005193750000
-9.19,1711005193765625
-12.51,1711005193781250
-16.32,1711005193796875
-20.78,1711005193812500
-25.69,1711005193828125
-30.61,1711005193843750
-35.04,1711005193859375
-38.66,1711005193875000
-41.51,1711005193890625
-43.92,1711005193906250
-46.38,1711005193921875
-49.49,1711005193937500
-53.77,1711005193953125
-59.59,1711005193968750
-66.9,1711005193984375
-75.12,1711005194000000
-82.8,1711005194015625
-87.9,1711005194031250
-88.28,1711005194046875
-82.44,1711005194062500
-70.05,1711005194078125
-52.16,1711005194093750
-30.9,1711005194109375
-8.78,1711005194125000
12.02,1711005194140625
30.11,1711005194156250
44.98,1711005194171875
56.78,1711005194187500
65.94,1711005194203125
72.9,1711005194218750
77.94,1711005194234375
81.19,1711005194250000
82.79,1711005194265625
82.85,1711005194281250
81.59,1711005194296875
79.23,1711005194312500
75.97,1711005194328125
71.93,1711005194343750
67.21,1711005194359375
61.94,1711005194375000
56.36,1711005194390625
50.75,1711005194406250
45.36,1711005194421875
40.29,1711005194437500
35.47,1711005194453125
30.68,1711005194468750
25.69,1711005194484375
20.34,1711005194500000
14.68,1711005194515625
8.96,1711005194531250
3.59,1711005194546875
-1.04,1711005194562500
-4.7,1711005194578125
-7.46,1711005194593750
-9.66,1711005194609375
-11.82,1711005194625000
-14.35,1711005194640625
-17.39,1711005194656250
-20.71,1711005194671875
-23.95,1711005194687500
-26.77,1711005194703125
-29.06,1711005194718750
-30.94,1711005194734375
-32.64,1711005194750000
-34.25,1711005194765625
-35.72,1711005194781250
-36.92,1711005194796875
-37.83,1711005194812500
-38.61,1711005194828125
-39.56,1711005194843750
-40.84,1711005194859375
-42.44,1711005194875000
-44.0,1711005194890625
-45.01,1711005194906250
-44.92,1711005194921875
-43.42,1711005194937500
-40.44,1711005194953125
-36.18,1711005194968750
-31.01,1711005194984375
-25.37,1711005195000000
-19.73,1711005195015625
-14.42,1711005195031250
-9.73,1711005195046875
-5.81,1711005195062500
-2.71,1711005195078125
-0.37,1711005195093750
1.33,1711005195109375
2.57,1711005195125000
3.57,1711005195140625
4.43,1711005195156250
5.19,1711005195171875
5.75,1711005195187500
6.0,1711005195203125
5.87,1711005195218750
5.41,1711005195234375
4.67,1711005195250000
3.65,1711005195265625
2.23,1711005195281250
0.24,1711005195296875
-2.38,1711005195312500
-5.43,1711005195328125
-8.47,1711005195343750
-11.02,1711005195359375
-12.75,1711005195375000
-13.63,1711005195390625
-14.0,1711005195406250
-14.37,1711005195421875
-15.25,1711005195437500
-16.98,1711005195453125
-19.66,1711005195468750
-23.1,1711005195484375
-26.91,1711005195500000
-30.65,1711005195515625
-33.84,1711005195531250
-36.26,1711005195546875
-37.9,1711005195562500
-39.08,1711005195578125
-40.29,1711005195593750
-42.04,1711005195609375
-44.71,1711005195625000
-48.5,1711005195640625
-53.25,1711005195656250
-58.61,1711005195671875
-64.17,1711005195687500
-69.48,1711005195703125
-74.31,1711005195718750
-78.53,1711005195734375
-81.98,1711005195750000
-84.24,1711005195765625
-84.63,1711005195781250
-82.32,1711005195796875
-76.75,1711005195812500
-67.89,1711005195828125
-56.32,1711005195843750
-43.01,1711005195859375
-28.98,1711005195875000
-14.96,1711005195890625
-1.35,1711005195906250
11.62,1711005195921875
23.62,1711005195937500
34.16,1711005195953125
42.59,1711005195968750
48.46,1711005195984375
51.64,1711005196000000
52.48,1711005196015625
51.73,1711005196031250
50.32,1711005196046875
49.05,1711005196062500
48.39,1711005196078125
48.41,1711005196093750
48.8,1711005196109375
49.12,1711005196125000
48.97,1711005196140625
48.19,1711005196156250
46.77,1711005196171875
44.67,1711005196187500
41.78,1711005196203125
37.91,1711005196218750
33.01,1711005196234375
27.26,1711005196250000
21.2,1711005196265625
15.52,1711005196281250
10.84,1711005196296875
7.41,1711005196312500
5.08,1711005196328125
3.36,1711005196343750
1.72,1711005196359375
-0.31,1711005196375000
-2.97,1711005196390625
-6.2,1711005196406250
-9.79,1711005196421875
-13.41,1711005196437500
-16.78,1711005196453125
-19.73,1711005196468750
-22.3,1711005196484375
-24.7,1711005196500000
-27.21,1711005196515625
-30.12,1711005196531250
-33.66,1711005196546875
-37.95,1711005196562500
-42.99,1711005196578125
-48.56,1711005196593750
-54.22,1711005196609375
-59.29,1711005196625000
-63.0,1711005196640625
-64.7,1711005196656250
-64.09,1711005196671875
-61.27,1711005196687500
-56.67,1711005196703125
-50.86,1711005196718750
-44.31,1711005196734375
-37.42,1711005196750000
-30.45,1711005196765625
-23.62,1711005196781250
-17.19,1711005196796875
-11.53,1711005196812500
-7.02,1711005196828125
-4.1,1711005196843750
-3.13,1711005196859375
-4.23,1711005196875000
-7.17,1711005196890625
-11.42,1711005196906250
-16.19,1711005196921875
-20.74,1711005196937500
-24.58,1711005196953125
-27.56,1711005196968750
-29.79,1711005196984375
-31.43,1711005197000000
-32.52,1711005197015625
-32.92,1711005197031250
-32.4,1711005197046875
-30.81,1711005197062500
-28.25,1711005197078125
-25.03,1711005197093750
-21.73,1711005197109375
-18.98,1711005197125000
-17.45,1711005197140625
-17.58,1711005197156250
-19.55,1711005197171875
-23.08,1711005197187500
-27.55,1711005197203125
-32.12,1711005197218750
-35.99,1711005197234375
-38.74,1711005197250000
-40.38,1711005197265625
-41.4,1711005197281250
-42.62,1711005197296875
-44.96,1711005197312500
-49.3,1711005197328125
-56.04,1711005197343750
-64.96,1711005197359375
-75.02,1711005197375000
-84.37,1711005197390625
-90.82,1711005197406250
-92.41,1711005197421875
-88.13,1711005197437500
-78.26,1711005197453125
-64.3,1711005197468750
-48.4,1711005197484375
-32.58,1711005197500000
-18.07,1711005197515625
-5.17,1711005197531250
6.56,1711005197546875
17.84,1711005197562500
29.1,1711005197578125
40.31,1711005197593750
50.99,1711005197609375
60.47,1711005197625000
68.25,1711005197640625
74.16,1711005197656250
78.41,1711005197671875
81.51,1711005197687500
83.98,1711005197703125
86.16,1711005197718750
88.27,1711005197734375
90.31,1711005197750000
92.28,1711005197765625
94.23,1711005197781250
96.1,1711005197796875
97.71,1711005197812500
98.62,1711005197828125
98.26,1711005197843750
96.12,1711005197859375
92.03,1711005197875000
86.18,1711005197890625
79.14,1711005197906250
71.54,1711005197921875
63.91,1711005197937500
56.55,1711005197953125
49.58,1711005197968750
42.96,1711005197984375
36.59,1711005198000000
30.32,1711005198015625
24.0,1711005198031250
17.46,1711005198046875
10.58,1711005198062500
3.37,1711005198078125
-4.09,1711005198093750
-11.66,1711005198109375
-19.23,1711005198125000
-26.72,1711005198140625
-34.08,1711005198156250
-41.31,1711005198171875
-48.39,1711005198187500
-55.37,1711005198203125
-62.45,1711005198218750
-69.94,1711005198234375
-78.19,1711005198250000
-87.41,1711005198265625
-97.44,1711005198281250
-107.53,1711005198296875
-116.47,1711005198312500
-122.71,1711005198328125
-124.9,1711005198343750
-122.17,1711005198359375
-114.39,1711005198375000
-102.17,1711005198390625
-86.53,1711005198406250
-68.68,1711005198421875
-49.77,1711005198437500
-30.79,1711005198453125
-12.46,1711005198468750
4.7,1711005198484375
20.43,1711005198500000
34.68,1711005198515625
47.58,1711005198531250
59.3,1711005198546875
69.96,1711005198562500
79.54,1711005198578125
87.9,1711005198593750
94.88,1711005198609375
100.4,1711005198625000
104.56,1711005198640625
107.61,1711005198656250
109.86,1711005198671875
111.59,1711005198687500
112.89,1711005198703125
113.63,1711005198718750
113.53,1711005198734375
112.27,1711005198750000
109.69,1711005198765625
105.91,1711005198781250
101.35,1711005198796875
96.52,1711005198812500
91.79,1711005198828125
87.18,1711005198843750
82.38,1711005198859375
76.9,1711005198875000
70.34,1711005198890625
62.57,1711005198906250
53.9,1711005198921875
44.9,1711005198937500
36.16,1711005198953125
28.02,1711005198968750
20.41,1711005198984375
12.89,1711005199000000
4.86,1711005199015625
-4.07,1711005199031250
-13.89,1711005199046875
-24.16,1711005199062500
-34.18,1711005199078125
-43.41,1711005199093750
-51.64,1711005199109375
-59.21,1711005199125000
-66.82,1711005199140625
-75.36,1711005199156250
-85.64,1711005199171875
-98.22,1711005199187500
-113.22,1711005199203125
-130.14,1711005199218750
-147.59,1711005199234375
-163.19,1711005199250000
-173.85,1711005199265625
-176.5,1711005199281250
-169.1,1711005199296875
-151.44,1711005199312500
-125.39,1711005199328125
-94.27,1711005199343750
-61.68,1711005199359375
-30.36,1711005199375000
-1.55,1711005199390625
24.78,1711005199406250
49.24,1711005199421875
72.0,1711005199437500
92.5,1711005199453125
109.49,1711005199468750
121.78,1711005199484375
128.88,1711005199500000
131.35,1711005199515625
130.63,1711005199531250
128.39,1711005199546875
126.03,1711005199562500
124.22,1711005199578125
123.0,1711005199593750
121.98,1711005199609375
120.74,1711005199625000
118.97,1711005199640625
116.47,1711005199656250
113.05,1711005199671875
108.45,1711005199687500
102.39,1711005199703125
94.71,1711005199718750
85.56,1711005199734375
75.3,1711005199750000
64.4,1711005199765625
53.26,1711005199781250
41.99,1711005199796875
30.47,1711005199812500
18.53,1711005199828125
6.1,1711005199843750
-6.61,1711005199859375
-19.18,1711005199875000
-31.2,1711005199890625
-42.4,1711005199906250
-52.91,1711005199921875
-63.23,1711005199937500
-74.22,1711005199953125
-86.8,1711005199968750
-101.76,1711005199984375
-119.24,1711005200000000
-138.31,1711005200015625
-156.74,1711005200031250
-171.24,1711005200046875
-178.21,1711005200062500
-174.9,1711005200078125
-160.41,1711005200093750
-136.11,1711005200109375
-105.28,1711005200125000
-71.98,1711005200140625
-39.73,1711005200156250
-10.7,1711005200171875
14.54,1711005200187500
36.51,1711005200203125
55.96,1711005200218750
73.24,1711005200234375
88.16,1711005200250000
100.11,1711005200265625
108.64,1711005200281250
113.73,1711005200296875
115.9,1711005200312500
116.07,1711005200328125
115.16,1711005200343750
113.84,1711005200359375
112.35,1711005200375000
110.64,1711005200390625
108.57,1711005200406250
105.99,1711005200421875
102.99,1711005200437500
99.62,1711005200453125
95.94,1711005200468750
91.82,1711005200484375
86.99,1711005200500000
81.16,1711005200515625
74.17,1711005200531250
66.12,1711005200546875
57.37,1711005200562500
48.58,1711005200578125
40.35,1711005200593750
33.2,1711005200609375
27.29,1711005200625000
22.41,1711005200640625
17.98,1711005200656250
13.31,1711005200671875
7.8,1711005200687500
1.23,1711005200703125
-6.18,1711005200718750
-13.91,1711005200734375
-21.34,1711005200750000
-28.09,1711005200765625
-34.22,1711005200781250
-40.16,1711005200796875
-46.6,1711005200812500
-54.14,1711005200828125
-63.21,1711005200843750
-73.84,1711005200859375
-85.73,1711005200875000
-98.26,1711005200890625
-110.42,1711005200906250
-120.93,1711005200921875
-128.21,1711005200937500
-130.8,1711005200953125
-127.61,1711005200968750
-118.34,1711005200984375
-103.55,1711005201000000
-84.47,1711005201015625
-62.6,1711005201031250
-39.22,1711005201046875
-15.21,1711005201062500
8.9,1711005201078125
32.63,1711005201093750
55.26,1711005201109375
75.76,1711005201125000
93.01,1711005201140625
106.1,1711005201156250
114.72,1711005201171875
119.2,1711005201187500
120.42,1711005201203125
119.46,1711005201218750
117.28,1711005201234375
114.48,1711005201250000
111.35,1711005201265625
107.94,1711005201281250
104.29,1711005201296875
100.5,1711005201312500
96.78,1711005201328125
93.3,1711005201343750
90.09,1711005201359375
86.96,1711005201375000
83.53,1711005201390625
79.33,1711005201406250
74.0,1711005201421875
67.43,1711005201437500
59.74,1711005201453125
51.36,1711005201468750
42.8,1711005201484375
34.57,1711005201500000
26.99,1711005201515625
20.18,1711005201531250
13.94,1711005201546875
7.88,1711005201562500
1.57,1711005201578125
-5.4,1711005201593750
-13.24,1711005201609375
-21.94,1711005201625000
-31.26,1711005201640625
-40.8,1711005201656250
-50.08,1711005201671875
-58.66,1711005201687500
-66.2,1711005201703125
-72.72,1711005201718750
-78.63,1711005201734375
-84.77,1711005201750000
-92.1,1711005201765625
-101.31,1711005201781250
-112.16,1711005201796875
-123.26,1711005201812500
-132.21,1711005201828125
-136.33,1711005201843750
-133.64,1711005201859375
-123.58,1711005201875000
-107.26,1711005201890625
-86.91,1711005201906250
-64.97,1711005201921875
-43.22,1711005201937500
-22.4,1711005201953125
-2.41,1711005201968750
16.99,1711005201984375
35.59,1711005202000000
52.55,1711005202015625
66.61,1711005202031250
76.8,1711005202046875
82.93,1711005202062500
85.79,1711005202078125
86.8,1711005202093750
87.4,1711005202109375
88.48,1711005202125000
90.07,1711005202140625
91.57,1711005202156250
92.09,1711005202171875
91.01,1711005202187500
88.24,1711005202203125
84.24,1711005202218750
79.66,1711005202234375
74.95,1711005202250000
70.26,1711005202265625
65.34,1711005202281250
59.87,1711005202296875
53.68,1711005202312500
46.89,1711005202328125
39.77,1711005202343750
32.59,1711005202359375
25.39,1711005202375000
18.04,1711005202390625
10.26,1711005202406250
1.9,1711005202421875
-6.95,1711005202437500
-15.95,1711005202453125
-24.65,1711005202468750
-32.74,1711005202484375
-40.0,1711005202500000
-46.46,1711005202515625
-52.21,1711005202531250
-57.32,1711005202546875
-61.91,1711005202562500
-66.15,1711005202578125
-70.35,1711005202593750
-74.88,1711005202609375
-80.07,1711005202625000
-85.88,1711005202640625
-91.77,1711005202656250
-96.76,1711005202671875
-99.6,1711005202687500
-99.26,1711005202703125
-95.24,1711005202718750
-87.74,1711005202734375
-77.63,1711005202750000
-66.04,1711005202765625
-53.95,1711005202781250
-41.95,1711005202796875
-30.27,1711005202812500
-18.98,1711005202828125
-8.34,1711005202843750
1.13,1711005202859375
8.76,1711005202875000
14.14,1711005202890625
17.35,1711005202906250
19.08,1711005202921875
20.28,1711005202937500
21.78,1711005202953125
23.89,1711005202968750
26.29,1711005202984375
28.32,1711005203000000
29.38,1711005203015625
29.24,1711005203031250
28.12,1711005203046875
26.5,1711005203062500
24.81,1711005203078125
23.21,1711005203093750
21.52,1711005203109375
19.32,1711005203125000
16.19,1711005203140625
11.93,1711005203156250
6.73,1711005203171875
1.06,1711005203187500
-4.33,1711005203203125
-8.78,1711005203218750
-12.02,1711005203234375
-14.24,1711005203250000
-16.1,1711005203265625
-18.46,1711005203281250
-21.98,1711005203296875
-26.88,1711005203312500
-32.87,1711005203328125
-39.32,1711005203343750
-45.51,1711005203359375
-51.06,1711005203375000
-55.91,1711005203390625
-60.47,1711005203406250
-65.37,1711005203421875
-71.33,1711005203437500
-78.9,1711005203453125
-88.31,1711005203468750
-99.18,1711005203484375
-110.33,1711005203500000
-119.84,1711005203515625
-125.36,1711005203531250
-124.77,1711005203546875
-116.91,1711005203562500
-102.07,1711005203578125
-81.96,1711005203593750
-59.12,1711005203609375
-36.11,1711005203625000
-14.63,1711005203640625
4.65,1711005203656250
21.9,1711005203671875
37.48,1711005203687500
51.45,1711005203703125
63.36,1711005203718750
72.53,1711005203734375
78.54,1711005203750000
81.58,1711005203765625
82.45,1711005203781250
82.2,1711005203796875
81.71,1711005203812500
81.38,1711005203828125
81.1,1711005203843750
80.54,1711005203859375
79.38,1711005203875000
77.64,1711005203890625
75.55,1711005203906250
73.45,1711005203921875
71.52,1711005203937500
69.65,1711005203953125
67.49,1711005203968750
64.64,1711005203984375
60.76,1711005204000000
55.9,1711005204015625
50.37,1711005204031250
44.67,1711005204046875
39.2,1711005204062500
34.06,1711005204078125
29.03,1711005204093750
23.67,1711005204109375
17.67,1711005204125000
11.04,1711005204140625
4.18,1711005204156250
-2.31,1711005204171875
-7.9,1711005204187500
-12.38,1711005204203125
-16.01,1711005204218750
-19.38,1711005204234375
-23.2,1711005204250000
-28.06,1711005204265625
-34.18,1711005204281250
-41.31,1711005204296875
-48.84,1711005204312500
-56.0,1711005204328125
-62.17,1711005204343750
-67.19,1711005204359375
-71.39,1711005204375000
-75.61,1711005204390625
-80.86,1711005204406250
-88.06,1711005204421875
-97.57,1711005204437500
-108.94,1711005204453125
-120.68,1711005204468750
-130.41,1711005204484375
-135.42,1711005204500000
-133.44,1711005204515625
-123.51,1711005204531250
-106.44,1711005204546875
-84.59,1711005204562500
-61.07,1711005204578125
-38.63,1711005204593750
-18.85,1711005204609375
-1.96,1711005204625000
12.7,1711005204640625
25.92,1711005204656250
37.98,1711005204671875
48.52,1711005204687500
56.84,1711005204703125
62.4,1711005204718750
65.2,1711005204734375
65.83,1711005204750000
65.23,1711005204765625
64.28,1711005204781250
63.5,1711005204796875
62.95,1711005204812500
62.37,1711005204828125
61.43,1711005204843750
59.97,1711005204859375
58.07,1711005204875000
56.01,1711005204890625
54.03,1711005204906250
52.23,1711005204921875
50.47,1711005204937500
48.46,1711005204953125
45.89,1711005204968750
42.56,1711005204984375
38.39,1711005205000000
33.45,1711005205015625
27.97,1711005205031250
22.26,1711005205046875
16.6,1711005205062500
11.29,1711005205078125
6.38,1711005205093750
1.79,1711005205109375
-2.79,1711005205125000
-7.63,1711005205140625
-12.91,1711005205156250
-18.53,1711005205171875
-24.16,1711005205187500
-29.34,1711005205203125
-33.68,1711005205218750
-37.07,1711005205234375
-39.79,1711005205250000
-42.47,1711005205265625
-45.88,1711005205281250
-50.73,1711005205296875
-57.55,1711005205312500
-66.53,1711005205328125
-77.45,1711005205343750
-89.55,1711005205359375
-101.44,1711005205375000
-111.13,1711005205390625
-116.37,1711005205406250
-115.21,1711005205421875
-106.69,1711005205437500
-91.29,1711005205453125
-70.9,1711005205468750
-48.19,1711005205484375
-25.79,1711005205500000
-5.55,1711005205515625
11.71,1711005205531250
25.97,1711005205546875
37.49,1711005205562500
46.37,1711005205578125
52.5,1711005205593750
55.75,1711005205609375
56.3,1711005205625000
54.81,1711005205640625
52.3,1711005205656250
49.82,1711005205671875
48.07,1711005205687500
47.34,1711005205703125
47.42,1711005205718750
47.96,1711005205734375
48.56,1711005205750000
48.95,1711005205765625
48.91,1711005205781250
48.21,1711005205796875
46.61,1711005205812500
43.87,1711005205828125
39.86,1711005205843750
34.61,1711005205859375
28.32,1711005205875000
21.31,1711005205890625
13.9,1711005205906250
6.35,1711005205921875
-1.22,1711005205937500
-8.82,1711005205953125
-16.54,1711005205968750
-24.39,1711005205984375
-32.32,1711005206000000
-40.05,1711005206015625
-47.29,1711005206031250
-53.82,1711005206046875
-59.68,1711005206062500
-65.29,1711005206078125
-71.4,1711005206093750
-78.88,1711005206109375
-88.36,1711005206125000
-99.88,1711005206140625
-112.53,1711005206156250
-124.34,1711005206171875
-132.68,1711005206187500
-134.8,1711005206203125
-128.88,1711005206218750
-114.59,1711005206234375
-93.41,1711005206250000
-68.09,1711005206265625
-41.72,1711005206281250
-16.7,1711005206296875
5.77,1711005206312500
25.63,1711005206328125
43.41,1711005206343750
59.45,1711005206359375
73.56,1711005206375000
85.06,1711005206390625
93.21,1711005206406250
97.68,1711005206421875
98.81,1711005206437500
97.56,1711005206453125
95.14,1711005206468750
92.63,1711005206484375
90.63,1711005206500000
89.2,1711005206515625
88.03,1711005206531250
86.7,1711005206546875
84.92,1711005206562500
82.68,1711005206578125
80.09,1711005206593750
77.28,1711005206609375
74.23,1711005206625000
70.7,1711005206640625
66.33,1711005206656250
60.76,1711005206671875
53.86,1711005206687500
45.75,1711005206703125
36.93,1711005206718750
28.02,1711005206734375
19.61,1711005206750000
12.06,1711005206765625
5.28,1711005206781250
-1.21,1711005206796875
-8.16,1711005206812500
-16.2,1711005206828125
-25.55,1711005206843750
-35.89,1711005206859375
-46.49,1711005206875000
-56.51,1711005206890625
-65.35,1711005206906250
-72.95,1711005206921875
-79.78,1711005206937500
-86.72,1711005206953125
-94.7,1711005206968750
-104.55,1711005206984375
-116.74,1711005207000000
-131.12,1711005207015625
-146.77,1711005207031250
-161.83,1711005207046875
-173.7,1711005207062500
-179.51,1711005207078125
-176.85,1711005207093750
-164.65,1711005207109375
-143.55,1711005207125000
-115.75,1711005207140625
-84.32,1711005207156250
-52.3,1711005207171875
-21.89,1711005207187500
5.77,1711005207203125
30.43,1711005207218750
52.23,1711005207234375
71.24,1711005207250000
87.31,1711005207265625
100.12,1711005207281250
109.45,1711005207296875
115.34,1711005207312500
118.25,1711005207328125
118.92,1711005207343750
118.17,1711005207359375
116.72,1711005207375000
115.04,1711005207390625
113.37,1711005207406250
111.79,1711005207421875
110.35,1711005207437500
109.07,1711005207453125
107.84,1711005207468750
106.4,1711005207484375
104.31,1711005207500000
101.04,1711005207515625
96.23,1711005207531250
89.82,1711005207546875
82.16,1711005207562500
73.8,1711005207578125
65.35,1711005207593750
57.13,1711005207609375
49.15,1711005207625000
41.14,1711005207640625
32.81,1711005207656250
24.08,1711005207671875
15.21,1711005207687500
6.66,1711005207703125
-1.11,1711005207718750
-7.93,1711005207734375
-14.09,1711005207750000
-20.2,1711005207765625
-26.94,1711005207781250
-34.71,1711005207796875
-43.38,1711005207812500
-52.43,1711005207828125
-61.12,1711005207843750
-68.95,1711005207859375
-75.83,1711005207875000
-82.14,1711005207890625
-88.69,1711005207906250
-96.43,1711005207921875
-106.28,1711005207937500
-118.62,1711005207953125
-132.94,1711005207968750
-147.5,1711005207984375
-159.38,1711005208000000
-165.08,1711005208015625
-161.62,1711005208031250
-147.63,1711005208046875
-123.95,1711005208062500
-93.5,1711005208078125
-60.21,1711005208093750
-27.77,1711005208109375
1.42,1711005208125000
26.44,1711005208140625
47.46,1711005208156250
64.98,1711005208171875
79.26,1711005208187500
90.24,1711005208203125
97.74,1711005208218750
101.89,1711005208234375
103.22,1711005208250000
102.6,1711005208265625
101.03,1711005208281250
99.22,1711005208296875
97.46,1711005208312500
95.62,1711005208328125
93.32,1711005208343750
90.16,1711005208359375
86.04,1711005208375000
81.16,1711005208390625
76.03,1711005208406250
71.14,1711005208421875
66.66,1711005208437500
62.36,1711005208453125
57.61,1711005208468750
51.81,1711005208484375
44.63,1711005208500000
36.31,1711005208515625
27.51,1711005208531250
19.05,1711005208546875
11.47,1711005208562500
4.87,1711005208578125
-1.21,1711005208593750
-7.42,1711005208609375
-14.28,1711005208625000
-21.92,1711005208640625
-29.96,1711005208656250
-37.8,1711005208671875
-44.82,1711005208687500
-50.7,1711005208703125
-55.51,1711005208718750
-59.68,1711005208734375
-63.86,1711005208750000
-68.75,1711005208765625
-74.94,1711005208781250
-82.72,1711005208796875
-91.9,1711005208812500
-101.5,1711005208828125
-109.78,1711005208843750
-114.49,1711005208859375
-113.48,1711005208875000
-105.52,1711005208890625
-90.77,1711005208906250
-70.81,1711005208921875
-48.09,1711005208937500
-25.04,1711005208953125
-3.34,1711005208968750
16.36,1711005208984375
34.19,1711005209000000
50.5,1711005209015625
65.24,1711005209031250
77.79,1711005209046875
87.14,1711005209062500
92.53,1711005209078125
93.81,1711005209093750
91.77,1711005209109375
87.79,1711005209125000
83.38,1711005209140625
79.63,1711005209156250
76.89,1711005209171875
74.84,1711005209187500
72.87,1711005209203125
70.47,1711005209218750
67.48,1711005209234375
64.06,1711005209250000
60.49,1711005209265625
56.94,1711005209281250
53.33,1711005209296875
49.47,1711005209312500
45.18,1711005209328125
40.46,1711005209343750
35.45,1711005209359375
30.36,1711005209375000
25.33,1711005209390625
20.44,1711005209406250
15.71,1711005209421875
11.2,1711005209437500
6.99,1711005209453125
3.13,1711005209468750
-0.49,1711005209484375
-4.19,1711005209500000
-8.39,1711005209515625
-13.43,1711005209531250
-19.34,1711005209546875
-25.83,1711005209562500
-32.4,1711005209578125
-38.65,1711005209593750
-44.44,1711005209609375
-49.98,1711005209625000
-55.65,1711005209640625
-61.93,1711005209656250
-69.05,1711005209671875
-77.06,1711005209687500
-85.64,1711005209703125
-94.1,1711005209718750
-101.32,1711005209734375
-105.87,1711005209750000
-106.35,1711005209765625
-101.82,1711005209781250
-92.25,1711005209796875
-78.57,1711005209812500
-62.5,1711005209828125
-45.88,1711005209843750
-30.12,1711005209859375
-15.91,1711005209875000
-3.28,1711005209890625
8.0,1711005209906250
18.01,1711005209921875
26.49,1711005209937500
32.94,1711005209953125
36.89,1711005209968750
38.3,1711005209984375
37.58,1711005210000000
35.53,1711005210015625
33.02,1711005210031250
30.71,1711005210046875
28.92,1711005210062500
27.64,1711005210078125
26.8,1711005210093750
26.34,1711005210109375
26.35,1711005210125000
26.91,1711005210140625
27.96,1711005210156250
29.24,1711005210171875
30.37,1711005210187500
30.99,1711005210203125
30.93,1711005210218750
30.24,1711005210234375
29.15,1711005210250000
27.9,1711005210265625
26.64,1711005210281250
25.46,1711005210296875
24.42,1711005210312500
23.54,1711005210328125
22.88,1711005210343750
22.4,1711005210359375
21.93,1711005210375000
21.21,1711005210390625
19.94,1711005210406250
17.97,1711005210421875
15.37,1711005210437500
12.39,1711005210453125
9.33,1711005210468750
6.38,1711005210484375
3.54,1711005210500000
0.65,1711005210515625
-2.53,1711005210531250
-6.27,1711005210546875
-10.75,1711005210562500
-16.11,1711005210578125
-22.32,1711005210593750
-29.08,1711005210609375
-35.69,1711005210625000
-41.04,1711005210640625
-43.8,1711005210656250
-42.86,1711005210671875
-37.83,1711005210687500
-29.2,1711005210703125
-18.37,1711005210718750
-7.18,1711005210734375
2.62,1711005210750000
9.95,1711005210765625
14.55,1711005210781250
16.82,1711005210796875
17.45,1711005210812500
17.04,1711005210828125
15.88,1711005210843750
13.98,1711005210859375
11.35,1711005210875000
8.13,1711005210890625
4.72,1711005210906250
1.62,1711005210921875
-0.7,1711005210937500
-2.02,1711005210953125
-2.28,1711005210968750
-1.62,1711005210984375
-0.19,1711005211000000
1.84,1711005211015625
4.26,1711005211031250
6.73,1711005211046875
8.82,1711005211062500
10.09,1711005211078125
10.28,1711005211093750
9.41,1711005211109375
7.84,1711005211125000
5.99,1711005211140625
4.24,1711005211156250
2.72,1711005211171875
1.28,1711005211187500
-0.42,1711005211203125
-2.66,1711005211218750
-5.75,1711005211234375
-9.81,1711005211250000
-14.83,1711005211265625
-20.63,1711005211281250
-26.88,1711005211296875
-33.17,1711005211312500
-39.17,1711005211328125
-44.83,1711005211343750
-50.38,1711005211359375
-56.37,1711005211375000
-63.42,1711005211390625
-71.94,1711005211406250
-81.95,1711005211421875
-92.99,1711005211437500
-104.13,1711005211453125
-114.08,1711005211468750
-121.39,1711005211484375
-124.68,1711005211500000
-122.94,1711005211515625
-115.76,1711005211531250
-103.52,1711005211546875
-87.3,1711005211562500
-68.54,1711005211578125
-48.73,1711005211593750
-29.03,1711005211609375
-10.29,1711005211625000
6.82,1711005211640625
21.67,1711005211656250
33.64,1711005211671875
42.19,1711005211687500
47.15,1711005211703125
48.93,1711005211718750
48.38,1711005211734375
46.64,1711005211750000
44.76,1711005211765625
43.46,1711005211781250
43.0,1711005211796875
43.31,1711005211812500
44.08,1711005211828125
44.93,1711005211843750
45.51,1711005211859375
45.5,1711005211875000
44.68,1711005211890625
42.93,1711005211906250
40.33,1711005211921875
36.98,1711005211937500
33.07,1711005211953125
28.69,1711005211968750
23.84,1711005211984375
18.57,1711005212000000
13.01,1711005212015625
7.49,1711005212031250
2.39,1711005212046875
-2.05,1711005212062500
-5.91,1711005212078125
-9.54,1711005212093750
-13.43,1711005212109375
-17.96,1711005212125000
-23.21,1711005212140625
-28.99,1711005212156250
-34.96,1711005212171875
-40.87,1711005212187500
-46.6,1711005212203125
-52.26,1711005212218750
-58.12,1711005212234375
-64.56,1711005212250000
-72.08,1711005212265625
-81.16,1711005212281250
-92.02,1711005212296875
-104.18,1711005212312500
-116.26,1711005212328125
-126.0,1711005212343750
-130.84,1711005212359375
-128.73,1711005212375000
-118.78,1711005212390625
-101.67,1711005212406250
-79.29,1711005212421875
-54.16,1711005212437500
-28.58,1711005212453125
-4.12,1711005212468750
18.5,1711005212484375
39.17,1711005212500000
57.94,1711005212515625
74.69,1711005212531250
88.98,1711005212546875
100.23,1711005212562500
108.05,1711005212578125
112.52,1711005212593750
114.19,1711005212609375
114.0,1711005212625000
112.92,1711005212640625
111.63,1711005212656250
110.38,1711005212671875
109.05,1711005212687500
107.47,1711005212703125
105.49,1711005212718750
103.14,1711005212734375
100.48,1711005212750000
97.48,1711005212765625
93.9,1711005212781250
89.45,1711005212796875
83.9,1711005212812500
77.3,1711005212828125
70.01,1711005212843750
62.59,1711005212859375
55.56,1711005212875000
49.18,1711005212890625
43.37,1711005212906250
37.82,1711005212921875
32.09,1711005212937500
25.89,1711005212953125
19.22,1711005212968750
12.36,1711005212984375
5.75,1711005213000000
-0.31,1711005213015625
-5.79,1711005213031250
-10.96,1711005213046875
-16.3,1711005213062500
-22.18,1711005213078125
-28.73,1711005213093750
-35.75,1711005213109375
-42.83,1711005213125000
-49.58,1711005213140625
-55.79,1711005213156250
-61.55,1711005213171875
-67.19,1711005213187500
-73.19,1711005213203125
-80.13,1711005213218750
-88.55,1711005213234375
-98.77,1711005213250000
-110.5,1711005213265625
-122.59,1711005213281250
-132.84,1711005213296875
-138.5,1711005213312500
-137.05,1711005213328125
-127.21,1711005213343750
-109.47,1711005213359375
-85.95,1711005213375000
-59.75,1711005213390625
-33.75,1711005213406250
-9.89,1711005213421875
11.17,1711005213437500
29.6,1711005213453125
45.85,1711005213468750
60.09,1711005213484375
72.07,1711005213500000
81.37,1711005213515625
87.68,1711005213531250
91.15,1711005213546875
92.28,1711005213562500
91.92,1711005213578125
90.92,1711005213593750
90.0,1711005213609375
89.54,1711005213625000
89.57,1711005213640625
89.82,1711005213656250
89.88,1711005213671875
89.34,1711005213687500
87.99,1711005213703125
85.8,1711005213718750
82.87,1711005213734375
79.19,1711005213750000
74.64,1711005213765625
68.98,1711005213781250
62.05,1711005213796875
53.86,1711005213812500
44.77,1711005213828125
35.3,1711005213843750
25.96,1711005213859375
17.08,1711005213875000
8.68,1711005213890625
0.47,1711005213906250
-7.97,1711005213921875
-16.99,1711005213937500
-26.73,1711005213953125
-36.94,1711005213968750
-47.09,1711005213984375
-56.41,1711005214000000
-64.2,1711005214015625
-70.02,1711005214031250
-73.92,1711005214046875
-76.3,1711005214062500
-77.89,1711005214078125
-79.48,1711005214093750
-81.87,1711005214109375
-85.74,1711005214125000
-91.42,1711005214140625
-98.62,1711005214156250
-106.09,1711005214171875
-111.8,1711005214187500
-113.4,1711005214203125
-109.09,1711005214218750
-98.45,1711005214234375
-82.61,1711005214250000
-63.87,1711005214265625
-44.68,1711005214281250
-26.76,1711005214296875
-10.54,1711005214312500
4.45,1711005214328125
18.97,1711005214343750
33.3,1711005214359375
46.91,1711005214375000
58.7,1711005214390625
67.53,1711005214406250
72.79,1711005214421875
74.66,1711005214437500
74.0,1711005214453125
72.04,1711005214468750
69.94,1711005214484375
68.44,1711005214500000
67.72,1711005214515625
67.51,1711005214531250
67.33,1711005214546875
66.76,1711005214562500
65.63,1711005214578125
64.03,1711005214593750
62.16,1711005214609375
60.12,1711005214625000
57.8,1711005214640625
54.9,1711005214656250
51.06,1711005214671875
46.0,1711005214687500
39.7,1711005214703125
32.34,1711005214718750
24.27,1711005214734375
15.88,1711005214750000
7.52,1711005214765625
-0.49,1711005214781250
-7.98,1711005214796875
-14.92,1711005214812500
-21.56,1711005214828125
-28.3,1711005214843750
-35.58,1711005214859375
-43.65,1711005214875000
-52.37,1711005214890625
-61.3,1711005214906250
-69.86,1711005214921875
-77.68,1711005214937500
-84.74,1711005214953125
-91.4,1711005214968750
-98.22,1711005214984375
-105.83,1711005215000000
-114.74,1711005215015625
-125.32,1711005215031250
-137.61,1711005215046875
-151.07,1711005215062500
-164.4,1711005215078125
-175.44,1711005215093750
-181.63,1711005215109375
-180.64,1711005215125000
-171.1,1711005215140625
-153.08,1711005215156250
-127.96,1711005215171875
-97.95,1711005215187500
-65.38,1711005215203125
-32.21,1711005215218750
0.25,1711005215234375
31.15,1711005215250000
59.87,1711005215265625
85.79,1711005215281250
108.24,1711005215296875
126.58,1711005215312500
140.39,1711005215328125
149.55,1711005215343750
154.35,1711005215359375
155.47,1711005215375000
153.81,1711005215390625
150.38,1711005215406250
146.07,1711005215421875
141.67,1711005215437500
137.72,1711005215453125
134.57,1711005215468750
132.25,1711005215484375
130.4,1711005215500000
128.37,1711005215515625
125.28,1711005215531250
120.39,1711005215546875
113.39,1711005215562500
104.68,1711005215578125
95.2,1711005215593750
86.07,1711005215609375
78.11,1711005215625000
71.49,1711005215640625
65.62,1711005215656250
59.5,1711005215671875
52.29,1711005215687500
43.64,1711005215703125
33.87,1711005215718750
23.76,1711005215734375
14.05,1711005215750000
5.08,1711005215765625
-3.33,1711005215781250
-11.64,1711005215796875
-20.33,1711005215812500
-29.47,1711005215828125
-38.79,1711005215843750
-47.8,1711005215859375
-56.08,1711005215875000
-63.51,1711005215890625
-70.27,1711005215906250
-76.86,1711005215921875
-83.85,1711005215937500
-91.93,1711005215953125
-101.66,1711005215968750
-113.33,1711005215984375
-126.5,1711005216000000
-139.78,1711005216015625
-150.78,1711005216031250
-156.69,1711005216046875
-155.09,1711005216062500
-144.84,1711005216078125
-126.56,1711005216093750
-102.38,1711005216109375
-75.24,1711005216125000
-47.93,1711005216140625
-22.38,1711005216156250
0.55,1711005216171875
20.84,1711005216187500
38.77,1711005216203125
54.49,1711005216218750
67.8,1711005216234375
78.3,1711005216250000
85.67,1711005216265625
89.9,1711005216281250
91.41,1711005216296875
90.86,1711005216312500
88.95,1711005216328125
86.24,1711005216343750
83.05,1711005216359375
79.58,1711005216375000
76.03,1711005216390625
72.64,1711005216406250
69.6,1711005216421875
66.93,1711005216437500
64.33,1711005216453125
61.31,1711005216468750
57.3,1711005216484375
51.96,1711005216500000
45.17,1711005216515625
37.17,1711005216531250
28.48,1711005216546875
19.82,1711005216562500
11.97,1711005216578125
5.53,1711005216593750
0.75,1711005216609375
-2.75,1711005216625000
-5.85,1711005216640625
-9.63,1711005216656250
-14.85,1711005216671875
-21.56,1711005216687500
-29.11,1711005216703125
-36.5,1711005216718750
-42.91,1711005216734375
-48.17,1711005216750000
-52.91,1711005216765625
-58.25,1711005216781250
-65.35,1711005216796875
-74.89,1711005216812500
-86.84,1711005216828125
-100.27,1711005216843750
-113.42,1711005216859375
-124.04,1711005216875000
-129.77,1711005216890625
-128.81,1711005216906250
-120.38,1711005216921875
-105.07,1711005216937500
-84.62,1711005216953125
-61.46,1711005216968750
-37.88,1711005216984375
-15.48,1711005217000000
5.0,1711005217015625
23.49,1711005217031250
40.05,1711005217046875
54.51,1711005217062500
66.45,1711005217078125
75.31,1711005217093750
80.83,1711005217109375
83.28,1711005217125000
83.4,1711005217140625
82.23,1711005217156250
80.73,1711005217171875
79.53,1711005217187500
78.81,1711005217203125
78.33,1711005217218750
77.72,1711005217234375
76.57,1711005217250000
74.67,1711005217265625
72.05,1711005217281250
68.86,1711005217296875
65.3,1711005217312500
61.46,1711005217328125
57.37,1711005217343750
53.04,1711005217359375
48.55,1711005217375000
44.1,1711005217390625
39.99,1711005217406250
36.53,1711005217421875
33.82,1711005217437500
31.75,1711005217453125
29.95,1711005217468750
27.94,1711005217484375
25.25,1711005217500000
21.63,1711005217515625
17.14,1711005217531250
12.09,1711005217546875
6.9,1711005217562500
1.99,1711005217578125
-2.41,1711005217593750
-6.28,1711005217609375
-9.8,1711005217625000
-13.25,1711005217640625
-16.88,1711005217656250
-20.9,1711005217671875
-25.43,1711005217687500
-30.63,1711005217703125
-36.74,1711005217718750
-43.9,1711005217734375
-52.0,1711005217750000
-60.35,1711005217765625
-67.54,1711005217781250
-71.58,1711005217796875
-70.54,1711005217812500
-63.14,1711005217828125
-49.37,1711005217843750
-30.6,1711005217859375
-9.11,1711005217875000
12.58,1711005217890625
32.49,1711005217906250
49.53,1711005217921875
63.43,1711005217937500
74.36,1711005217953125
82.57,1711005217968750
88.2,1711005217984375
91.3,1711005218000000
91.95,1711005218015625
90.41,1711005218031250
87.18,1711005218046875
82.85,1711005218062500
77.99,1711005218078125
72.92,1711005218093750
67.69,1711005218109375
62.03,1711005218125000
55.63,1711005218140625
48.42,1711005218156250
40.72,1711005218171875
33.24,1711005218187500
26.79,1711005218203125
21.81,1711005218218750
18.16,1711005218234375
15.14,1711005218250000
11.73,1711005218265625
7.14,1711005218281250
1.14,1711005218296875
-5.86,1711005218312500
-13.07,1711005218328125
-19.68,1711005218343750
-25.27,1711005218359375
-29.92,1711005218375000
-34.16,1711005218390625
-38.61,1711005218406250
-43.77,1711005218421875
-49.7,1711005218437500
-56.2,1711005218453125
-62.77,1711005218468750
-68.99,1711005218484375
-74.6,1711005218500000
-79.6,1711005218515625
-84.21,1711005218531250
-88.77,1711005218546875
-93.71,1711005218562500
-99.44,1711005218578125
-106.38,1711005218593750
-114.67,1711005218609375
-123.96,1711005218625000
-133.12,1711005218640625
-140.12,1711005218656250
-142.4,1711005218671875
-137.57,1711005218687500
-124.31,1711005218703125
-102.93,1711005218718750
-75.61,1711005218734375
-45.68,1711005218750000
-16.67,1711005218765625
8.8,1711005218781250
29.57,1711005218796875
45.86,1711005218812500
58.61,1711005218828125
68.66,1711005218843750
76.29,1711005218859375
81.23,1711005218875000
83.15,1711005218890625
82.19,1711005218906250
79.17,1711005218921875
75.34,1711005218937500
71.83,1711005218953125
69.09,1711005218968750
66.77,1711005218984375
64.01,1711005219000000
59.95,1711005219015625
54.26,1711005219031250
47.28,1711005219046875
39.8,1711005219062500
32.65,1711005219078125
26.39,1711005219093750
21.08,1711005219109375
16.48,1711005219125000
12.11,1711005219140625
7.58,1711005219156250
2.67,1711005219171875
-2.6,1711005219187500
-8.01,1711005219203125
-13.26,1711005219218750
-18.13,1711005219234375
-22.58,1711005219250000
-26.86,1711005219265625
-31.41,1711005219281250
-36.62,1711005219296875
-42.58,1711005219312500
-49.04,1711005219328125
-55.42,1711005219343750
-61.1,1711005219359375
-65.7,1711005219375000
-69.31,1711005219390625
-72.5,1711005219406250
-76.07,1711005219421875
-80.8,1711005219437500
-87.13,1711005219453125
-95.05,1711005219468750
-104.0,1711005219484375
-112.92,1711005219500000
-120.33,1711005219515625
-124.6,1711005219531250
-124.28,1711005219546875
-118.45,1711005219562500
-107.06,1711005219578125
-90.98,1711005219593750
-71.83,1711005219609375
-51.52,1711005219625000
-31.71,1711005219640625
-13.47,1711005219656250
2.86,1711005219671875
17.33,1711005219687500
30.1,1711005219703125
41.09,1711005219718750
49.98,1711005219734375
56.34,1711005219750000
60.0,1711005219765625
61.18,1711005219781250
60.62,1711005219796875
59.26,1711005219812500
57.97,1711005219828125
57.23,1711005219843750
57.02,1711005219859375
56.94,1711005219875000
56.49,1711005219890625
55.36,1711005219906250
53.52,1711005219921875
51.21,1711005219937500
48.69,1711005219953125
46.14,1711005219968750
43.52,1711005219984375
40.58,1711005220000000
37.02,1711005220015625
32.54,1711005220031250
27.09,1711005220046875
20.79,1711005220062500
14.08,1711005220078125
7.46,1711005220093750
1.41,1711005220109375
-3.91,1711005220125000
-8.76,1711005220140625
-13.73,1711005220156250
-19.52,1711005220171875
-26.51,1711005220187500
-34.61,1711005220203125
-43.28,1711005220218750
-51.73,1711005220234375
-59.37,1711005220250000
-65.97,1711005220265625
-71.78,1711005220281250
-77.28,1711005220296875
-82.99,1711005220312500
-89.43,1711005220328125
-97.01,1711005220343750
-106.01,1711005220359375
-116.31,1711005220375000
-127.1,1711005220390625
-136.73,1711005220406250
-142.99,1711005220421875
-143.69,1711005220437500
-137.56,1711005220453125
-124.65,1711005220468750
-106.4,1711005220484375
-84.93,1711005220500000
-62.31,1711005220515625
-39.86,1711005220531250
-18.14,1711005220546875
2.71,1711005220562500
22.46,1711005220578125
40.45,1711005220593750
55.74,1711005220609375
67.46,1711005220625000
75.13,1711005220640625
78.97,1711005220656250
79.69,1711005220671875
78.38,1711005220687500
76.06,1711005220703125
73.52,1711005220718750
71.1,1711005220734375
68.76,1711005220750000
66.16,1711005220765625
62.94,1711005220781250
58.89,1711005220796875
54.12,1711005220812500
48.87,1711005220828125
43.32,1711005220843750
37.47,1711005220859375
31.04,1711005220875000
23.61,1711005220890625
14.84,1711005220906250
4.71,1711005220921875
-6.43,1711005220937500
-17.95,1711005220953125
-29.1,1711005220968750
-39.35,1711005220984375
-48.53,1711005221000000
-57.05,1711005221015625
-65.6,1711005221031250
-74.99,1711005221046875
-85.6,1711005221062500
-97.2,1711005221078125
-108.95,1711005221093750
-119.67,1711005221109375
-128.42,1711005221125000
-134.82,1711005221140625
-139.17,1711005221156250
-142.28,1711005221171875
-144.99,1711005221187500
-148.09,1711005221203125
-152.09,1711005221218750
-157.5,1711005221234375
-164.61,1711005221250000
-173.19,1711005221265625
-181.91,1711005221281250
-188.17,1711005221296875
-188.51,1711005221312500
-179.76,1711005221328125
-160.41,1711005221343750
-131.31,1711005221359375
-95.55,1711005221375000
-57.22,1711005221390625
-19.85,1711005221406250
14.62,1711005221421875
46.01,1711005221437500
75.0,1711005221453125
102.09,1711005221468750
126.84,1711005221484375
148.02,1711005221500000
164.23,1711005221515625
174.79,1711005221531250
179.97,1711005221546875
180.73,1711005221562500
178.17,1711005221578125
173.02,1711005221593750
165.53,1711005221609375
155.83,1711005221625000
144.34,1711005221640625
131.99,1711005221656250
120.1,1711005221671875
109.84,1711005221687500
101.76,1711005221703125
95.53,1711005221718750
90.13,1711005221734375
84.24,1711005221750000
76.85,1711005221765625
67.57,1711005221781250
56.72,1711005221796875
45.13,1711005221812500
33.59,1711005221828125
22.66,1711005221843750
12.3,1711005221859375
2.05,1711005221875000
-8.72,1711005221890625
-20.39,1711005221906250
-32.89,1711005221921875
-45.61,1711005221937500
-57.64,1711005221953125
-68.17,1711005221968750
-76.79,1711005221984375
-83.77,1711005222000000
-90.1,1711005222015625
-97.26,1711005222031250
-106.73,1711005222046875
-119.31,1711005222062500
-134.51,1711005222078125
-150.11,1711005222093750
-162.41,1711005222109375
-167.13,1711005222125000
-160.56,1711005222140625
-140.71,1711005222156250
-107.83,1711005222171875
-64.44,1711005222187500
-14.6,1711005222203125
36.95,1711005222218750
85.74,1711005222234375
128.22,1711005222250000
162.15,1711005222265625
186.63,1711005222281250
201.84,1711005222296875
208.78,1711005222312500
208.86,1711005222328125
203.75,1711005222343750
195.21,1711005222359375
185.13,1711005222375000
175.31,1711005222390625
167.21,1711005222406250
161.56,1711005222421875
158.21,1711005222437500
156.21,1711005222453125
154.29,1711005222468750
151.35,1711005222484375
146.8,1711005222500000
140.65,1711005222515625
133.15,1711005222531250
124.5,1711005222546875
114.58,1711005222562500
103.03,1711005222578125
89.44,1711005222593750
73.74,1711005222609375
56.45,1711005222625000
38.56,1711005222640625
21.25,1711005222656250
5.48,1711005222671875
-8.38,1711005222687500
-20.8,1711005222703125
-32.84,1711005222718750
-45.87,1711005222734375
-61.18,1711005222750000
-79.46,1711005222765625
-100.41,1711005222781250
-122.36,1711005222796875
-142.36,1711005222812500
-156.52,1711005222828125
-161.12,1711005222843750
-153.65,1711005222859375
-133.89,1711005222875000
-104.12,1711005222890625
-68.49,1711005222906250
-31.77,1711005222921875
2.08,1711005222937500
30.81,1711005222953125
54.0,1711005222968750
72.35,1711005222984375
86.83,1711005223000000
97.86,1711005223015625
105.25,1711005223031250
108.58,1711005223046875
107.81,1711005223062500
103.59,1711005223078125
97.25,1711005223093750
90.37,1711005223109375
84.27,1711005223125000
79.69,1711005223140625
76.68,1711005223156250
74.68,1711005223171875
72.89,1711005223187500
70.43,1711005223203125
66.53,1711005223218750
60.77,1711005223234375
53.07,1711005223250000
43.73,1711005223265625
33.26,1711005223281250
22.14,1711005223296875
10.58,1711005223312500
-1.53,1711005223328125
-14.5,1711005223343750
-28.56,1711005223359375
-43.56,1711005223375000
-58.88,1711005223390625
-73.67,1711005223406250
-87.12,1711005223421875
-98.91,1711005223437500
-109.38,1711005223453125
-119.48,1711005223468750
-130.58,1711005223484375
-144.13,1711005223500000
-161.19,1711005223515625
-182.12,1711005223531250
-206.02,1711005223546875
-230.36,1711005223562500
-251.04,1711005223578125
-263.02,1711005223593750
-261.66,1711005223609375
-244.4,1711005223625000
-211.83,1711005223640625
-167.82,1711005223656250
-118.28,1711005223671875
-69.28,1711005223687500
-25.15,1711005223703125
12.41,1711005223718750
43.86,1711005223734375
70.68,1711005223750000
93.93,1711005223765625
113.64,1711005223781250
129.08,1711005223796875
139.54,1711005223812500
145.18,1711005223828125
147.18,1711005223843750
147.36,1711005223859375
147.33,1711005223875000
147.86,1711005223890625
148.67,1711005223906250
148.87,1711005223921875
147.64,1711005223937500
144.79,1711005223953125
140.93,1711005223968750
137.04,1711005223984375
133.88,1711005224000000
131.37,1711005224015625
128.5,1711005224031250
123.64,1711005224046875
115.35,1711005224062500
103.06,1711005224078125
87.44,1711005224093750
70.24,1711005224109375
53.61,1711005224125000
39.19,1711005224140625
27.46,1711005224156250
17.58,1711005224171875
7.92,1711005224187500
-3.15,1711005224203125
-16.45,1711005224218750
-31.64,1711005224234375
-47.35,1711005224250000
-61.87,1711005224265625
-73.82,1711005224281250
-82.75,1711005224296875
-89.2,1711005224312500
-94.58,1711005224328125
-100.71,1711005224343750
-109.44,1711005224359375
-122.06,1711005224375000
-138.78,1711005224390625
-158.16,1711005224406250
-176.77,1711005224421875
-189.58,1711005224437500
-191.18,1711005224453125
-177.54,1711005224468750
-147.61,1711005224484375
-103.97,1711005224500000
-52.15,1711005224515625
1.37,1711005224531250
51.12,1711005224546875
94.12,1711005224562500
130.14,1711005224578125
160.59,1711005224593750
187.03,1711005224609375
210.01,1711005224625000
228.68,1711005224640625
241.5,1711005224656250
247.11,1711005224671875
245.27,1711005224687500
236.98,1711005224703125
224.1,1711005224718750
208.57,1711005224734375
191.88,1711005224750000
174.9,1711005224765625
158.16,1711005224781250
142.16,1711005224796875
127.52,1711005224812500
114.75,1711005224828125
103.82,1711005224843750
93.89,1711005224859375
83.46,1711005224875000
70.96,1711005224890625
55.43,1711005224906250
37.0,1711005224921875
16.86,1711005224937500
-3.27,1711005224953125
-21.7,1711005224968750
-37.4,1711005224984375
-50.17,1711005225000000
-60.53,1711005225015625
-69.35,1711005225031250
-77.5,1711005225046875
-85.56,1711005225062500
-93.75,1711005225078125
-102.0,1711005225093750
-110.13,1711005225109375
-118.05,1711005225125000
-125.91,1711005225140625
-134.08,1711005225156250
-143.13,1711005225171875
-153.59,1711005225187500
-165.54,1711005225203125
-178.22,1711005225218750
-189.78,1711005225234375
-197.47,1711005225250000
-198.45,1711005225265625
-190.78,1711005225281250
-174.33,1711005225296875
-151.07,1711005225312500
-124.44,1711005225328125
-98.15,1711005225343750
-74.97,1711005225359375
-56.01,1711005225375000
-40.85,1711005225390625
-28.38,1711005225406250
-17.71,1711005225421875
-8.71,1711005225437500
-1.93,1711005225453125
2.0,1711005225468750
2.9,1711005225484375
1.41,1711005225500000
-1.22,1711005225515625
-3.61,1711005225531250
-4.74,1711005225546875
-4.23,1711005225562500
-2.34,1711005225578125
0.37,1711005225593750
3.36,1711005225609375
6.39,1711005225625000
9.56,1711005225640625
13.14,1711005225656250
17.31,1711005225671875
21.89,1711005225687500
26.27,1711005225703125
29.62,1711005225718750
31.24,1711005225734375
30.84,1711005225750000
28.76,1711005225765625
25.79,1711005225781250
22.77,1711005225796875
20.06,1711005225812500
17.34,1711005225828125
13.63,1711005225843750
7.83,1711005225859375
-0.79,1711005225875000
-12.04,1711005225890625
-24.88,1711005225906250
-37.73,1711005225921875
-49.16,1711005225937500
-58.45,1711005225953125
-65.9,1711005225968750
-72.68,1711005225984375
-80.42,1711005226000000
-90.58,1711005226015625
-104.02,1711005226031250
-120.55,1711005226046875
-138.75,1711005226062500
-156.07,1711005226078125
-169.2,1711005226093750
-174.8,1711005226109375
-170.51,1711005226125000
-155.63,1711005226140625
-131.48,1711005226156250
-100.97,1711005226171875
-67.66,1711005226187500
-34.71,1711005226203125
-4.22,1711005226218750
22.94,1711005226234375
46.63,1711005226250000
66.78,1711005226265625
83.03,1711005226281250
94.79,1711005226296875
101.68,1711005226312500
103.98,1711005226328125
102.9,1711005226343750
100.32,1711005226359375
98.19,1711005226375000
97.91,1711005226390625
99.92,1711005226406250
103.74,1711005226421875
108.38,1711005226437500
112.91,1711005226453125
116.9,1711005226468750
120.44,1711005226484375
123.97,1711005226500000
127.62,1711005226515625
131.06,1711005226531250
133.32,1711005226546875
133.22,1711005226562500
129.86,1711005226578125
123.06,1711005226593750
113.6,1711005226609375
102.84,1711005226625000
92.3,1711005226640625
83.06,1711005226656250
75.43,1711005226671875
68.93,1711005226687500
62.67,1711005226703125
55.76,1711005226718750
47.79,1711005226734375
38.82,1711005226750000
29.4,1711005226765625
20.22,1711005226781250
11.76,1711005226796875
4.16,1711005226812500
-2.98,1711005226828125
-10.48,1711005226843750
-19.45,1711005226859375
-31.02,1711005226875000
-45.91,1711005226890625
-63.96,1711005226906250
-83.71,1711005226921875
-102.45,1711005226937500
-116.74,1711005226953125
-123.33,1711005226968750
-120.25,1711005226984375
-107.54,1711005227000000
-87.21,1711005227015625
-62.66,1711005227031250
-37.51,1711005227046875
-14.64,1711005227062500
4.36,1711005227078125
19.16,1711005227093750
30.06,1711005227109375
37.46,1711005227125000
41.47,1711005227140625
42.04,1711005227156250
39.28,1711005227171875
33.88,1711005227187500
27.12,1711005227203125
20.58,1711005227218750
15.63,1711005227234375
12.86,1711005227250000
11.94,1711005227265625
11.83,1711005227281250
11.36,1711005227296875
9.73,1711005227312500
6.83,1711005227328125
3.16,1711005227343750
-0.5,1711005227359375
-3.46,1711005227375000
-5.57,1711005227390625
-7.21,1711005227406250
-9.24,1711005227421875
-12.63,1711005227437500
-18.12,1711005227453125
-25.81,1711005227468750
-35.13,1711005227484375
-45.07,1711005227500000
-54.53,1711005227515625
-62.85,1711005227531250
-69.97,1711005227546875
-76.47,1711005227562500
-83.32,1711005227578125
-91.48,1711005227593750
-101.69,1711005227609375
-114.17,1711005227625000
-128.36,1711005227640625
-142.72,1711005227656250
-154.74,1711005227671875
-161.27,1711005227687500
-159.39,1711005227703125
-147.29,1711005227718750
-125.07,1711005227734375
-94.85,1711005227750000
-60.11,1711005227765625
-24.62,1711005227781250
8.6,1711005227796875
37.87,1711005227812500
62.69,1711005227828125
83.19,1711005227843750
99.46,1711005227859375
111.23,1711005227875000
118.04,1711005227890625
119.76,1711005227906250
117.03,1711005227921875
111.4,1711005227937500
104.93,1711005227953125
99.54,1711005227968750
96.25,1711005227984375
94.97,1711005228000000
94.7,1711005228015625
94.18,1711005228031250
92.5,1711005228046875
89.42,1711005228062500
85.27,1711005228078125
80.53,1711005228093750
75.38,1711005228109375
69.44,1711005228125000
61.96,1711005228140625
52.14,1711005228156250
39.56,1711005228171875
24.5,1711005228187500
7.97,1711005228203125
-8.63,1711005228218750
-23.89,1711005228234375
-36.99,1711005228250000
-47.94,1711005228265625
-57.54,1711005228281250
-67.03,1711005228296875
-77.61,1711005228312500
-90.11,1711005228328125
-104.93,1711005228343750
-122.0,1711005228359375
-140.64,1711005228375000
-159.29,1711005228390625
-175.24,1711005228406250
-184.87,1711005228421875
-184.53,1711005228437500
-171.82,1711005228453125
-146.75,1711005228468750
-112.04,1711005228484375
-72.35,1711005228500000
-32.82,1711005228515625
2.6,1711005228531250
31.95,1711005228546875
55.25,1711005228562500
73.65,1711005228578125
88.4,1711005228593750
100.32,1711005228609375
109.49,1711005228625000
115.73,1711005228640625
118.99,1711005228656250
119.6,1711005228671875
118.33,1711005228687500
116.1,1711005228703125
113.66,1711005228718750
111.39,1711005228734375
109.3,1711005228750000
107.2,1711005228765625
104.96,1711005228781250
102.61,1711005228796875
100.25,1711005228812500
97.8,1711005228828125
94.84,1711005228843750
90.6,1711005228859375
84.26,1711005228875000
75.33,1711005228890625
63.99,1711005228906250
51.16,1711005228921875
38.09,1711005228937500
25.89,1711005228953125
15.0,1711005228968750
5.06,1711005228984375
-4.9,1711005229000000
-15.83,1711005229015625
-28.18,1711005229031250
-41.59,1711005229046875
-55.04,1711005229062500
-67.41,1711005229078125
-78.05,1711005229093750
-87.16,1711005229109375
-95.79,1711005229125000
-105.53,1711005229140625
-117.85,1711005229156250
-133.55,1711005229171875
-152.19,1711005229187500
-171.72,1711005229203125
-188.61,1711005229218750
-198.47,1711005229234375
-197.23,1711005229250000
-182.53,1711005229265625
-154.71,1711005229281250
-116.96,1711005229296875
-74.32,1711005229312500
-32.06,1711005229328125
5.89,1711005229343750
37.74,1711005229359375
63.63,1711005229375000
84.65,1711005229390625
101.82,1711005229406250
115.45,1711005229421875
125.27,1711005229437500
130.99,1711005229453125
132.8,1711005229468750
131.67,1711005229484375
129.04,1711005229500000
126.39,1711005229515625
124.68,1711005229531250
124.13,1711005229546875
124.27,1711005229562500
124.26,1711005229578125
123.35,1711005229593750
121.16,1711005229609375
117.74,1711005229625000
113.41,1711005229640625
108.44,1711005229656250
102.85,1711005229671875
96.32,1711005229687500
88.37,1711005229703125
78.64,1711005229718750
67.12,1711005229734375
54.17,1711005229750000
40.49,1711005229765625
26.88,1711005229781250
13.99,1711005229796875
2.18,1711005229812500
-8.51,1711005229828125
-18.46,1711005229843750
-28.26,1711005229859375
-38.61,1711005229875000
-50.01,1711005229890625
-62.53,1711005229906250
-75.69,1711005229921875
-88.63,1711005229937500
-100.44,1711005229953125
-110.52,1711005229968750
-118.91,1711005229984375
-126.33,1711005230000000
-134.06,1711005230015625
-143.65,1711005230031250
-156.49,1711005230046875
-173.38,1711005230062500
-193.83,1711005230078125
-215.67,1711005230093750
-234.81,1711005230109375
-246.1,1711005230125000
-244.73,1711005230140625
-227.96,1711005230156250
-196.47,1711005230171875
-154.26,1711005230187500
-107.47,1711005230203125
-62.25,1711005230218750
-22.97,1711005230234375
8.68,1711005230250000
33.33,1711005230265625
52.72,1711005230281250
68.48,1711005230296875
81.36,1711005230312500
91.35,1711005230328125
98.1,1711005230343750
101.63,1711005230359375
102.55,1711005230375000
101.95,1711005230390625
101.06,1711005230406250
100.78,1711005230421875
101.4,1711005230437500
102.55,1711005230453125
103.54,1711005230468750
103.67,1711005230484375
102.61,1711005230500000
100.48,1711005230515625
97.7,1711005230531250
94.61,1711005230546875
91.18,1711005230562500
86.91,1711005230578125
81.04,1711005230593750
73.01,1711005230609375
62.84,1711005230625000
51.32,1711005230640625
39.91,1711005230656250
30.15,1711005230671875
23.14,1711005230687500
19.04,1711005230703125
17.01,1711005230718750
15.46,1711005230734375
12.78,1711005230750000
7.82,1711005230765625
0.35,1711005230781250
-8.97,1711005230796875
-18.97,1711005230812500
-28.51,1711005230828125
-36.93,1711005230843750
-44.3,1711005230859375
-51.41,1711005230875000
-59.46,1711005230890625
-69.77,1711005230906250
-83.48,1711005230921875
-101.16,1711005230937500
-122.37,1711005230953125
-145.29,1711005230968750
-166.56,1711005230984375
-181.77,1711005231000000
-186.59,1711005231015625
-178.12,1711005231031250
-156.16,1711005231046875
-123.34,1711005231062500
-84.4,1711005231078125
-44.55,1711005231093750
-7.97,1711005231109375
23.12,1711005231125000
48.33,1711005231140625
68.27,1711005231156250
83.68,1711005231171875
94.87,1711005231187500
101.89,1711005231203125
104.97,1711005231218750
104.94,1711005231234375
103.12,1711005231250000
100.99,1711005231265625
99.64,1711005231281250
99.46,1711005231296875
100.12,1711005231312500
100.94,1711005231328125
101.34,1711005231343750
101.04,1711005231359375
100.13,1711005231375000
98.79,1711005231390625
97.0,1711005231406250
94.49,1711005231421875
90.73,1711005231437500
85.3,1711005231453125
78.08,1711005231468750
69.3,1711005231484375
59.35,1711005231500000
48.63,1711005231515625
37.3,1711005231531250
25.3,1711005231546875
12.58,1711005231562500
-0.72,1711005231578125
-14.17,1711005231593750
-27.2,1711005231609375
-39.32,1711005231625000
-50.44,1711005231640625
-60.88,1711005231656250
-71.31,1711005231671875
-82.58,1711005231687500
-95.55,1711005231703125
-110.91,1711005231718750
-128.87,1711005231734375
-148.61,1711005231750000
-167.91,1711005231765625
-183.11,1711005231781250
-189.9,1711005231796875
-184.62,1711005231812500
-165.79,1711005231828125
-134.91,1711005231843750
-96.23,1711005231859375
-55.3,1711005231875000
-17.22,1711005231890625
14.84,1711005231906250
40.05,1711005231921875
59.37,1711005231937500
74.28,1711005231953125
85.97,1711005231968750
94.89,1711005231984375
101.0,1711005232000000
104.35,1711005232015625
105.35,1711005232031250
104.85,1711005232046875
103.82,1711005232062500
102.99,1711005232078125
102.6,1711005232093750
102.36,1711005232109375
101.65,1711005232125000
99.86,1711005232140625
96.6,1711005232156250
91.79,1711005232171875
85.65,1711005232187500
78.44,1711005232203125
70.4,1711005232218750
61.58,1711005232234375
52.01,1711005232250000
41.74,1711005232265625
30.87,1711005232281250
19.54,1711005232296875
7.79,1711005232312500
-4.46,1711005232328125
-17.31,1711005232343750
-30.66,1711005232359375
-44.16,1711005232375000
-57.21,1711005232390625
-69.22,1711005232406250
-80.0,1711005232421875
-89.91,1711005232437500
-99.97,1711005232453125
-111.56,1711005232468750
-126.07,1711005232484375
-144.25,1711005232500000
-165.67,1711005232515625
-188.2,1711005232531250
-208.02,1711005232546875
-220.37,1711005232562500
-220.95,1711005232578125
-207.44,1711005232593750
-180.53,1711005232609375
-143.86,1711005232625000
-102.76,1711005232640625
-62.48,1711005232656250
-26.64,1711005232671875
3.42,1711005232687500
28.12,1711005232703125
48.71,1711005232718750
66.14,1711005232734375
80.63,1711005232750000
91.87,1711005232765625
99.53,1711005232781250
103.8,1711005232796875
105.48,1711005232812500
105.75,1711005232828125
105.67,1711005232843750
105.79,1711005232859375
106.05,1711005232875000
105.98,1711005232890625
105.21,1711005232906250
103.77,1711005232921875
102.09,1711005232937500
100.65,1711005232953125
99.55,1711005232968750
98.23,1711005232984375
95.61,1711005233000000
90.57,1711005233015625
82.62,1711005233031250
72.09,1711005233046875
60.16,1711005233062500
48.24,1711005233078125
37.46,1711005233093750
28.18,1711005233109375
19.93,1711005233125000
11.69,1711005233140625
2.36,1711005233156250
-8.72,1711005233171875
-21.51,1711005233187500
-35.29,1711005233203125
-48.96,1711005233218750
-61.5,1711005233234375
-72.39,1711005233250000
-81.86,1711005233265625
-90.86,1711005233281250
-100.92,1711005233296875
-113.6,1711005233312500
-129.89,1711005233328125
-149.44,1711005233343750
-170.17,1711005233359375
-188.29,1711005233375000
-199.21,1711005233390625
-198.92,1711005233406250
-185.43,1711005233421875
-159.52,1711005233437500
-124.52,1711005233453125
-85.14,1711005233468750
-45.91,1711005233484375
-10.09,1711005233500000
20.82,1711005233515625
46.64,1711005233531250
67.86,1711005233546875
84.99,1711005233562500
98.27,1711005233578125
107.75,1711005233593750
113.6,1711005233609375
116.28,1711005233625000
116.62,1711005233640625
115.71,1711005233656250
114.63,1711005233671875
114.12,1711005233687500
114.3,1711005233703125
114.76,1711005233718750
114.74,1711005233734375
113.58,1711005233750000
111.1,1711005233765625
107.6,1711005233781250
103.63,1711005233796875
99.57,1711005233812500
95.3,1711005233828125
90.2,1711005233843750
83.49,1711005233859375
74.64,1711005233875000
63.67,1711005233890625
51.26,1711005233906250
38.48,1711005233921875
26.43,1711005233937500
15.84,1711005233953125
6.74,1711005233968750
-1.44,1711005233984375
-9.69,1711005234000000
-18.94,1711005234015625
-29.55,1711005234031250
-41.18,1711005234046875
-52.9,1711005234062500
-63.63,1711005234078125
-72.67,1711005234093750
-80.07,1711005234109375
-86.68,1711005234125000
-93.84,1711005234140625
-102.94,1711005234156250
-115.04,1711005234171875
-130.51,1711005234187500
-148.71,1711005234203125
-167.77,1711005234218750
-184.58,1711005234234375
-195.31,1711005234250000
-196.37,1711005234265625
-185.6,1711005234281250
-163.22,1711005234296875
-131.89,1711005234312500
-95.89,1711005234328125
-59.66,1711005234343750
-26.4,1711005234359375
2.52,1711005234375000
27.37,1711005234390625
49.15,1711005234406250
68.53,1711005234421875
85.42,1711005234437500
99.09,1711005234453125
108.8,1711005234468750
114.41,1711005234484375
116.65,1711005234500000
116.86,1711005234515625
116.4,1711005234531250
116.17,1711005234546875
116.29,1711005234562500
116.29,1711005234578125
115.6,1711005234593750
114.01,1711005234609375
111.86,1711005234625000
109.73,1711005234640625
108.06,1711005234656250
106.65,1711005234671875
104.64,1711005234687500
100.82,1711005234703125
94.21,1711005234718750
84.55,1711005234734375
72.54,1711005234750000
59.52,1711005234765625
47.04,1711005234781250
36.23,1711005234796875
27.41,1711005234812500
20.04,1711005234828125
13.0,1711005234843750
5.14,1711005234859375
-4.26,1711005234875000
-15.21,1711005234890625
-27.02,1711005234906250
-38.65,1711005234921875
-49.16,1711005234937500
-58.11,1711005234953125
-65.7,1711005234968750
-72.78,1711005234984375
-80.58,1711005235000000
-90.35,1711005235015625
-102.96,1711005235031250
-118.39,1711005235046875
-135.39,1711005235062500
-151.4,1711005235078125
-163.01,1711005235093750
-166.78,1711005235109375
-160.37,1711005235125000
-143.44,1711005235140625
-117.88,1711005235156250
-87.23,1711005235171875
-55.48,1711005235187500
-25.85,1711005235203125
-0.01,1711005235218750
21.81,1711005235234375
40.25,1711005235250000
55.85,1711005235265625
68.59,1711005235281250
77.94,1711005235296875
83.34,1711005235312500
84.83,1711005235328125
83.34,1711005235343750
80.48,1711005235359375
77.95,1711005235375000
76.93,1711005235390625
77.65,1711005235406250
79.53,1711005235421875
81.59,1711005235437500
82.92,1711005235453125
83.03,1711005235468750
81.89,1711005235484375
79.65,1711005235500000
76.43,1711005235515625
72.18,1711005235531250
66.73,1711005235546875
59.89,1711005235562500
51.58,1711005235578125
41.89,1711005235593750
30.97,1711005235609375
19.05,1711005235625000
6.36,1711005235640625
-6.77,1711005235656250
-19.87,1711005235671875
-32.35,1711005235687500
-43.68,1711005235703125
-53.54,1711005235718750
-62.06,1711005235734375
-69.92,1711005235750000
-78.22,1711005235765625
-88.23,1711005235781250
-100.96,1711005235796875
-116.64,1711005235812500
-134.32,1711005235828125
-151.72,1711005235843750
-165.56,1711005235859375
-172.43,1711005235875000
-169.72,1711005235890625
-156.52,1711005235906250
-133.92,1711005235921875
-104.69,1711005235937500
-72.38,1711005235953125
-40.33,1711005235968750
-10.86,1711005235984375
14.95,1711005236000000
37.06,1711005236015625
55.88,1711005236031250
71.7,1711005236046875
84.53,1711005236062500
94.08,1711005236078125
100.2,1711005236093750
103.15,1711005236109375
103.72,1711005236125000
103.06,1711005236140625
102.24,1711005236156250
101.9,1711005236171875
102.09,1711005236187500
102.45,1711005236203125
102.58,1711005236218750
102.35,1711005236234375
101.85,1711005236250000
101.25,1711005236265625
100.4,1711005236281250
98.69,1711005236296875
95.23,1711005236312500
89.18,1711005236328125
80.33,1711005236343750
69.3,1711005236359375
57.4,1711005236375000
46.1,1711005236390625
36.43,1711005236406250
28.53,1711005236421875
21.62,1711005236437500
14.46,1711005236453125
5.89,1711005236468750
-4.58,1711005236484375
-16.66,1711005236500000
-29.43,1711005236515625
-41.79,1711005236531250
-52.86,1711005236546875
-62.36,1711005236562500
-70.56,1711005236578125
-78.32,1711005236593750
-86.85,1711005236609375
-97.46,1711005236625000
-111.17,1711005236640625
-128.1,1711005236656250
-147.05,1711005236671875
-165.26,1711005236687500
-178.9,1711005236703125
-184.01,1711005236718750
-177.84,1711005236734375
-159.87,1711005236750000
-132.04,1711005236765625
-98.2,1711005236781250
-62.76,1711005236796875
-29.41,1711005236812500
-0.22,1711005236828125
24.47,1711005236843750
45.44,1711005236859375
63.74,1711005236875000
79.9,1711005236890625
93.76,1711005236906250
104.62,1711005236921875
111.82,1711005236937500
115.16,1711005236953125
115.15,1711005236968750
112.83,1711005236984375
109.4,1711005237000000
105.83,1711005237015625
102.59,1711005237031250
99.69,1711005237046875
96.8,1711005237062500
93.55,1711005237078125
89.7,1711005237093750
85.23,1711005237109375
80.22,1711005237125000
74.73,1711005237140625
68.76,1711005237156250
62.29,1711005237171875
55.28,1711005237187500
47.79,1711005237203125
39.91,1711005237218750
31.74,1711005237234375
23.32,1711005237250000
14.75,1711005237265625
6.21,1711005237281250
-2.0,1711005237296875
-9.5,1711005237312500
-16.03,1711005237328125
-21.73,1711005237343750
-27.13,1711005237359375
-33.02,1711005237375000
-40.13,1711005237390625
-48.73,1711005237406250
-58.47,1711005237421875
-68.5,1711005237437500
-77.91,1711005237453125
-86.14,1711005237468750
-93.31,1711005237484375
-100.19,1711005237500000
-108.03,1711005237515625
-118.12,1711005237531250
-131.43,1711005237546875
-148.12,1711005237562500
-167.22,1711005237578125
-186.33,1711005237593750
-201.92,1711005237609375
-210.0,1711005237625000
-207.3,1711005237640625
-192.41,1711005237656250
-166.38,1711005237671875
-132.5,1711005237687500
-95.13,1711005237703125
-58.43,1711005237718750
-25.15,1711005237734375
3.67,1711005237750000
28.3,1711005237765625
49.5,1711005237781250
67.76,1711005237796875
83.01,1711005237812500
94.82,1711005237828125
102.88,1711005237843750
107.39,1711005237859375
109.16,1711005237875000
109.29,1711005237890625
108.78,1711005237906250
108.18,1711005237921875
107.48,1711005237937500
106.31,1711005237953125
104.37,1711005237968750
101.72,1711005237984375
98.78,1711005238000000
96.12,1711005238015625
93.97,1711005238031250
92.04,1711005238046875
89.48,1711005238062500
85.38,1711005238078125
79.19,1711005238093750
71.09,1711005238109375
61.9,1711005238125000
52.71,1711005238140625
44.34,1711005238156250
36.91,1711005238171875
29.84,1711005238187500
22.13,1711005238203125
12.9,1711005238218750
1.79,1711005238234375
-10.85,1711005238250000
-24.02,1711005238265625
-36.61,1711005238281250
-47.72,1711005238296875
-57.1,1711005238312500
-65.28,1711005238328125
-73.43,1711005238343750
-83.03,1711005238359375
-95.37,1711005238375000
-111.09,1711005238390625
-129.54,1711005238406250
-148.7,1711005238421875
-165.31,1711005238437500
-175.62,1711005238453125
-176.45,1711005238468750
-166.19,1711005238484375
-145.48,1711005238500000
-116.95,1711005238515625
-84.45,1711005238531250
-51.72,1711005238546875
-21.44,1711005238562500
5.3,1711005238578125
28.69,1711005238593750
49.43,1711005238609375
67.99,1711005238625000
84.21,1711005238640625
97.43,1711005238656250
106.93,1711005238671875
112.57,1711005238687500
114.93,1711005238703125
115.22,1711005238718750
114.79,1711005238734375
114.55,1711005238750000
114.82,1711005238765625
115.28,1711005238781250
115.41,1711005238796875
114.81,1711005238812500
113.38,1711005238828125
111.24,1711005238843750
108.54,1711005238859375
105.3,1711005238875000
101.3,1711005238890625
96.29,1711005238906250
90.05,1711005238921875
82.56,1711005238937500
73.91,1711005238953125
64.38,1711005238968750
54.36,1711005238984375
44.29,1711005239000000
34.63,1711005239015625
25.73,1711005239031250
17.65,1711005239046875
10.07,1711005239062500
2.42,1711005239078125
-5.89,1711005239093750
-15.23,1711005239109375
-25.6,1711005239125000
-36.64,1711005239140625
-47.78,1711005239156250
-58.55,1711005239171875
-68.64,1711005239187500
-78.05,1711005239203125
-87.04,1711005239218750
-96.13,1711005239234375
-106.08,1711005239250000
-117.8,1711005239265625
-132.08,1711005239281250
-149.16,1711005239296875
-168.26,1711005239312500
-187.17,1711005239328125
-202.52,1711005239343750
-210.45,1711005239359375
-207.85,1711005239375000
-193.37,1711005239390625
-168.05,1711005239406250
-134.91,1711005239421875
-98.04,1711005239437500
-61.34,1711005239453125
-27.44,1711005239468750
2.52,1711005239484375
28.61,1711005239500000
51.43,1711005239515625
71.47,1711005239531250
88.8,1711005239546875
103.17,1711005239562500
114.29,1711005239578125
122.12,1711005239593750
127.04,1711005239609375
129.71,1711005239625000
130.91,1711005239640625
131.28,1711005239656250
131.21,1711005239671875
130.86,1711005239687500
130.25,1711005239703125
129.37,1711005239718750
128.21,1711005239734375
126.74,1711005239750000
124.76,1711005239765625
121.91,1711005239781250
117.78,1711005239796875
112.06,1711005239812500
104.72,1711005239828125
96.15,1711005239843750
86.96,1711005239859375
77.78,1711005239875000
68.97,1711005239890625
60.55,1711005239906250
52.25,1711005239921875
43.75,1711005239937500
34.92,1711005239953125
25.86,1711005239968750
16.88,1711005239984375
8.2,1711005240000000
-0.13,1711005240015625
-8.31,1711005240031250
-16.76,1711005240046875
-25.84,1711005240062500
-35.76,1711005240078125
-46.44,1711005240093750
-57.55,1711005240109375
-68.63,1711005240125000
-79.28,1711005240140625
-89.41,1711005240156250
-99.24,1711005240171875
-109.49,1711005240187500
-121.13,1711005240203125
-135.15,1711005240218750
-151.98,1711005240234375
-170.99,1711005240250000
-190.09,1711005240265625
-205.85,1711005240281250
-214.34,1711005240296875
-212.19,1711005240312500
-197.93,1711005240328125
-172.46,1711005240343750
-138.93,1711005240359375
-101.6,1711005240375000
-64.6,1711005240390625
-30.83,1711005240406250
-1.57,1711005240421875
23.12,1711005240437500
43.78,1711005240453125
60.85,1711005240468750
74.47,1711005240484375
84.59,1711005240500000
91.32,1711005240515625
95.1,1711005240531250
96.65,1711005240546875
96.86,1711005240562500
96.45,1711005240578125
95.89,1711005240593750
95.34,1711005240609375
94.83,1711005240625000
94.29,1711005240640625
93.77,1711005240656250
93.3,1711005240671875
92.81,1711005240687500
91.97,1711005240703125
90.15,1711005240718750
86.66,1711005240734375
80.92,1711005240750000
72.85,1711005240765625
62.95,1711005240781250
52.13,1711005240796875
41.35,1711005240812500
31.23,1711005240828125
21.74,1711005240843750
12.36,1711005240859375
2.36,1711005240875000
-8.73,1711005240890625
-20.79,1711005240906250
-33.17,1711005240921875
-44.95,1711005240937500
-55.39,1711005240953125
-64.37,1711005240968750
-72.47,1711005240984375
-80.9,1711005241000000
-91.07,1711005241015625
-104.12,1711005241031250
-120.37,1711005241046875
-138.87,1711005241062500
-157.21,1711005241078125
-171.91,1711005241093750
-179.2,1711005241109375
-176.14,1711005241125000
-161.66,1711005241140625
-136.98,1711005241156250
-105.35,1711005241171875
-70.85,1711005241187500
-37.26,1711005241203125
-7.04,1711005241218750
18.98,1711005241234375
41.09,1711005241250000
59.95,1711005241265625
75.9,1711005241281250
88.8,1711005241296875
98.18,1711005241312500
103.86,1711005241328125
106.19,1711005241343750
106.1,1711005241359375
104.83,1711005241375000
103.41,1711005241390625
102.37,1711005241406250
101.62,1711005241421875
100.75,1711005241437500
99.28,1711005241453125
97.13,1711005241468750
94.57,1711005241484375
92.06,1711005241500000
89.87,1711005241515625
87.72,1711005241531250
84.81,1711005241546875
80.06,1711005241562500
72.71,1711005241578125
62.69,1711005241593750
50.85,1711005241609375
38.58,1711005241625000
27.25,1711005241640625
17.53,1711005241656250
9.14,1711005241671875
0.99,1711005241687500
-8.21,1711005241703125
-19.35,1711005241718750
-32.42,1711005241734375
-46.53,1711005241750000
-60.32,1711005241765625
-72.54,1711005241781250
-82.59,1711005241796875
-90.75,1711005241812500
-98.07,1711005241828125
-106.07,1711005241843750
-116.25,1711005241859375
-129.69,1711005241875000
-146.53,1711005241890625
-165.7,1711005241906250
-184.7,1711005241921875
-199.85,1711005241937500
-207.16,1711005241953125
-203.45,1711005241968750
-187.49,1711005241984375
-160.52,1711005242000000
-125.96,1711005242015625
-88.26,1711005242031250
-51.54,1711005242046875
-18.44,1711005242062500
10.13,1711005242078125
34.55,1711005242093750
55.64,1711005242109375
73.9,1711005242125000
89.32,1711005242140625
101.52,1711005242156250
110.29,1711005242171875
115.87,1711005242187500
119.01,1711005242203125
120.71,1711005242218750
121.86,1711005242234375
123.0,1711005242250000
124.19,1711005242265625
125.15,1711005242281250
125.49,1711005242296875
124.99,1711005242312500
123.67,1711005242328125
121.78,1711005242343750
119.65,1711005242359375
117.44,1711005242375000
115.02,1711005242390625
111.9,1711005242406250
107.48,1711005242421875
101.24,1711005242437500
93.1,1711005242453125
83.4,1711005242468750
72.87,1711005242484375
62.36,1711005242500000
52.56,1711005242515625
43.78,1711005242531250
35.84,1711005242546875
28.2,1711005242562500
20.11,1711005242578125
10.92,1711005242593750
0.29,1711005242609375
-11.67,1711005242625000
-24.39,1711005242640625
-37.16,1711005242656250
-49.34,1711005242671875
-60.71,1711005242687500
-71.48,1711005242703125
-82.31,1711005242718750
-94.17,1711005242734375
-108.09,1711005242750000
-124.94,1711005242765625
-144.96,1711005242781250
-167.27,1711005242796875
-189.47,1711005242812500
-207.84,1711005242828125
-218.22,1711005242843750
-217.31,1711005242859375
-203.85,1711005242875000
-179.2,1711005242890625
-146.78,1711005242906250
-110.9,1711005242921875
-75.35,1711005242937500
-42.56,1711005242953125
-13.45,1711005242968750
11.96,1711005242984375
33.92,1711005243000000
52.45,1711005243015625
67.22,1711005243031250
77.98,1711005243046875
84.82,1711005243062500
88.46,1711005243078125
90.03,1711005243093750
90.83,1711005243109375
91.81,1711005243125000
93.27,1711005243140625
94.83,1711005243156250
95.75,1711005243171875
95.39,1711005243187500
93.59,1711005243203125
90.72,1711005243218750
87.35,1711005243234375
83.92,1711005243250000
80.35,1711005243265625
76.1,1711005243281250
70.43,1711005243296875
62.85,1711005243312500
53.43,1711005243328125
42.87,1711005243343750
32.25,1711005243359375
22.57,1711005243375000
14.32,1711005243390625
7.19,1711005243406250
0.21,1711005243421875
-7.89,1711005243437500
-18.14,1711005243453125
-30.77,1711005243468750
-45.14,1711005243484375
-59.89,1711005243500000
-73.5,1711005243515625
-84.84,1711005243531250
-93.57,1711005243546875
-100.25,1711005243562500
-106.09,1711005243578125
-112.65,1711005243593750
-121.38,1711005243609375
-133.25,1711005243625000
-148.36,1711005243640625
-165.65,1711005243656250
-182.76,1711005243671875
-196.35,1711005243687500
-202.78,1711005243703125
-199.14,1711005243718750
-184.21,1711005243734375
-158.92,1711005243750000
-126.17,1711005243765625
-89.91,1711005243781250
-53.97,1711005243796875
-21.08,1711005243812500
7.59,1711005243828125
32.09,1711005243843750
53.06,1711005243859375
70.9,1711005243875000
85.5,1711005243890625
96.33,1711005243906250
102.99,1711005243921875
105.62,1711005243937500
105.12,1711005243953125
102.89,1711005243968750
100.31,1711005243984375
98.36,1711005244000000
97.34,1711005244015625
96.91,1711005244031250
96.54,1711005244046875
95.71,1711005244062500
94.17,1711005244078125
91.84,1711005244093750
88.76,1711005244109375
84.87,1711005244125000
79.98,1711005244140625
73.8,1711005244156250
66.12,1711005244171875
56.85,1711005244187500
46.12,1711005244203125
34.25,1711005244218750
21.66,1711005244234375
8.83,1711005244250000
-3.86,1711005244265625
-16.1,1711005244281250
-27.7,1711005244296875
-38.59,1711005244312500
-48.88,1711005244328125
-58.99,1711005244343750
-69.65,1711005244359375
-81.82,1711005244375000
-96.38,1711005244390625
-113.66,1711005244406250
-132.83,1711005244421875
-151.76,1711005244437500
-167.15,1711005244453125
-175.3,1711005244468750
-173.29,1711005244484375
-159.9,1711005244500000
-136.24,1711005244515625
-105.36,1711005244531250
-71.28,1711005244546875
-37.63,1711005244562500
-6.75,1711005244578125
20.53,1711005244593750
44.47,1711005244609375
65.5,1711005244625000
83.62,1711005244640625
98.23,1711005244656250
108.5,1711005244671875
113.92,1711005244687500
114.71,1711005244703125
111.77,1711005244718750
106.41,1711005244734375
99.98,1711005244750000
93.51,1711005244765625
87.7,1711005244781250
82.91,1711005244796875
79.32,1711005244812500
76.86,1711005244828125
75.29,1711005244843750
74.08,1711005244859375
72.5,1711005244875000
69.78,1711005244890625
65.23,1711005244906250
58.46,1711005244921875
49.53,1711005244937500
38.89,1711005244953125
27.18,1711005244968750
14.97,1711005244984375
2.6,1711005245000000
-9.92,1711005245015625
-22.67,1711005245031250
-35.65,1711005245046875
-48.51,1711005245062500
-60.74,1711005245078125
-71.89,1711005245093750
-81.9,1711005245109375
-91.17,1711005245125000
-100.55,1711005245140625
-111.09,1711005245156250
-123.72,1711005245171875
-138.94,1711005245187500
-156.46,1711005245203125
-174.9,1711005245218750
-191.64,1711005245234375
-203.2,1711005245250000
-206.01,1711005245265625
-197.68,1711005245281250
-177.92,1711005245296875
-148.84,1711005245312500
-114.31,1711005245328125
-78.63,1711005245343750
-45.11,1711005245359375
-15.35,1711005245375000
10.74,1711005245390625
34.11,1711005245406250
55.63,1711005245421875
75.52,1711005245437500
93.22,1711005245453125
107.86,1711005245468750
118.78,1711005245484375
125.9,1711005245500000
129.85,1711005245515625
131.67,1711005245531250
132.41,1711005245546875
132.76,1711005245562500
132.89,1711005245578125
132.61,1711005245593750
131.64,1711005245609375
129.93,1711005245625000
127.71,1711005245640625
125.25,1711005245656250
122.65,1711005245671875
119.61,1711005245687500
115.51,1711005245703125
109.71,1711005245718750
101.83,1711005245734375
92.04,1711005245750000
80.91,1711005245765625
69.27,1711005245781250
57.95,1711005245796875
47.53,1711005245812500
38.2,1711005245828125
29.73,1711005245843750
21.49,1711005245859375
12.67,1711005245875000
2.62,1711005245890625
-8.79,1711005245906250
-21.15,1711005245921875
-33.52,1711005245937500
-45.01,1711005245953125
-55.16,1711005245968750
-64.18,1711005245984375
-72.94,1711005246000000
-82.61,1711005246015625
-94.42,1711005246031250
-109.29,1711005246046875
-127.52,1711005246062500
-148.41,1711005246078125
-169.97,1711005246093750
-188.85,1711005246109375
-201.01,1711005246125000
-202.79,1711005246140625
-192.25,1711005246156250
-169.89,1711005246171875
-138.57,1711005246187500
-102.5,1711005246203125
-65.78,1711005246218750
-31.35,1711005246234375
-0.47,1711005246250000
26.85,1711005246265625
51.03,1711005246281250
72.3,1711005246296875
90.4,1711005246312500
104.83,1711005246328125
115.21,1711005246343750
121.63,1711005246359375
124.68,1711005246375000
125.27,1711005246390625
124.28,1711005246406250
122.3,1711005246421875
119.66,1711005246437500
116.48,1711005246453125
112.92,1711005246468750
109.26,1711005246484375
105.88,1711005246500000
102.98,1711005246515625
100.48,1711005246531250
97.86,1711005246546875
94.31,1711005246562500
89.09,1711005246578125
81.8,1711005246593750
72.57,1711005246609375
62.05,1711005246625000
51.14,1711005246640625
40.63,1711005246656250
30.94,1711005246671875
22.0,1711005246687500
13.26,1711005246703125
4.07,1711005246718750
-6.13,1711005246734375
-17.41,1711005246750000
-29.36,1711005246765625
-41.27,1711005246781250
-52.36,1711005246796875
-62.12,1711005246812500
-70.48,1711005246828125
-77.89,1711005246843750
-85.27,1711005246859375
-93.9,1711005246875000
-105.09,1711005246890625
-119.67,1711005246906250
-137.32,1711005246921875
-156.13,1711005246937500
-172.71,1711005246953125
-182.94,1711005246968750
-183.31,1711005246984375
-172.14,1711005247000000
-150.25,1711005247015625
-120.53,1711005247031250
-86.86,1711005247046875
-52.73,1711005247062500
-20.4,1711005247078125
9.23,1711005247093750
36.04,1711005247109375
59.9,1711005247125000
80.23,1711005247140625
96.02,1711005247156250
106.38,1711005247171875
111.13,1711005247187500
111.15,1711005247203125
108.12,1711005247218750
104.03,1711005247234375
100.45,1711005247250000
98.08,1711005247265625
96.78,1711005247281250
95.91,1711005247296875
94.91,1711005247312500
93.55,1711005247328125
91.9,1711005247343750
90.05,1711005247359375
87.75,1711005247375000
84.44,1711005247390625
79.42,1711005247406250
72.29,1711005247421875
63.21,1711005247437500
52.96,1711005247453125
42.53,1711005247468750
32.78,1711005247484375
24.02,1711005247500000
15.91,1711005247515625
7.62,1711005247531250
-1.85,1711005247546875
-13.11,1711005247562500
-26.16,1711005247578125
-40.23,1711005247593750
-54.16,1711005247609375
-66.76,1711005247625000
-77.42,1711005247640625
-86.33,1711005247656250
-94.5,1711005247671875
-103.37,1711005247687500
-114.41,1711005247703125
-128.62,1711005247718750
-146.03,1711005247734375
-165.33,1711005247750000
-183.73,1711005247765625
-197.39,1711005247781250
-202.25,1711005247796875
-195.38,1711005247812500
-176.06,1711005247828125
-146.24,1711005247843750
-109.84,1711005247859375
-71.47,1711005247875000
-34.94,1711005247890625
-2.34,1711005247906250
25.92,1711005247921875
50.47,1711005247937500
72.01,1711005247953125
90.74,1711005247968750
106.31,1711005247984375
118.17,1711005248000000
126.05,1711005248015625
130.22,1711005248031250
131.51,1711005248046875
130.96,1711005248062500
129.53,1711005248078125
127.74,1711005248093750
125.7,1711005248109375
123.26,1711005248125000
120.29,1711005248140625
116.87,1711005248156250
113.31,1711005248171875
109.95,1711005248187500
106.94,1711005248203125
104.02,1711005248218750
100.63,1711005248234375
95.98,1711005248250000
89.51,1711005248265625
80.88,1711005248281250
70.31,1711005248296875
58.4,1711005248312500
46.09,1711005248328125
34.36,1711005248343750
23.94,1711005248359375
15.06,1711005248375000
7.23,1711005248390625
-0.47,1711005248406250
-9.14,1711005248421875
-19.46,1711005248437500
-31.44,1711005248453125
-44.37,1711005248468750
-57.13,1711005248484375
-68.68,1711005248500000
-78.45,1711005248515625
-86.62,1711005248531250
-94.06,1711005248546875
-102.14,1711005248562500
-112.27,1711005248578125
-125.55,1711005248593750
-142.22,1711005248609375
-161.26,1711005248625000
-180.22,1711005248640625
-195.47,1711005248656250
-203.06,1711005248671875
-199.85,1711005248687500
-184.61,1711005248703125
-158.42,1711005248718750
-124.39,1711005248734375
-86.65,1711005248750000
-49.09,1711005248765625
-14.48,1711005248781250
15.93,1711005248796875
41.93,1711005248812500
63.89,1711005248828125
81.93,1711005248843750
95.98,1711005248859375
105.8,1711005248875000
111.48,1711005248890625
113.64,1711005248906250
113.41,1711005248921875
112.14,1711005248937500
110.99,1711005248953125
110.57,1711005248968750
110.88,1711005248984375
111.49,1711005249000000
111.89,1711005249015625
111.74,1711005249031250
111.04,1711005249046875
109.93,1711005249062500
108.58,1711005249078125
106.85,1711005249093750
104.31,1711005249109375
100.34,1711005249125000
94.41,1711005249140625
86.29,1711005249156250
76.29,1711005249171875
65.19,1711005249187500
53.99,1711005249203125
43.53,1711005249218750
34.11,1711005249234375
25.44,1711005249250000
16.71,1711005249265625
7.01,1711005249281250
-4.33,1711005249296875
-17.43,1711005249312500
-31.82,1711005249328125
-46.64,1711005249343750
-60.98,1711005249359375
-74.17,1711005249375000
-85.92,1711005249390625
-96.41,1711005249406250
-106.15,1711005249421875
-115.95,1711005249437500
-126.76,1711005249453125
-139.54,1711005249468750
-154.95,1711005249484375
-172.89,1711005249500000
-192.02,1711005249515625
-209.57,1711005249531250
-221.74,1711005249546875
-224.59,1711005249562500
-215.45,1711005249578125
-193.88,1711005249593750
-161.98,1711005249609375
-123.74,1711005249625000
-83.69,1711005249640625
-45.54,1711005249656250
-11.36,1711005249671875
18.39,1711005249687500
44.19,1711005249703125
66.64,1711005249718750
85.87,1711005249734375
101.53,1711005249750000
113.14,1711005249765625
120.61,1711005249781250
124.42,1711005249796875
125.57,1711005249812500
125.23,1711005249828125
124.37,1711005249843750
123.52,1711005249859375
122.8,1711005249875000
122.09,1711005249890625
121.25,1711005249906250
120.19,1711005249921875
118.91,1711005249937500
117.31,1711005249953125
115.17,1711005249968750
112.15,1711005249984375
107.98,1711005250000000
102.59,1711005250015625
96.17,1711005250031250
89.09,1711005250046875
81.73,1711005250062500
74.22,1711005250078125
66.46,1711005250093750
58.18,1711005250109375
49.21,1711005250125000
39.69,1711005250140625
29.98,1711005250156250
20.59,1711005250171875
11.82,1711005250187500
3.57,1711005250203125
-4.64,1711005250218750
-13.41,1711005250234375
-23.17,1711005250250000
-33.87,1711005250265625
-45.06,1711005250281250
-56.1,1711005250296875
-66.45,1711005250312500
-75.92,1711005250328125
-84.74,1711005250343750
-93.48,1711005250359375
-102.92,1711005250375000
-113.96,1711005250390625
-127.35,1711005250406250
-143.39,1711005250421875
-161.48,1711005250437500
-179.8,1711005250453125
-195.31,1711005250468750
-204.37,1711005250484375
-203.68,1711005250500000
-191.4,1711005250515625
-167.9,1711005250531250
-135.68,1711005250546875
-98.59,1711005250562500
-60.62,1711005250578125
-24.92,1711005250593750
6.73,1711005250609375
33.73,1711005250625000
56.15,1711005250640625
74.2,1711005250656250
87.96,1711005250671875
97.54,1711005250687500
103.3,1711005250703125
106.01,1711005250718750
106.7,1711005250734375
106.43,1711005250750000
105.99,1711005250765625
105.68,1711005250781250
105.48,1711005250796875
105.12,1711005250812500
104.43,1711005250828125
103.38,1711005250843750
102.15,1711005250859375
100.95,1711005250875000
99.8,1711005250890625
98.38,1711005250906250
95.99,1711005250921875
91.79,1711005250937500
85.1,1711005250953125
75.84,1711005250968750
64.62,1711005250984375
52.64,1711005251000000
41.22,1711005251015625
31.28,1711005251031250
23.0,1711005251046875
15.8,1711005251062500
8.65,1711005251078125
0.54,1711005251093750
-9.04,1711005251109375
-19.94,1711005251125000
-31.41,1711005251140625
-42.45,1711005251156250
-52.22,1711005251171875
-60.35,1711005251187500
-67.16,1711005251203125
-73.56,1711005251218750
-80.82,1711005251234375
-90.18,1711005251250000
-102.48,1711005251265625
-117.68,1711005251281250
-134.62,1711005251296875
-150.95,1711005251312500
-163.46,1711005251328125
-168.76,1711005251343750
-164.17,1711005251359375
-148.59,1711005251375000
-122.93,1711005251390625
-89.9,1711005251406250
-53.3,1711005251421875
-16.92,1711005251437500
16.26,1711005251453125
44.59,1711005251468750
67.56,1711005251484375
85.4,1711005251500000
98.54,1711005251515625
107.36,1711005251531250
112.17,1711005251546875
113.41,1711005251562500
111.79,1711005251578125
108.27,1711005251593750
103.95,1711005251609375
99.78,1711005251625000
96.41,1711005251640625
94.1,1711005251656250
92.79,1711005251671875
92.31,1711005251687500
92.44,1711005251703125
92.92,1711005251718750
93.41,1711005251734375
93.38,1711005251750000
91.99,1711005251765625
88.4,1711005251781250
81.94,1711005251796875
72.51,1711005251812500
60.75,1711005251828125
47.81,1711005251843750
34.99,1711005251859375
23.09,1711005251875000
12.05,1711005251890625
0.99,1711005251906250
-11.23,1711005251921875
-25.27,1711005251937500
-40.79,1711005251953125
-56.49,1711005251968750
-70.77,1711005251984375
-82.59,1711005252000000
-92.08,1711005252015625
-100.56,1711005252031250
-110.07,1711005252046875
-122.6,1711005252062500
-139.41,1711005252078125
-160.61,1711005252093750
-184.83,1711005252109375
-209.11,1711005252125000
-229.14,1711005252140625
-240.02,1711005252156250
-237.62,1711005252171875
-220.08,1711005252187500
-188.63,1711005252203125
-147.54,1711005252218750
-102.71,1711005252234375
-59.71,1711005252250000
-22.2,1711005252265625
8.69,1711005252281250
33.73,1711005252296875
54.42,1711005252312500
71.8,1711005252328125
86.1,1711005252343750
96.98,1711005252359375
104.16,1711005252375000
107.94,1711005252390625
109.25,1711005252406250
109.33,1711005252421875
109.26,1711005252437500
109.63,1711005252453125
110.42,1711005252468750
111.33,1711005252484375
112.0,1711005252500000
112.3,1711005252515625
112.31,1711005252531250
112.11,1711005252546875
111.63,1711005252562500
110.5,1711005252578125
108.25,1711005252593750
104.63,1711005252609375
99.89,1711005252625000
94.76,1711005252640625
90.14,1711005252656250
86.67,1711005252671875
84.51,1711005252687500
83.23,1711005252703125
82.08,1711005252718750
80.38,1711005252734375
77.54,1711005252750000
73.26,1711005252765625
67.29,1711005252781250
59.35,1711005252796875
49.07,1711005252812500
35.97,1711005252828125
19.6,1711005252843750
-0.29,1711005252859375
-23.63,1711005252875000
-49.72,1711005252890625
-76.94,1711005252906250
-102.67,1711005252921875
-123.44,1711005252937500
-135.71,1711005252953125
-136.8,1711005252968750
-125.92,1711005252984375
-104.55,1711005253000000
-76.12,1711005253015625
-45.13,1711005253031250
-15.8,1711005253046875
8.83,1711005253062500
27.4,1711005253078125
40.0,1711005253093750
47.68,1711005253109375
51.76,1711005253125000
53.35,1711005253140625
53.24,1711005253156250
51.76,1711005253171875
49.03,1711005253187500
44.97,1711005253203125
39.4,1711005253218750
32.1,1711005253234375
22.81,1711005253250000
11.39,1711005253265625
-2.15,1711005253281250
-17.46,1711005253296875
-33.74,1711005253312500
-49.9,1711005253328125
-64.81,1711005253343750
-77.79,1711005253359375
-88.77,1711005253375000
-98.43,1711005253390625
-107.7,1711005253406250
-117.33,1711005253421875
-127.29,1711005253437500
-136.88,1711005253453125
-145.06,1711005253468750
-151.19,1711005253484375
-155.48,1711005253500000
-158.93,1711005253515625
-162.91,1711005253531250
-168.42,1711005253546875
-175.53,1711005253562500
-183.38,1711005253578125
-190.7,1711005253593750
-196.42,1711005253609375
-200.2,1711005253625000
-202.67,1711005253640625
-205.22,1711005253656250
-209.52,1711005253671875
-216.73,1711005253687500
-226.77,1711005253703125
-237.75,1711005253718750
-246.08,1711005253734375
-247.33,1711005253750000
-237.42,1711005253765625
-214.07,1711005253781250
-177.49,1711005253796875
-130.39,1711005253812500
-77.12,1711005253828125
-22.48,1711005253843750
29.32,1711005253859375
75.25,1711005253875000
113.49,1711005253890625
143.23,1711005253906250
164.42,1711005253921875
177.58,1711005253937500
183.73,1711005253953125
184.26,1711005253968750
180.87,1711005253984375
175.31,1711005254000000
169.09,1711005254015625
163.26,1711005254031250
158.17,1711005254046875
153.47,1711005254062500
148.46,1711005254078125
142.49,1711005254093750
135.44,1711005254109375
127.79,1711005254125000
120.39,1711005254140625
113.88,1711005254156250
108.3,1711005254171875
102.88,1711005254187500
96.32,1711005254203125
87.36,1711005254218750
75.4,1711005254234375
60.77,1711005254250000
44.62,1711005254265625
28.47,1711005254281250
13.63,1711005254296875
0.72,1711005254312500
-10.46,1711005254328125
-20.83,1711005254343750
-31.65,1711005254359375
-44.21,1711005254375000
-59.43,1711005254390625
-77.5,1711005254406250
-97.32,1711005254421875
-116.43,1711005254437500
-131.2,1711005254453125
-137.69,1711005254468750
-132.98,1711005254484375
-116.28,1711005254500000
-89.46,1711005254515625
-56.53,1711005254531250
-22.33,1711005254546875
8.95,1711005254562500
34.86,1711005254578125
54.78,1711005254593750
69.31,1711005254609375
79.32,1711005254625000
85.36,1711005254640625
87.5,1711005254656250
85.81,1711005254671875
80.77,1711005254687500
73.51,1711005254703125
65.59,1711005254718750
58.54,1711005254734375
53.34,1711005254750000
50.18,1711005254765625
48.54,1711005254781250
47.57,1711005254796875
46.45,1711005254812500
44.63,1711005254828125
41.87,1711005254843750
38.04,1711005254859375
33.02,1711005254875000
26.62,1711005254890625
18.69,1711005254906250
9.19,1711005254921875
-1.73,1711005254937500
-13.79,1711005254953125
-26.74,1711005254968750
-40.48,1711005254984375
-55.19,1711005255000000
-71.38,1711005255015625
-89.68,1711005255031250
-110.51,1711005255046875
-133.54,1711005255062500
-157.22,1711005255078125
-178.55,1711005255093750
-193.63,1711005255109375
-198.71,1711005255125000
-191.45,1711005255140625
-171.92,1711005255156250
-142.62,1711005255171875
-107.67,1711005255187500
-71.36,1711005255203125
-36.98,1711005255218750
-6.18,1711005255234375
20.67,1711005255250000
43.73,1711005255265625
62.98,1711005255281250
78.03,1711005255296875
88.43,1711005255312500
94.17,1711005255328125
96.05,1711005255343750
95.51,1711005255359375
94.14,1711005255375000
93.05,1711005255390625
92.52,1711005255406250
92.13,1711005255421875
91.14,1711005255437500
89.08,1711005255453125
86.0,1711005255468750
82.48,1711005255484375
79.21,1711005255500000
76.56,1711005255515625
74.16,1711005255531250
71.04,1711005255546875
65.91,1711005255562500
57.79,1711005255578125
46.43,1711005255593750
32.44,1711005255609375
17.11,1711005255625000
1.88,1711005255640625
-12.18,1711005255656250
-24.69,1711005255671875
-36.11,1711005255687500
-47.51,1711005255703125
-60.23,1711005255718750
-75.45,1711005255734375
-93.81,1711005255750000
-114.91,1711005255765625
-137.09,1711005255781250
-157.41,1711005255796875
-172.06,1711005255812500
-177.32,1711005255828125
-170.69,1711005255843750
-151.87,1711005255859375
-122.94,1711005255875000
-87.8,1711005255890625
-50.95,1711005255906250
-16.17,1711005255921875
14.34,1711005255937500
40.0,1711005255953125
61.4,1711005255968750
79.4,1711005255984375
94.56,1711005256000000
106.93,1711005256015625
116.28,1711005256031250
122.49,1711005256046875
125.84,1711005256062500
126.92,1711005256078125
126.48,1711005256093750
125.15,1711005256109375
123.27,1711005256125000
120.93,1711005256140625
118.16,1711005256156250
115.12,1711005256171875
112.12,1711005256187500
109.47,1711005256203125
107.21,1711005256218750
104.92,1711005256234375
101.77,1711005256250000
96.87,1711005256265625
89.7,1711005256281250
80.37,1711005256296875
69.62,1711005256312500
58.44,1711005256328125
47.62,1711005256343750
37.34,1711005256359375
27.13,1711005256375000
16.2,1711005256390625
3.91,1711005256406250
-9.8,1711005256421875
-24.36,1711005256437500
-38.86,1711005256453125
-52.46,1711005256468750
-64.72,1711005256484375
-75.83,1711005256500000
-86.48,1711005256515625
-97.7,1711005256531250
-110.63,1711005256546875
-126.15,1711005256562500
-144.42,1711005256578125
-164.36,1711005256593750
-183.35,1711005256609375
-197.59,1711005256625000
-202.97,1711005256640625
-196.48,1711005256656250
-177.33,1711005256671875
-147.36,1711005256687500
-110.4,1711005256703125
-70.99,1711005256718750
-32.96,1711005256734375
1.47,1711005256750000
31.73,1711005256765625
58.22,1711005256781250
81.6,1711005256796875
102.08,1711005256812500
119.3,1711005256828125
132.65,1711005256843750
141.7,1711005256859375
146.52,1711005256875000
147.8,1711005256890625
146.58,1711005256906250
143.94,1711005256921875
140.66,1711005256937500
137.12,1711005256953125
133.35,1711005256968750
129.36,1711005256984375
125.26,1711005257000000
121.3,1711005257015625
117.72,1711005257031250
114.54,1711005257046875
111.4,1711005257062500
107.71,1711005257078125
102.78,1711005257093750
96.13,1711005257109375
87.68,1711005257125000
77.73,1711005257140625
66.88,1711005257156250
55.89,1711005257171875
45.36,1711005257187500
35.68,1711005257203125
26.81,1711005257218750
18.35,1711005257234375
9.7,1711005257250000
0.22,1711005257265625
-10.46,1711005257281250
-22.31,1711005257296875
-34.88,1711005257312500
-47.49,1711005257328125
-59.38,1711005257343750
-70.04,1711005257359375
-79.39,1711005257375000
-87.84,1711005257390625
-96.28,1711005257406250
-105.92,1711005257421875
-117.91,1711005257437500
-132.99,1711005257453125
-150.93,1711005257468750
-170.17,1711005257484375
-187.74,1711005257500000
-199.77,1711005257515625
-202.52,1711005257531250
-193.58,1711005257546875
-172.73,1711005257562500
-142.07,1711005257578125
-105.35,1711005257593750
-66.71,1711005257609375
-29.53,1711005257625000
4.18,1711005257640625
33.75,1711005257656250
59.24,1711005257671875
80.86,1711005257687500
98.57,1711005257703125
112.13,1711005257718750
121.46,1711005257734375
126.82,1711005257750000
128.91,1711005257765625
128.65,1711005257781250
126.94,1711005257796875
124.48,1711005257812500
121.69,1711005257828125
118.78,1711005257843750
115.85,1711005257859375
112.97,1711005257875000
110.21,1711005257890625
107.61,1711005257906250
105.12,1711005257921875
102.6,1711005257937500
99.75,1711005257953125
96.2,1711005257968750
91.62,1711005257984375
85.72,1711005258000000
78.48,1711005258015625
70.06,1711005258031250
60.81,1711005258046875
51.14,1711005258062500
41.41,1711005258078125
31.85,1711005258093750
22.61,1711005258109375
13.77,1711005258125000
5.32,1711005258140625
-2.79,1711005258156250
-10.78,1711005258171875
-18.98,1711005258187500
-27.71,1711005258203125
-37.17,1711005258218750
-47.24,1711005258234375
-57.6,1711005258250000
-67.73,1711005258265625
-77.27,1711005258281250
-86.05,1711005258296875
-94.23,1711005258312500
-102.31,1711005258328125
-111.07,1711005258343750
-121.44,1711005258359375
-134.22,1711005258375000
-149.66,1711005258390625
-166.9,1711005258406250
-183.65,1711005258421875
-196.41,1711005258437500
-201.26,1711005258453125
-195.12,1711005258468750
-176.79,1711005258484375
-147.59,1711005258500000
-110.86,1711005258515625
-70.97,1711005258531250
-31.91,1711005258546875
3.6,1711005258562500
34.47,1711005258578125
60.71,1711005258593750
82.77,1711005258609375
100.92,1711005258625000
115.1,1711005258640625
125.12,1711005258656250
131.1,1711005258671875
133.61,1711005258687500
133.67,1711005258703125
132.45,1711005258718750
130.92,1711005258734375
129.64,1711005258750000
128.73,1711005258765625
128.03,1711005258781250
127.31,1711005258796875
126.42,1711005258812500
125.36,1711005258828125
124.15,1711005258843750
122.74,1711005258859375
120.89,1711005258875000
118.22,1711005258890625
114.28,1711005258906250
108.76,1711005258921875
101.61,1711005258937500
93.06,1711005258953125
83.51,1711005258968750
73.37,1711005258984375
62.99,1711005259000000
52.58,1711005259015625
42.24,1711005259031250
32.01,1711005259046875
21.86,1711005259062500
11.6,1711005259078125
0.9,1711005259093750
-10.61,1711005259109375
-23.23,1711005259125000
-36.91,1711005259140625
-51.29,1711005259156250
-65.74,1711005259171875
-79.63,1711005259187500
-92.57,1711005259203125
-104.6,1711005259218750
-116.17,1711005259234375
-128.07,1711005259250000
-141.3,1711005259265625
-156.71,1711005259281250
-174.71,1711005259296875
-194.7,1711005259312500
-214.78,1711005259328125
-231.75,1711005259343750
-241.77,1711005259359375
-241.46,1711005259375000
-229.11,1711005259390625
-205.32,1711005259406250
-172.87,1711005259421875
-135.78,1711005259437500
-98.04,1711005259453125
-62.61,1711005259468750
-30.97,1711005259484375
-3.47,1711005259500000
20.1,1711005259515625
39.95,1711005259531250
56.03,1711005259546875
68.26,1711005259562500
76.72,1711005259578125
81.9,1711005259593750
84.64,1711005259609375
85.9,1711005259625000
86.54,1711005259640625
87.04,1711005259656250
87.54,1711005259671875
87.94,1711005259687500
88.13,1711005259703125
88.1,1711005259718750
87.98,1711005259734375
87.89,1711005259750000
87.83,1711005259765625
87.6,1711005259781250
86.78,1711005259796875
84.94,1711005259812500
81.69,1711005259828125
76.83,1711005259843750
70.37,1711005259859375
62.53,1711005259875000
53.75,1711005259890625
44.54,1711005259906250
35.49,1711005259921875
27.04,1711005259937500
19.45,1711005259953125
12.56,1711005259968750
5.9,1711005259984375
-1.18,1711005260000000
-9.26,1711005260015625
-18.58,1711005260031250
-28.92,1711005260046875
-39.66,1711005260062500
-50.03,1711005260078125
-59.45,1711005260093750
-67.77,1711005260109375
-75.3,1711005260125000
-82.73,1711005260140625
-90.94,1711005260156250
-100.73,1711005260171875
-112.65,1711005260187500
-126.78,1711005260203125
-142.44,1711005260218750
-157.85,1711005260234375
-170.29,1711005260250000
-176.45,1711005260265625
-173.34,1711005260281250
-159.38,1711005260296875
-135.08,1711005260312500
-103.07,1711005260328125
-67.33,1711005260343750
-31.96,1711005260359375
0.06,1711005260375000
27.31,1711005260390625
49.84,1711005260406250
68.35,1711005260421875
83.37,1711005260437500
94.93,1711005260453125
102.62,1711005260468750
106.18,1711005260484375
105.91,1711005260500000
102.88,1711005260515625
98.64,1711005260531250
94.73,1711005260546875
92.09,1711005260562500
90.86,1711005260578125
90.45,1711005260593750
90.06,1711005260609375
89.08,1711005260625000
87.35,1711005260640625
85.19,1711005260656250
83.0,1711005260671875
80.94,1711005260687500
78.68,1711005260703125
75.51,1711005260718750
70.7,1711005260734375
63.8,1711005260750000
55.03,1711005260765625
45.15,1711005260781250
35.27,1711005260796875
26.35,1711005260812500
18.89,1711005260828125
12.74,1711005260843750
7.21,1711005260859375
1.43,1711005260875000
-5.36,1711005260890625
-13.51,1711005260906250
-22.81,1711005260921875
-32.61,1711005260937500
-42.09,1711005260953125
-50.57,1711005260968750
-57.78,1711005260984375
-64.0,1711005261000000
-70.02,1711005261015625
-76.92,1711005261031250
-85.79,1711005261046875
-97.42,1711005261062500
-111.91,1711005261078125
-128.38,1711005261093750
-144.77,1711005261109375
-158.05,1711005261125000
-164.83,1711005261140625
-162.28,1711005261156250
-149.07,1711005261171875
-125.92,1711005261187500
-95.47,1711005261203125
-61.46,1711005261218750
-27.65,1711005261234375
3.14,1711005261250000
29.5,1711005261265625
51.16,1711005261281250
68.53,1711005261296875
82.02,1711005261312500
91.78,1711005261328125
97.76,1711005261343750
100.03,1711005261359375
99.06,1711005261375000
95.8,1711005261390625
91.57,1711005261406250
87.64,1711005261421875
84.92,1711005261437500
83.7,1711005261453125
83.73,1711005261468750
84.39,1711005261484375
85.03,1711005261500000
85.13,1711005261515625
84.44,1711005261531250
82.93,1711005261546875
80.63,1711005261562500
77.59,1711005261578125
73.82,1711005261593750
69.2,1711005261609375
63.64,1711005261625000
57.08,1711005261640625
49.54,1711005261656250
41.24,1711005261671875
32.56,1711005261687500
23.97,1711005261703125
15.87,1711005261718750
8.45,1711005261734375
1.61,1711005261750000
-5.07,1711005261765625
-12.05,1711005261781250
-19.76,1711005261796875
-28.34,1711005261812500
-37.6,1711005261828125
-47.13,1711005261843750
-56.48,1711005261859375
-65.27,1711005261875000
-73.44,1711005261890625
-81.16,1711005261906250
-88.83,1711005261921875
-97.02,1711005261937500
-106.34,1711005261953125
-117.39,1711005261968750
-130.61,1711005261984375
-145.86,1711005262000000
-161.99,1711005262015625
-176.58,1711005262031250
-186.22,1711005262046875
-187.32,1711005262062500
-177.35,1711005262078125
-155.86,1711005262093750
-124.83,1711005262109375
-88.14,1711005262125000
-50.29,1711005262140625
-15.06,1711005262156250
15.28,1711005262171875
40.15,1711005262187500
60.04,1711005262203125
75.77,1711005262218750
87.97,1711005262234375
96.85,1711005262250000
102.5,1711005262265625
105.15,1711005262281250
105.39,1711005262296875
104.1,1711005262312500
102.18,1711005262328125
100.36,1711005262343750
98.94,1711005262359375
97.93,1711005262375000
97.1,1711005262390625
96.29,1711005262406250
95.5,1711005262421875
94.81,1711005262437500
94.15,1711005262453125
93.24,1711005262468750
91.52,1711005262484375
88.39,1711005262500000
83.59,1711005262515625
77.27,1711005262531250
69.96,1711005262546875
62.27,1711005262562500
54.58,1711005262578125
46.94,1711005262593750
39.19,1711005262609375
31.24,1711005262625000
23.18,1711005262640625
15.39,1711005262656250
