phoneTimestamp,sensorTimestamp,ecg
1711124328190,599616188398767416,12239
1711124328197,599616188406431544,12236
1711124328205,599616188414095672,12286
1711124328212,599616188421759800,12283
1711124328220,599616188429423928,12109
1711124328228,599616188437088056,12011
1711124328235,599616188444752184,12036
1711124328243,599616188452416312,12004
1711124328251,599616188460080440,11971
1711124328257,599616188467744568,11952
1711124328265,599616188475408696,11862
1711124328273,599616188483072824,11811
1711124328281,599616188490736952,11775
1711124328289,599616188498401080,11693
1711124328297,599616188506065208,11686
1711124328304,599616188513729336,11606
1711124328312,599616188521393464,11373
1711124328320,599616188529057592,11289
1711124328327,599616188536721720,11291
1711124328335,599616188544385848,11164
1711124328343,599616188552049976,11115
1711124328350,599616188559714104,11072
1711124328358,599616188567378232,10797
1711124328366,599616188575042360,10628
1711124328373,599616188582706488,10658
1711124328381,599616188590370616,10552
1711124328389,599616188598034744,10402
1711124328396,599616188605698872,10348
1711124328404,599616188613363000,10242
1711124328412,599616188621027128,10124
1711124328419,599616188628691256,10099
1711124328427,599616188636355384,10028
1711124328435,599616188644019512,9894
1711124328441,599616188651683640,9795
1711124328449,599616188659347768,9687
1711124328457,599616188667011896,9590
1711124328465,599616188674676024,9588
1711124328473,599616188682340152,9515
1711124328481,599616188690004280,9327
1711124328488,599616188697668408,9193
1711124328496,599616188705332536,9028
1711124328504,599616188712996664,8826
1711124328511,599616188720660792,8760
1711124328519,599616188728324920,8727
1711124328527,599616188735989048,8619
1711124328534,599616188743653176,8527
1711124328542,599616188751317304,8480
1711124328550,599616188758981432,8283
1711124328557,599616188766645560,7996
1711124328565,599616188774309688,7918
1711124328573,599616188781973816,7907
1711124328580,599616188789637944,7742
1711124328588,599616188797302072,7627
1711124328596,599616188804966200,7580
1711124328603,599616188812630328,7410
1711124328611,599616188820294456,7286
1711124328619,599616188827958584,7286
1711124328625,599616188835622712,7168
1711124328633,599616188843286840,6966
1711124328641,599616188850950968,6959
1711124328649,599616188858615096,7290
1711124328657,599616188866279224,7928
1711124328665,599616188873943352,8175
1711124328672,599616188881607480,7156
1711124328680,599616188889271608,5990
1711124328688,599616188896935736,6161
1711124328695,599616188904599864,6552
1711124328703,599616188912263992,6303
1711124328711,599616188919928120,6234
1711124328718,599616188927592248,6317
1711124328726,599616188935256376,6126
1711124328734,599616188942920504,5990
1711124328741,599616188950584632,6023
1711124328749,599616188958258832,5976
1711124328757,599616188965922821,5912
1711124328764,599616188973586810,5870
1711124328772,599616188981250799,5745
1711124328780,599616188988914788,5637
1711124328787,599616188996578777,5611
1711124328795,599616189004242766,5569
1711124328803,599616189011906755,5529
1711124328809,599616189019570744,5505
1711124328817,599616189027234733,5345
1711124328825,599616189034898722,5129
1711124328833,599616189042562711,5087
1711124328841,599616189050226700,5077
1711124328849,599616189057890689,4938
1711124328856,599616189065554678,4837
1711124328864,599616189073218667,4795
1711124328872,599616189080882656,4701
1711124328879,599616189088546645,4640
1711124328887,599616189096210634,4642
1711124328895,599616189103874623,4619
1711124328902,599616189111538612,4569
1711124328910,599616189119202601,4503
1711124328918,599616189126866590,4416
1711124328925,599616189134530579,4346
1711124328933,599616189142194568,4308
1711124328941,599616189149858557,4266
1711124328948,599616189157522546,4188
1711124328956,599616189165186535,4099
1711124328964,599616189172850524,4014
1711124328971,599616189180514513,3939
1711124328979,599616189188178502,3887
1711124328987,599616189195842491,3857
1711124328993,599616189203506480,3803
1711124329001,599616189211170469,3737
1711124329009,599616189218834458,3685
1711124329017,599616189226498447,3626
1711124329025,599616189234162436,3577
1711124329033,599616189241826425,3556
1711124329040,599616189249490414,3513
1711124329048,599616189257154403,3464
1711124329056,599616189264818392,3377
1711124329063,599616189272482381,3203
1711124329071,599616189280146370,3102
1711124329079,599616189287810359,3120
1711124329086,599616189295474348,3064
1711124329094,599616189303138337,2923
1711124329102,599616189310802326,2874
1711124329109,599616189318466315,2874
1711124329117,599616189326130304,2824
1711124329125,599616189333794293,2794
1711124329132,599616189341458282,2784
1711124329140,599616189349122271,2742
1711124329148,599616189356786260,2718
1711124329155,599616189364450249,2707
1711124329163,599616189372114238,2657
1711124329171,599616189379778227,2622
1711124329177,599616189387442216,2603
1711124329185,599616189395106205,2563
1711124329193,599616189402770194,2542
1711124329201,599616189410434183,2532
1711124329209,599616189418098172,2488
1711124329216,599616189425762161,2443
1711124329224,599616189433426150,2417
1711124329232,599616189441090139,2382
1711124329239,599616189448754128,2358
1711124329247,599616189456418117,2330
1711124329255,599616189464082106,2238
1711124329262,599616189471746095,2151
1711124329270,599616189479410084,2119
1711124329278,599616189487074073,2088
1711124329285,599616189494738062,2057
1711124329293,599616189502402051,2053
1711124329301,599616189510066040,2029
1711124329308,599616189517740074,1973
1711124329316,599616189525403924,1926
1711124329324,599616189533067774,1902
1711124329331,599616189540731624,1860
1711124329339,599616189548395474,1785
1711124329347,599616189556059324,1733
1711124329353,599616189563723174,1707
1711124329361,599616189571387024,1660
1711124329369,599616189579050874,1627
1711124329377,599616189586714724,1636
1711124329385,599616189594378574,1646
1711124329393,599616189602042424,1627
1711124329400,599616189609706274,1542
1711124329408,599616189617370124,1418
1711124329416,599616189625033974,1361
1711124329423,599616189632697824,1349
1711124329431,599616189640361674,1307
1711124329439,599616189648025524,1260
1711124329446,599616189655689374,1194
1711124329454,599616189663353224,1112
1711124329462,599616189671017074,1091
1711124329469,599616189678680924,1107
1711124329477,599616189686344774,1107
1711124329485,599616189694008624,1105
1711124329492,599616189701672474,1105
1711124329500,599616189709336324,1072
1711124329508,599616189717000174,1053
1711124329515,599616189724664024,1084
1711124329523,599616189732327874,1114
1711124329531,599616189739991724,1110
1711124329537,599616189747655574,1093
1711124329545,599616189755319424,1055
1711124329553,599616189762983274,971
1711124329561,599616189770647124,863
1711124329569,599616189778310974,816
1711124329577,599616189785974824,816
1711124329584,599616189793638674,771
1711124329592,599616189801302524,707
1711124329600,599616189808966374,700
1711124329607,599616189816630224,726
1711124329615,599616189824294074,733
1711124329623,599616189831957924,747
1711124329630,599616189839621774,943
1711124329638,599616189847285624,1491
1711124329646,599616189854949474,2093
1711124329653,599616189862613324,1766
1711124329661,599616189870277174,571
1711124329669,599616189877941024,228
1711124329676,599616189885604874,778
1711124329684,599616189893268724,832
1711124329692,599616189900932574,637
1711124329699,599616189908596424,766
1711124329707,599616189916260274,837
1711124329715,599616189923924124,773
1711124329721,599616189931587974,806
1711124329729,599616189939251824,837
1711124329737,599616189946915674,799
1711124329745,599616189954579524,794
1711124329753,599616189962243374,820
1711124329761,599616189969907224,830
1711124329768,599616189977571074,830
1711124329776,599616189985234924,830
1711124329784,599616189992898774,827
1711124329791,599616190000562624,820
1711124329799,599616190008226474,816
1711124329807,599616190015890324,832
1711124329814,599616190023554174,846
1711124329822,599616190031218024,799
1711124329830,599616190038881874,719
1711124329837,599616190046545724,686
1711124329845,599616190054209574,698
1711124329853,599616190061873424,710
1711124329860,599616190069537274,722
1711124329868,599616190077226264,731
1711124329876,599616190084889765,743
1711124329883,599616190092553266,747
1711124329891,599616190100216767,731
1711124329899,599616190107880268,726
1711124329905,599616190115543769,733
1711124329913,599616190123207270,700
1711124329921,599616190130870771,670
1711124329929,599616190138534272,649
1711124329937,599616190146197773,550
1711124329945,599616190153861274,446
1711124329952,599616190161524775,451
1711124329960,599616190169188276,458
1711124329968,599616190176851777,428
1711124329975,599616190184515278,432
1711124329983,599616190192178779,404
1711124329991,599616190199842280,312
1711124329998,599616190207505781,293
1711124330006,599616190215169282,333
1711124330014,599616190222832783,333
1711124330021,599616190230496284,343
1711124330029,599616190238159785,378
1711124330037,599616190245823286,378
1711124330044,599616190253486787,366
1711124330052,599616190261150288,373
1711124330060,599616190268813789,333
1711124330067,599616190276477290,209
1711124330075,599616190284140791,105
1711124330083,599616190291804292,98
1711124330089,599616190299467793,112
1711124330097,599616190307131294,110
1711124330105,599616190314794795,136
1711124330113,599616190322458296,185
1711124330121,599616190330121797,216
1711124330129,599616190337785298,225
1711124330136,599616190345448799,221
1711124330144,599616190353112300,221
1711124330152,599616190360775801,239
1711124330159,599616190368439302,275
1711124330167,599616190376102803,301
1711124330174,599616190383766304,308
1711124330182,599616190391429805,270
1711124330190,599616190399093306,202
1711124330197,599616190406756807,183
1711124330205,599616190414420308,211
1711124330213,599616190422083809,228
1711124330220,599616190429747310,235
1711124330228,599616190437410811,225
1711124330236,599616190445074312,192
1711124330243,599616190452737813,192
1711124330251,599616190460401314,225
1711124330259,599616190468064815,251
1711124330265,599616190475728316,265
1711124330273,599616190483391817,258
1711124330281,599616190491055318,216
1711124330289,599616190498718819,211
1711124330297,599616190506382320,254
1711124330305,599616190514045821,272
1711124330312,599616190521709322,258
1711124330320,599616190529372823,192
1711124330328,599616190537036324,110
1711124330335,599616190544699825,105
1711124330343,599616190552363326,150
1711124330351,599616190560026827,155
1711124330358,599616190567690328,124
1711124330366,599616190575353829,89
1711124330374,599616190583017330,32
1711124330381,599616190590680831,-39
1711124330389,599616190598344332,-51
1711124330397,599616190606007833,-16
1711124330404,599616190613671334,0
1711124330412,599616190621334835,-2
1711124330420,599616190628998336,-14
1711124330427,599616190636641808,-37
1711124330435,599616190644305588,-32
1711124330443,599616190651969368,0
1711124330449,599616190659633148,25
1711124330457,599616190667296928,35
1711124330465,599616190674960708,23
1711124330473,599616190682624488,16
1711124330481,599616190690288268,51
1711124330489,599616190697952048,91
1711124330496,599616190705615828,103
1711124330504,599616190713279608,105
1711124330512,599616190720943388,98
1711124330519,599616190728607168,75
1711124330527,599616190736270948,65
1711124330535,599616190743934728,96
1711124330542,599616190751598508,131
1711124330550,599616190759262288,136
1711124330558,599616190766926068,98
1711124330565,599616190774589848,-28
1711124330573,599616190782253628,-183
1711124330581,599616190789917408,-209
1711124330588,599616190797581188,-134
1711124330596,599616190805244968,96
1711124330604,599616190812908748,698
1711124330611,599616190820572528,1291
1711124330619,599616190828236308,771
1711124330627,599616190835900088,-468
1711124330633,599616190843563868,-571
1711124330641,599616190851227648,35
1711124330649,599616190858891428,-16
1711124330657,599616190866555208,-152
1711124330665,599616190874218988,-11
1711124330673,599616190881882768,-79
1711124330680,599616190889546548,-169
1711124330688,599616190897210328,-63
1711124330696,599616190904874108,-23
1711124330703,599616190912537888,-44
1711124330711,599616190920201668,-2
1711124330719,599616190927865448,18
1711124330726,599616190935529228,18
1711124330734,599616190943193008,56
1711124330742,599616190950856788,82
1711124330749,599616190958520568,89
1711124330757,599616190966184348,122
1711124330765,599616190973848128,141
1711124330772,599616190981511908,143
1711124330780,599616190989175688,166
1711124330788,599616190996839468,185
1711124330795,599616191004503248,195
1711124330803,599616191012167028,214
1711124330811,599616191019830808,197
1711124330817,599616191027494588,162
1711124330825,599616191035158368,164
1711124330833,599616191042822148,176
1711124330841,599616191050485928,185
1711124330849,599616191058149708,218
1711124330857,599616191065813488,239
1711124330864,599616191073477268,223
1711124330872,599616191081141048,202
1711124330880,599616191088804828,195
1711124330887,599616191096468608,188
1711124330895,599616191104132388,188
1711124330903,599616191111796168,185
1711124330910,599616191119459948,159
1711124330918,599616191127123728,124
1711124330926,599616191134787508,103
1711124330933,599616191142451288,105
1711124330941,599616191150115068,122
1711124330949,599616191157778848,141
1711124330956,599616191165442628,145
1711124330964,599616191173106408,131
1711124330972,599616191180770188,119
1711124330979,599616191188433968,129
1711124330987,599616191196067688,157
1711124330993,599616191203731886,181
1711124331001,599616191211396084,185
1711124331009,599616191219060282,162
1711124331017,599616191226724480,129
1711124331025,599616191234388678,136
1711124331033,599616191242052876,169
1711124331040,599616191249717074,192
1711124331048,599616191257381272,195
1711124331056,599616191265045470,150
1711124331063,599616191272709668,44
1711124331071,599616191280373866,-63
1711124331079,599616191288038064,-110
1711124331086,599616191295702262,-108
1711124331094,599616191303366460,-134
1711124331102,599616191311030658,-209
1711124331109,599616191318694856,-296
1711124331117,599616191326359054,-312
1711124331125,599616191334023252,-268
1711124331132,599616191341687450,-237
1711124331140,599616191349351648,-214
1711124331148,599616191357015846,-192
1711124331155,599616191364680044,-214
1711124331163,599616191372344242,-228
1711124331171,599616191380008440,-188
1711124331177,599616191387672638,-143
1711124331185,599616191395336836,-112
1711124331193,599616191403001034,-91
1711124331201,599616191410665232,-103
1711124331209,599616191418329430,-124
1711124331217,599616191425993628,-96
1711124331224,599616191433657826,-51
1711124331232,599616191441322024,-25
1711124331240,599616191448986222,-16
1711124331247,599616191456650420,-25
1711124331255,599616191464314618,-56
1711124331263,599616191471978816,-89
1711124331270,599616191479643014,-108
1711124331278,599616191487307212,-129
1711124331286,599616191494971410,-176
1711124331293,599616191502635608,-218
1711124331301,599616191510299806,-254
1711124331309,599616191517964004,-293
1711124331316,599616191525628202,-286
1711124331324,599616191533292400,-242
1711124331332,599616191540956598,-232
1711124331339,599616191548620796,-244
1711124331347,599616191556284994,-246
1711124331355,599616191563949192,-239
1711124331361,599616191571613390,-218
1711124331369,599616191579277588,-181
1711124331377,599616191586941786,-159
1711124331385,599616191594605984,-162
1711124331393,599616191602270182,-159
1711124331401,599616191609934380,-148
1711124331408,599616191617598578,-131
1711124331416,599616191625262776,-103
1711124331424,599616191632926974,-84
1711124331431,599616191640591172,-82
1711124331439,599616191648255370,-65
1711124331447,599616191655919568,-42
1711124331454,599616191663583766,-23
1711124331462,599616191671247964,4
1711124331470,599616191678912162,21
1711124331477,599616191686576360,11
1711124331485,599616191694240558,9
1711124331493,599616191701904756,11
1711124331500,599616191709568954,2
1711124331508,599616191717233152,11
1711124331516,599616191724897350,37
1711124331523,599616191732561548,37
1711124331531,599616191740225746,42
1711124331539,599616191747889944,70
1711124331545,599616191755574270,51
1711124331553,599616191763238189,-30
1711124331561,599616191770902108,-25
1711124331569,599616191778566027,246
1711124331577,599616191786229946,820
1711124331585,599616191793893865,1154
1711124331592,599616191801557784,319
1711124331600,599616191809221703,-849
1711124331608,599616191816885622,-722
1711124331615,599616191824549541,-197
1711124331623,599616191832213460,-324
1711124331631,599616191839877379,-357
1711124331638,599616191847541298,-166
1711124331646,599616191855205217,-192
1711124331654,599616191862869136,-237
1711124331661,599616191870533055,-157
1711124331669,599616191878196974,-124
1711124331677,599616191885860893,-112
1711124331684,599616191893524812,-68
1711124331692,599616191901188731,-51
1711124331700,599616191908852650,-58
1711124331707,599616191916516569,-44
1711124331715,599616191924180488,-11
1711124331723,599616191931844407,23
1711124331729,599616191939508326,51
1711124331737,599616191947172245,58
1711124331745,599616191954836164,49
1711124331753,599616191962500083,51
1711124331761,599616191970164002,75
1711124331769,599616191977827921,105
1711124331776,599616191985491840,145
1711124331784,599616191993155759,178
1711124331792,599616192000819678,164
1711124331799,599616192008483597,103
1711124331807,599616192016147516,82
1711124331815,599616192023811435,124
1711124331822,599616192031475354,145
1711124331830,599616192039139273,141
1711124331838,599616192046803192,124
1711124331845,599616192054467111,89
1711124331853,599616192062131030,82
1711124331861,599616192069794949,105
1711124331868,599616192077458868,112
1711124331876,599616192085122787,103
1711124331884,599616192092786706,72
1711124331891,599616192100450625,21
1711124331899,599616192108114544,2
1711124331907,599616192115778463,28
1711124331913,599616192123442382,49
1711124331921,599616192131106301,61
1711124331929,599616192138770220,63
1711124331937,599616192146434139,35
1711124331945,599616192154098058,23
1711124331952,599616192161761977,54
1711124331960,599616192169425896,84
1711124331968,599616192177089815,101
1711124331975,599616192184753734,108
1711124331983,599616192192417653,82
1711124331991,599616192200081572,54
1711124331998,599616192207745491,72
1711124332006,599616192215409410,98
1711124332014,599616192223073329,70
1711124332021,599616192230737248,14
1711124332029,599616192238401167,-30
1711124332037,599616192246065086,-87
1711124332044,599616192253729005,-148
1711124332052,599616192261392924,-166
1711124332060,599616192269056843,-143
1711124332067,599616192276720762,-150
1711124332075,599616192284384681,-249
1711124332083,599616192292048600,-362
1711124332089,599616192299712519,-359
1711124332097,599616192307376438,-296
1711124332105,599616192315045386,-272
1711124332113,599616192322709236,-256
1711124332121,599616192330373086,-242
1711124332129,599616192338036936,-244
1711124332136,599616192345700786,-239
1711124332144,599616192353364636,-204
1711124332152,599616192361028486,-164
1711124332159,599616192368692336,-148
1711124332167,599616192376356186,-155
1711124332175,599616192384020036,-204
1711124332182,599616192391683886,-298
1711124332190,599616192399347736,-362
1711124332198,599616192407011586,-350
1711124332205,599616192414675436,-371
1711124332213,599616192422339286,-430
1711124332221,599616192430003136,-432
1711124332228,599616192437666986,-416
1711124332236,599616192445330836,-418
1711124332244,599616192452994686,-392
1711124332251,599616192460658536,-357
1711124332259,599616192468322386,-352
1711124332267,599616192475986236,-345
1711124332273,599616192483650086,-331
1711124332281,599616192491313936,-350
1711124332289,599616192498977786,-388
1711124332297,599616192506641636,-399
1711124332305,599616192514305486,-385
1711124332313,599616192521969336,-359
1711124332320,599616192529633186,-336
1711124332328,599616192537297036,-324
1711124332336,599616192544960886,-298
1711124332343,599616192552624736,-263
1711124332351,599616192560288586,-244
1711124332359,599616192567952436,-221
1711124332366,599616192575616286,-185
1711124332374,599616192583280136,-176
1711124332382,599616192590943986,-171
1711124332389,599616192598607836,-145
1711124332397,599616192606271686,-124
1711124332405,599616192613935536,-112
1711124332412,599616192621599386,-82
1711124332420,599616192629263236,-54
1711124332428,599616192636927086,-39
1711124332435,599616192644590936,-7
1711124332443,599616192652254786,18
1711124332451,599616192659918636,16
1711124332457,599616192667582486,25
1711124332465,599616192675246336,37
1711124332473,599616192682910186,23
1711124332481,599616192690574036,11
1711124332489,599616192698237886,21
1711124332497,599616192705901736,37
1711124332504,599616192713565586,61
1711124332512,599616192721229436,82
1711124332520,599616192728893286,79
1711124332527,599616192736557136,42
1711124332535,599616192744220986,-44
1711124332543,599616192751884836,-75
1711124332550,599616192759548686,211
1711124332558,599616192767212536,874
1711124332566,599616192774876386,1342
1711124332573,599616192782540236,660
1711124332581,599616192790204086,-587
1711124332589,599616192797867936,-693
1711124332596,599616192805531786,-157
1711124332604,599616192813195636,-195
1711124332612,599616192820859486,-296
1711124332619,599616192828523336,-150
1711124332627,599616192836187186,-155
1711124332635,599616192843851036,-199
1711124332641,599616192851514886,-110
1711124332649,599616192859178736,-51
1711124332657,599616192866842586,-51
1711124332665,599616192874526536,-44
1711124332673,599616192882190107,-54
1711124332681,599616192889853678,-49
1711124332688,599616192897517249,-4
1711124332696,599616192905180820,35
1711124332704,599616192912844391,58
1711124332711,599616192920507962,63
1711124332719,599616192928171533,32
1711124332727,599616192935835104,30
1711124332734,599616192943498675,72
1711124332742,599616192951162246,110
1711124332750,599616192958825817,141
1711124332757,599616192966489388,127
1711124332765,599616192974152959,39
1711124332773,599616192981816530,-28
1711124332780,599616192989480101,-39
1711124332788,599616192997143672,-58
1711124332796,599616193004807243,-49
1711124332803,599616193012470814,-11
1711124332811,599616193020134385,-30
1711124332819,599616193027797956,-70
1711124332825,599616193035461527,-54
1711124332833,599616193043125098,-11
1711124332841,599616193050788669,2
1711124332849,599616193058452240,-4
1711124332857,599616193066115811,-39
1711124332865,599616193073779382,-87
1711124332872,599616193081442953,-89
1711124332880,599616193089106524,-56
1711124332888,599616193096770095,-39
1711124332895,599616193104433666,-35
1711124332903,599616193112097237,-39
1711124332910,599616193119760808,-58
1711124332918,599616193127424379,-56
1711124332926,599616193135087950,-30
1711124332933,599616193142751521,0
1711124332941,599616193150415092,2
1711124332949,599616193158078663,-44
1711124332956,599616193165742234,-94
1711124332964,599616193173405805,-96
1711124332972,599616193181069376,-79
1711124332979,599616193188732947,-68
1711124332987,599616193196396518,-63
1711124332995,599616193204060089,-68
1711124333001,599616193211723660,-72
1711124333009,599616193219387231,-82
1711124333017,599616193227050802,-96
1711124333025,599616193234714373,-115
1711124333033,599616193242377944,-157
1711124333041,599616193250041515,-178
1711124333048,599616193257705086,-166
1711124333056,599616193265368657,-166
1711124333064,599616193273032228,-169
1711124333071,599616193280695799,-136
1711124333079,599616193288359370,-152
1711124333087,599616193296022941,-256
1711124333094,599616193303686512,-315
1711124333102,599616193311350083,-286
1711124333110,599616193319013654,-289
1711124333117,599616193326677225,-319
1711124333125,599616193334340796,-329
1711124333133,599616193342004367,-352
1711124333140,599616193349667938,-397
1711124333148,599616193357331509,-413
1711124333156,599616193364995080,-399
1711124333163,599616193372658651,-390
1711124333171,599616193380322222,-390
1711124333179,599616193387985793,-381
1711124333185,599616193395649364,-355
1711124333193,599616193403312935,-329
1711124333201,599616193410976506,-324
1711124333209,599616193418640077,-322
1711124333217,599616193426303648,-298
1711124333225,599616193433927150,-277
1711124333232,599616193441591278,-258
1711124333240,599616193449255406,-228
1711124333248,599616193456919534,-216
1711124333255,599616193464583662,-218
1711124333263,599616193472247790,-211
1711124333271,599616193479911918,-244
1711124333278,599616193487576046,-291
1711124333286,599616193495240174,-268
1711124333294,599616193502904302,-256
1711124333301,599616193510568430,-331
1711124333309,599616193518232558,-369
1711124333317,599616193525896686,-329
1711124333324,599616193533560814,-296
1711124333332,599616193541224942,-270
1711124333340,599616193548889070,-223
1711124333347,599616193556553198,-199
1711124333355,599616193564217326,-204
1711124333363,599616193571881454,-197
1711124333369,599616193579545582,-169
1711124333377,599616193587209710,-136
1711124333385,599616193594873838,-96
1711124333393,599616193602537966,-68
1711124333401,599616193610202094,-63
1711124333409,599616193617866222,-49
1711124333416,599616193625530350,-16
1711124333424,599616193633194478,11
1711124333432,599616193640858606,25
1711124333439,599616193648522734,35
1711124333447,599616193656186862,23
1711124333455,599616193663850990,2
1711124333462,599616193671515118,7
1711124333470,599616193679179246,39
1711124333478,599616193686843374,70
1711124333485,599616193694507502,94
1711124333493,599616193702171630,89
1711124333501,599616193709835758,51
1711124333508,599616193717499886,30
1711124333516,599616193725164014,32
1711124333524,599616193732828142,216
1711124333531,599616193740492270,820
1711124333539,599616193748156398,1368
1711124333547,599616193755820526,726
1711124333553,599616193763484654,-517
1711124333561,599616193771148782,-524
1711124333569,599616193778812910,68
1711124333577,599616193786477038,-16
1711124333585,599616193794141166,-148
1711124333593,599616193801805294,-56
1711124333600,599616193809469422,-124
1711124333608,599616193817133550,-157
1711124333616,599616193824797678,-54
1711124333623,599616193832461806,-21
1711124333631,599616193840125934,-35
1711124333639,599616193847790062,-25
1711124333646,599616193855454190,-25
1711124333654,599616193863118318,-9
1711124333662,599616193870782446,32
1711124333669,599616193878446574,68
1711124333677,599616193886110702,89
1711124333685,599616193893774830,82
1711124333692,599616193901438958,58
1711124333700,599616193909103086,75
1711124333707,599616193916767214,115
1711124333715,599616193924431342,143
1711124333723,599616193932095470,159
1711124333729,599616193939759598,162
1711124333737,599616193947423726,150
1711124333745,599616193955087854,155
1711124333753,599616193962751982,183
1711124333761,599616193970416110,181
1711124333769,599616193978080238,122
1711124333776,599616193985744366,77
1711124333784,599616193993428572,75
1711124333792,599616194001092422,70
1711124333799,599616194008756272,72
1711124333807,599616194016420122,98
1711124333815,599616194024083972,96
1711124333822,599616194031747822,47
1711124333830,599616194039411672,-28
1711124333838,599616194047075522,-129
1711124333845,599616194054739372,-197
1711124333853,599616194062403222,-169
1711124333861,599616194070067072,-150
1711124333868,599616194077730922,-209
1711124333876,599616194085394772,-249
1711124333884,599616194093058622,-242
1711124333891,599616194100722472,-239
1711124333899,599616194108386322,-228
1711124333907,599616194116050172,-197
1711124333913,599616194123714022,-188
1711124333921,599616194131377872,-185
1711124333929,599616194139041722,-176
1711124333937,599616194146705572,-169
1711124333945,599616194154369422,-145
1711124333953,599616194162033272,-119
1711124333960,599616194169697122,-122
1711124333968,599616194177360972,-115
1711124333976,599616194185024822,-91
1711124333983,599616194192688672,-89
1711124333991,599616194200352522,-89
1711124333999,599616194208016372,-68
1711124334006,599616194215680222,-84
1711124334014,599616194223344072,-150
1711124334022,599616194231007922,-174
1711124334029,599616194238671772,-162
1711124334037,599616194246335622,-199
1711124334045,599616194253999472,-254
1711124334052,599616194261663322,-279
1711124334060,599616194269327172,-310
1711124334068,599616194276991022,-338
1711124334075,599616194284654872,-333
1711124334083,599616194292318722,-336
1711124334091,599616194299982572,-373
1711124334097,599616194307646422,-463
1711124334105,599616194315310272,-522
1711124334113,599616194322974122,-475
1711124334121,599616194330637972,-425
1711124334129,599616194338301822,-432
1711124334137,599616194345965672,-423
1711124334144,599616194353629522,-392
1711124334152,599616194361293372,-364
1711124334160,599616194368957222,-322
1711124334167,599616194376621072,-282
1711124334175,599616194384284922,-270
1711124334183,599616194391948772,-275
1711124334190,599616194399612622,-268
1711124334198,599616194407276472,-237
1711124334206,599616194414940322,-195
1711124334213,599616194422604172,-155
1711124334221,599616194430268022,-136
1711124334229,599616194437931872,-145
1711124334236,599616194445595722,-152
1711124334244,599616194453259572,-129
1711124334252,599616194460923422,-115
1711124334259,599616194468587272,-145
1711124334267,599616194476251122,-169
1711124334275,599616194483914972,-164
1711124334281,599616194491578822,-171
1711124334289,599616194499242672,-162
1711124334297,599616194506906522,-110
1711124334305,599616194514570372,-65
1711124334313,599616194522234222,-42
1711124334321,599616194529898072,-37
1711124334328,599616194537561922,-58
1711124334336,599616194545225772,-54
1711124334344,599616194552859538,-14
1711124334351,599616194560523806,21
1711124334359,599616194568188074,51
1711124334367,599616194575852342,79
1711124334374,599616194583516610,70
1711124334382,599616194591180878,49
1711124334390,599616194598845146,68
1711124334397,599616194606509414,94
1711124334405,599616194614173682,103
1711124334413,599616194621837950,105
1711124334420,599616194629502218,84
1711124334428,599616194637166486,63
1711124334436,599616194644830754,89
1711124334443,599616194652495022,127
1711124334451,599616194660159290,143
1711124334459,599616194667823558,145
1711124334465,599616194675487826,105
1711124334473,599616194683152094,58
1711124334481,599616194690816362,221
1711124334489,599616194698480630,783
1711124334497,599616194706144898,1439
1711124334505,599616194713809166,1140
1711124334512,599616194721473434,-197
1711124334520,599616194729137702,-757
1711124334528,599616194736801970,-235
1711124334535,599616194744466238,-91
1711124334543,599616194752130506,-258
1711124334551,599616194759794774,-122
1711124334558,599616194767459042,-49
1711124334566,599616194775123310,-145
1711124334574,599616194782787578,-127
1711124334581,599616194790451846,-54
1711124334589,599616194798116114,-39
1711124334597,599616194805780382,-39
1711124334604,599616194813444650,-91
1711124334612,599616194821108918,-199
1711124334620,599616194828773186,-221
1711124334627,599616194836437454,-164
1711124334635,599616194844101722,-131
1711124334641,599616194851765990,-112
1711124334649,599616194859430258,-91
1711124334657,599616194867094526,-77
1711124334665,599616194874758794,-70
1711124334673,599616194882423062,-49
1711124334681,599616194890087330,-9
1711124334688,599616194897751598,21
1711124334696,599616194905415866,28
1711124334704,599616194913080134,32
1711124334711,599616194920744402,-4
1711124334719,599616194928408670,-117
1711124334727,599616194936072938,-169
1711124334734,599616194943737206,-134
1711124334742,599616194951401474,-150
1711124334750,599616194959065742,-228
1711124334757,599616194966730010,-291
1711124334765,599616194974394278,-326
1711124334773,599616194982058546,-333
1711124334780,599616194989722814,-329
1711124334788,599616194997387082,-348
1711124334796,599616195005051350,-362
1711124334803,599616195012715618,-355
1711124334811,599616195020379886,-366
1711124334819,599616195028044154,-390
1711124334825,599616195035708422,-409
1711124334833,599616195043372690,-451
1711124334841,599616195051036958,-479
1711124334849,599616195058701226,-458
1711124334857,599616195066365494,-453
1711124334865,599616195074029762,-477
1711124334872,599616195081694030,-475
1711124334880,599616195089358298,-465
1711124334888,599616195097022566,-463
1711124334895,599616195104686834,-446
1711124334903,599616195112351120,-439
1711124334911,599616195120015388,-446
1711124334918,599616195127679656,-449
1711124334926,599616195135343924,-446
1711124334934,599616195143008192,-432
1711124334941,599616195150672460,-395
1711124334949,599616195158336728,-385
1711124334957,599616195166000996,-458
1711124334964,599616195173665264,-536
1711124334972,599616195181329532,-526
1711124334980,599616195188993800,-482
1711124334987,599616195196658068,-468
1711124334995,599616195204322336,-498
1711124335003,599616195211986604,-583
1711124335009,599616195219650872,-649
1711124335017,599616195227315140,-663
1711124335025,599616195234979408,-682
1711124335033,599616195242643676,-689
1711124335041,599616195250307944,-653
1711124335049,599616195257972212,-630
1711124335056,599616195265636480,-651
1711124335064,599616195273300748,-667
1711124335072,599616195280965016,-644
1711124335079,599616195288629284,-618
1711124335087,599616195296293552,-592
1711124335095,599616195303957820,-550
1711124335102,599616195311622088,-543
1711124335110,599616195319286356,-625
1711124335118,599616195326950624,-686
1711124335125,599616195334614892,-635
1711124335133,599616195342279160,-564
1711124335141,599616195349943428,-543
1711124335148,599616195357607696,-566
1711124335156,599616195365271964,-627
1711124335164,599616195372936232,-625
1711124335171,599616195380600500,-552
1711124335179,599616195388264768,-500
1711124335187,599616195395929036,-468
1711124335193,599616195403593304,-439
1711124335201,599616195411257572,-449
1711124335209,599616195418921840,-449
1711124335217,599616195426586108,-392
1711124335225,599616195434250376,-341
1711124335233,599616195441914644,-317
1711124335240,599616195449578912,-336
1711124335248,599616195457243180,-409
1711124335256,599616195464907448,-453
1711124335263,599616195472571716,-411
1711124335271,599616195480235984,-352
1711124335279,599616195487900252,-315
1711124335286,599616195495564520,-291
1711124335294,599616195503228788,-319
1711124335302,599616195510893056,-397
1711124335309,599616195518557324,-406
1711124335317,599616195526221592,-329
1711124335325,599616195533885860,-268
1711124335332,599616195541550128,-230
1711124335340,599616195549214396,-230
1711124335348,599616195556878664,-312
1711124335355,599616195564542932,-376
1711124335363,599616195572207200,-331
1711124335371,599616195579871468,-277
1711124335377,599616195587535736,-272
1711124335385,599616195595200004,-261
1711124335393,599616195602864272,-254
1711124335401,599616195610528540,-249
1711124335409,599616195618192808,-214
1711124335417,599616195625857076,-169
1711124335424,599616195633521344,-164
1711124335432,599616195641185612,-211
1711124335440,599616195648849880,-218
1711124335447,599616195656514148,47
1711124335455,599616195664178416,696
1711124335463,599616195671842700,1079
1711124335470,599616195679506968,282
1711124335478,599616195687171236,-766
1711124335486,599616195694835504,-618
1711124335493,599616195702499772,-218
1711124335501,599616195710164040,-392
1711124335509,599616195717828308,-390
1711124335516,599616195725492576,-202
1711124335524,599616195733156844,-237
1711124335532,599616195740821112,-270
1711124335539,599616195748485380,-230
1711124335547,599616195756149648,-282
1711124335555,599616195763813916,-303
1711124335561,599616195771478184,-235
1711124335569,599616195779142452,-209
1711124335577,599616195786806720,-204
1711124335585,599616195794470988,-166
1711124335593,599616195802135256,-148
1711124335601,599616195809799524,-145
1711124335608,599616195817463792,-162
1711124335616,599616195825128060,-251
1711124335624,599616195832792328,-293
1711124335631,599616195840456596,-237
1711124335639,599616195848120864,-258
1711124335647,599616195855785132,-333
1711124335654,599616195863449400,-298
1711124335662,599616195871113668,-235
1711124335670,599616195878777936,-216
1711124335677,599616195886442204,-171
1711124335685,599616195894106472,-122
1711124335693,599616195901770740,-115
1711124335700,599616195909435008,-105
1711124335708,599616195917099276,-87
1711124335715,599616195924763544,-68
1711124335723,599616195932427812,-35
1711124335731,599616195940092080,-28
1711124335737,599616195947756348,-79
1711124335745,599616195955420616,-127
1711124335753,599616195963084884,-134
1711124335761,599616195970749152,-127
1711124335769,599616195978413420,-101
1711124335777,599616195986077688,-79
1711124335784,599616195993741956,-105
1711124335792,599616196001406224,-145
1711124335800,599616196009070492,-138
1711124335807,599616196016734760,-117
1711124335815,599616196024399028,-131
1711124335823,599616196032063296,-162
1711124335830,599616196039727564,-206
1711124335838,599616196047391832,-293
1711124335846,599616196055056100,-350
1711124335853,599616196062720368,-305
1711124335861,599616196070384636,-246
1711124335869,599616196078048904,-228
1711124335876,599616196085713172,-211
1711124335884,599616196093377440,-209
1711124335892,599616196101041708,-228
1711124335899,599616196108705976,-209
1711124335907,599616196116370244,-155
1711124335915,599616196124034512,-124
1711124335921,599616196131698780,-110
1711124335929,599616196139363048,-105
1711124335937,599616196147027316,-122
1711124335945,599616196154691584,-124
1711124335953,599616196162355852,-84
1711124335961,599616196170020120,-56
1711124335968,599616196177684388,-58
1711124335976,599616196185348656,-82
1711124335984,599616196193012924,-155
1711124335991,599616196200677192,-225
1711124335999,599616196208341460,-228
1711124336007,599616196216005728,-232
1711124336014,599616196223669996,-272
1711124336022,599616196231334280,-298
1711124336030,599616196238998548,-366
1711124336037,599616196246662816,-442
1711124336045,599616196254327084,-411
1711124336053,599616196261991352,-348
1711124336060,599616196269655620,-329
1711124336068,599616196277319888,-315
1711124336076,599616196284984156,-317
1711124336083,599616196292648424,-326
1711124336091,599616196300312692,-291
1711124336099,599616196307976960,-242
1711124336105,599616196315641228,-214
1711124336113,599616196323305496,-244
1711124336121,599616196330969764,-371
1711124336129,599616196338634032,-486
1711124336137,599616196346298300,-472
1711124336145,599616196353962568,-416
1711124336152,599616196361626836,-397
1711124336160,599616196369291104,-369
1711124336168,599616196376955372,-350
1711124336175,599616196384619640,-406
1711124336183,599616196392283908,-463
1711124336191,599616196399948176,-416
1711124336198,599616196407612444,-338
1711124336206,599616196415276712,-310
1711124336214,599616196422940980,-286
1711124336221,599616196430605248,-258
1711124336229,599616196438269516,-272
1711124336237,599616196445933784,-282
1711124336244,599616196453598052,-237
1711124336252,599616196461262320,-190
1711124336260,599616196468926588,-169
1711124336267,599616196476590856,-136
1711124336275,599616196484255124,-105
1711124336283,599616196491919392,-84
1711124336289,599616196499583660,-56
1711124336297,599616196507247928,-37
1711124336305,599616196514912196,-39
1711124336313,599616196522576464,-42
1711124336321,599616196530240732,-39
1711124336329,599616196537905000,-35
1711124336336,599616196545569268,-7
1711124336344,599616196553233536,23
1711124336352,599616196560897804,23
1711124336359,599616196568562072,35
1711124336367,599616196576226340,21
1711124336375,599616196583890608,-68
1711124336382,599616196591554876,-23
1711124336390,599616196599219144,416
1711124336398,599616196606883412,1117
1711124336405,599616196614547680,1272
1711124336413,599616196622211948,251
1711124336421,599616196629876216,-637
1711124336428,599616196637540484,-254
1711124336436,599616196645204752,119
1711124336444,599616196652869020,-98
1711124336451,599616196660533288,-56
1711124336459,599616196668197556,141
1711124336467,599616196675861824,94
1711124336473,599616196683526092,21
1711124336481,599616196691190360,28
1711124336489,599616196698854628,23
1711124336497,599616196706518896,21
1711124336505,599616196714183164,37
1711124336513,599616196721847432,18
1711124336520,599616196729511700,-58
1711124336528,599616196737175968,-103
1711124336536,599616196744840236,-63
1711124336543,599616196752504504,-16
1711124336551,599616196760168772,9
1711124336559,599616196767833040,44
1711124336566,599616196775497308,61
1711124336574,599616196783161576,56
1711124336582,599616196790820892,68
1711124336589,599616196798485229,105
1711124336597,599616196806149566,150
1711124336605,599616196813813903,185
1711124336612,599616196821478240,190
1711124336620,599616196829142577,131
1711124336628,599616196836806914,25
1711124336635,599616196844471251,-4
1711124336643,599616196852135588,54
1711124336651,599616196859799925,89
1711124336657,599616196867464262,58
1711124336665,599616196875128599,-21
1711124336673,599616196882792936,-96
1711124336681,599616196890457273,-110
1711124336689,599616196898121610,-87
1711124336697,599616196905785947,-68
1711124336704,599616196913450284,-51
1711124336712,599616196921114621,-47
1711124336720,599616196928778958,-91
1711124336727,599616196936443295,-138
1711124336735,599616196944107632,-119
1711124336743,599616196951771969,-72
1711124336750,599616196959436306,-54
1711124336758,599616196967100643,-94
1711124336765,599616196974764980,-183
1711124336773,599616196982429317,-209
1711124336781,599616196990093654,-183
1711124336788,599616196997757991,-188
1711124336796,599616197005422328,-178
1711124336804,599616197013086665,-157
1711124336811,599616197020751002,-185
1711124336819,599616197028415339,-204
1711124336827,599616197036079676,-164
1711124336833,599616197043744013,-122
1711124336841,599616197051408350,-96
1711124336849,599616197059072687,-103
1711124336857,599616197066737024,-197
1711124336865,599616197074401361,-296
1711124336873,599616197082065698,-265
1711124336880,599616197089730035,-197
1711124336888,599616197097394372,-176
1711124336896,599616197105058709,-157
1711124336903,599616197112723046,-155
1711124336911,599616197120387383,-171
1711124336919,599616197128051720,-148
1711124336926,599616197135716057,-98
1711124336934,599616197143380394,-65
1711124336942,599616197151044731,-49
1711124336949,599616197158709068,-75
1711124336957,599616197166373405,-143
1711124336965,599616197174037742,-204
1711124336972,599616197181702079,-263
1711124336980,599616197189366416,-303
1711124336988,599616197197030753,-293
1711124336995,599616197204695090,-286
1711124337003,599616197212359427,-301
1711124337011,599616197220023764,-293
1711124337017,599616197227688101,-256
1711124337025,599616197235352438,-225
1711124337033,599616197243016775,-228
1711124337041,599616197250681112,-242
1711124337049,599616197258345449,-272
1711124337057,599616197266009786,-336
1711124337064,599616197273674123,-352
1711124337072,599616197281338460,-291
1711124337080,599616197289002797,-251
1711124337087,599616197296667134,-251
1711124337095,599616197304331471,-232
1711124337103,599616197311995808,-209
1711124337110,599616197319660145,-195
1711124337118,599616197327324482,-162
1711124337126,599616197334988819,-185
1711124337133,599616197342653156,-279
1711124337141,599616197350297472,-291
1711124337149,599616197357962088,-232
1711124337156,599616197365626704,-216
1711124337164,599616197373291320,-195
1711124337172,599616197380955936,-150
1711124337179,599616197388620552,-138
1711124337187,599616197396285168,-129
1711124337195,599616197403949784,-122
1711124337201,599616197411614400,-171
1711124337209,599616197419279016,-235
1711124337217,599616197426943632,-244
1711124337225,599616197434608248,-232
1711124337233,599616197442272864,-216
1711124337241,599616197449937480,-204
1711124337248,599616197457602096,-254
1711124337256,599616197465266712,-315
1711124337264,599616197472931328,-289
1711124337271,599616197480595944,-239
1711124337279,599616197488260560,-216
1711124337287,599616197495925176,-164
1711124337294,599616197503589792,-129
1711124337302,599616197511254408,-127
1711124337310,599616197518919024,-119
1711124337317,599616197526583640,-117
1711124337325,599616197534248256,-21
1711124337333,599616197541912872,418
1711124337340,599616197549577488,1140
1711124337348,599616197557242104,1272
1711124337356,599616197564906720,214
1711124337363,599616197572571336,-637
1711124337371,599616197580235952,-225
1711124337379,599616197587900568,138
1711124337385,599616197595565184,-75
1711124337393,599616197603229800,-105
1711124337401,599616197610894416,-44
1711124337409,599616197618559032,-110
1711124337417,599616197626223648,-91
1711124337425,599616197633888264,-4
1711124337432,599616197641552880,23
1711124337440,599616197649217496,25
1711124337448,599616197656882112,25
1711124337455,599616197664546728,-9
1711124337463,599616197672211344,-56
1711124337471,599616197679875960,-49
1711124337478,599616197687540576,0
1711124337486,599616197695205192,25
1711124337494,599616197702869808,16
1711124337501,599616197710534424,9
1711124337509,599616197718199040,30
1711124337517,599616197725863656,72
1711124337524,599616197733528272,110
1711124337532,599616197741192888,134
1711124337540,599616197748857504,129
1711124337547,599616197756522120,108
1711124337555,599616197764186736,115
1711124337563,599616197771851352,143
1711124337569,599616197779515968,155
1711124337577,599616197787180584,162
1711124337585,599616197794845200,138
1711124337593,599616197802509816,51
1711124337601,599616197810174432,11
1711124337609,599616197817839048,56
1711124337616,599616197825503664,87
1711124337624,599616197833168280,58
1711124337632,599616197840832896,-39
1711124337639,599616197848497512,-169
1711124337647,599616197856162128,-195
1711124337655,599616197863826744,-143
1711124337662,599616197871491360,-117
1711124337670,599616197879155976,-98
1711124337678,599616197886820592,-75
1711124337685,599616197894485208,-87
1711124337693,599616197902149824,-105
1711124337701,599616197909839538,-98
1711124337708,599616197917503806,-110
1711124337716,599616197925168074,-127
1711124337724,599616197932832342,-108
1711124337731,599616197940496610,-134
1711124337739,599616197948160878,-223
1711124337747,599616197955825146,-265
1711124337753,599616197963489414,-263
1711124337761,599616197971153682,-270
1711124337769,599616197978817950,-258
1711124337777,599616197986482218,-265
1711124337785,599616197994146486,-338
1711124337793,599616198001810754,-385
1711124337800,599616198009475022,-338
1711124337808,599616198017139290,-282
1711124337816,599616198024803558,-270
1711124337823,599616198032467826,-272
1711124337831,599616198040132094,-275
1711124337839,599616198047796362,-275
1711124337846,599616198055460630,-246
1711124337854,599616198063124898,-202
1711124337862,599616198070789166,-176
1711124337869,599616198078453434,-171
1711124337877,599616198086117702,-162
1711124337885,599616198093781970,-155
1711124337892,599616198101446238,-141
1711124337900,599616198109110506,-110
1711124337908,599616198116774774,-84
1711124337915,599616198124439042,-89
1711124337923,599616198132103310,-143
1711124337931,599616198139767578,-246
1711124337937,599616198147431846,-329
1711124337945,599616198155096114,-359
1711124337953,599616198162760382,-413
1711124337961,599616198170424650,-465
1711124337969,599616198178088918,-435
1711124337976,599616198185753186,-402
1711124337984,599616198193417454,-409
1711124337992,599616198201081722,-381
1711124337999,599616198208745990,-336
1711124338007,599616198216410258,-326
1711124338015,599616198224074526,-310
1711124338022,599616198231738794,-270
1711124338030,599616198239403062,-256
1711124338038,599616198247067330,-239
1711124338045,599616198254731598,-206
1711124338053,599616198262395866,-188
1711124338061,599616198270060134,-174
1711124338068,599616198277724402,-141
1711124338076,599616198285388670,-129
1711124338084,599616198293052938,-131
1711124338091,599616198300717206,-115
1711124338099,599616198308381474,-110
1711124338107,599616198316045742,-115
1711124338113,599616198323710010,-79
1711124338121,599616198331374278,-32
1711124338129,599616198339038546,-51
1711124338137,599616198346702814,-141
1711124338145,599616198354367082,-188
1711124338153,599616198362031350,-134
1711124338160,599616198369695618,-61
1711124338168,599616198377359886,-44
1711124338176,599616198385024154,-103
1711124338183,599616198392688422,-164
1711124338191,599616198400352690,-169
1711124338199,599616198408016958,-188
1711124338206,599616198415681226,-223
1711124338214,599616198423345494,-195
1711124338222,599616198431009762,-159
1711124338229,599616198438674030,-164
1711124338237,599616198446338298,-152
1711124338245,599616198454002566,-112
1711124338252,599616198461666834,-79
1711124338260,599616198469331120,-70
1711124338268,599616198476995388,-56
1711124338275,599616198484659656,115
1711124338283,599616198492323924,646
1711124338291,599616198499988192,1258
1711124338297,599616198507652460,924
1711124338305,599616198515316728,-254
1711124338313,599616198522980996,-587
1711124338321,599616198530645264,-174
1711124338329,599616198538309532,-268
1711124338337,599616198545973800,-406
1711124338344,599616198553638068,-185
1711124338352,599616198561302336,-119
1711124338360,599616198568966604,-166
1711124338367,599616198576630872,-115
1711124338375,599616198584295140,-101
1711124338383,599616198591959408,-110
1711124338390,599616198599623676,-54
1711124338398,599616198607287944,2
1711124338406,599616198614952212,23
1711124338413,599616198622616480,37
1711124338421,599616198630280748,30
1711124338429,599616198637945016,30
1711124338436,599616198645609284,65
1711124338444,599616198653273552,58
1711124338452,599616198660937820,4
1711124338459,599616198668602088,-21
1711124338467,599616198676266356,-82
1711124338475,599616198683930624,-152
1711124338481,599616198691594892,-110
1711124338489,599616198699259160,-30
1711124338497,599616198706923428,0
1711124338505,599616198714587696,21
1711124338513,599616198722251964,30
1711124338521,599616198729916232,23
1711124338528,599616198737580500,51
1711124338536,599616198745244768,101
1711124338544,599616198752909036,127
1711124338551,599616198760573304,136
1711124338559,599616198768237572,122
1711124338567,599616198775901840,96
1711124338574,599616198783566108,94
1711124338582,599616198791230376,115
1711124338590,599616198798894644,117
1711124338597,599616198806558912,115
1711124338605,599616198814223180,105
1711124338613,599616198821887448,87
1711124338620,599616198829551716,77
1711124338628,599616198837215984,89
1711124338636,599616198844880252,63
1711124338643,599616198852544520,-39
1711124338651,599616198860208788,-119
1711124338659,599616198867873056,-141
1711124338665,599616198875537324,-185
1711124338673,599616198883201592,-202
1711124338681,599616198890865860,-152
1711124338689,599616198898530128,-157
1711124338697,599616198906194396,-218
1711124338705,599616198913858664,-221
1711124338712,599616198921522932,-190
1711124338720,599616198929187200,-181
1711124338728,599616198936851468,-162
1711124338735,599616198944515736,-162
1711124338743,599616198952180004,-195
1711124338751,599616198959844272,-199
1711124338758,599616198967508540,-188
1711124338766,599616198975172808,-188
1711124338774,599616198982837076,-157
1711124338781,599616198990501344,-134
1711124338789,599616198998165612,-150
1711124338797,599616199005829880,-141
1711124338804,599616199013494148,-115
1711124338812,599616199021158416,-131
1711124338820,599616199028822700,-141
1711124338827,599616199036486968,-122
1711124338835,599616199044151236,-117
1711124338843,599616199051815504,-105
1711124338849,599616199059479772,-98
1711124338857,599616199067144040,-166
1711124338865,599616199074808308,-246
1711124338873,599616199082472576,-223
1711124338881,599616199090136844,-185
1711124338889,599616199097801112,-188
1711124338896,599616199105465380,-157
1711124338904,599616199113129648,-188
1711124338912,599616199120793916,-298
1711124338919,599616199128458184,-331
1711124338927,599616199136122452,-331
1711124338935,599616199143786720,-402
1711124338942,599616199151450988,-451
1711124338950,599616199159115256,-430
1711124338958,599616199166779524,-418
1711124338965,599616199174443792,-420
1711124338973,599616199182108060,-402
1711124338981,599616199189772328,-371
1711124338988,599616199197436596,-345
1711124338996,599616199205100864,-355
1711124339003,599616199212765132,-413
1711124339011,599616199220429400,-465
1711124339019,599616199228093668,-444
1711124339025,599616199235757936,-385
1711124339033,599616199243422204,-338
1711124339041,599616199251086472,-298
1711124339049,599616199258750740,-277
1711124339057,599616199266415008,-279
1711124339065,599616199274079276,-268
1711124339072,599616199281743544,-225
1711124339080,599616199289407812,-171
1711124339088,599616199297072080,-112
1711124339095,599616199304736348,-65
1711124339103,599616199312400616,-65
1711124339111,599616199320064884,-87
1711124339118,599616199327729152,-65
1711124339126,599616199335393420,-35
1711124339134,599616199343057688,-25
1711124339141,599616199350721956,-58
1711124339149,599616199358386224,-159
1711124339157,599616199366050492,-223
1711124339164,599616199373714760,-181
1711124339172,599616199381379028,-136
1711124339180,599616199389043296,-159
1711124339187,599616199396707564,-214
1711124339195,599616199404371832,-286
1711124339203,599616199412036100,-258
1711124339209,599616199419700368,176
1711124339217,599616199427364636,940
1711124339225,599616199435028904,1055
1711124339233,599616199442693172,-32
1711124339241,599616199450357440,-816
1711124339249,599616199458021708,-369
1711124339256,599616199465685976,-54
1711124339264,599616199473350244,-237
1711124339272,599616199481014512,-134
1711124339279,599616199488678780,42
1711124339287,599616199496343048,-9
1711124339295,599616199504007316,-37
1711124339302,599616199511671584,11
1711124339310,599616199519335852,30
1711124339318,599616199527000120,65
1711124339325,599616199534664388,119
1711124339333,599616199542328656,138
1711124339341,599616199549992924,122
1711124339348,599616199557657192,91
1711124339356,599616199565321460,96
1711124339364,599616199572985728,145
1711124339371,599616199580649996,183
1711124339379,599616199588314280,202
1711124339387,599616199595978548,183
1711124339393,599616199603642816,103
1711124339401,599616199611307084,47
1711124339409,599616199618971352,91
1711124339417,599616199626635620,145
1711124339425,599616199634299888,129
1711124339433,599616199641964156,65
1711124339440,599616199649628424,-11
1711124339448,599616199657292692,-63
1711124339456,599616199664956960,-49
1711124339463,599616199672621228,2
1711124339471,599616199680285496,23
1711124339479,599616199687949764,23
1711124339486,599616199695614032,23
1711124339494,599616199703278300,9
1711124339502,599616199710942568,4
1711124339509,599616199718606836,21
1711124339517,599616199726271104,14
1711124339525,599616199733935372,-28
1711124339532,599616199741599640,-70
1711124339540,599616199749263908,-129
1711124339548,599616199756928176,-185
1711124339555,599616199764592444,-159
1711124339563,599616199772256712,-112
1711124339571,599616199779920980,-110
1711124339577,599616199787585248,-91
1711124339585,599616199795249516,-58
1711124339593,599616199802913784,-51
1711124339601,599616199810578052,-35
1711124339609,599616199818242320,0
1711124339617,599616199825906588,9
1711124339624,599616199833570856,23
1711124339632,599616199841235124,58
1711124339640,599616199848899392,68
1711124339647,599616199856563660,25
1711124339655,599616199864227928,-56
1711124339663,599616199871892196,-108
1711124339670,599616199879556464,-101
1711124339678,599616199887220732,-119
1711124339686,599616199894885000,-164
1711124339693,599616199902549268,-148
1711124339701,599616199910213536,-129
1711124339709,599616199917877804,-185
1711124339716,599616199925542072,-225
1711124339724,599616199933206340,-192
1711124339732,599616199940870608,-209
1711124339739,599616199948534876,-289
1711124339747,599616199956199144,-296
1711124339755,599616199963863412,-254
1711124339761,599616199971527680,-237
1711124339769,599616199979191948,-202
1711124339777,599616199986856216,-185
1711124339785,599616199994520484,-246
1711124339793,599616200002184752,-291
1711124339801,599616200009849020,-258
1711124339808,599616200017513288,-216
1711124339816,599616200025177556,-190
1711124339824,599616200032841824,-159
1711124339831,599616200040506092,-148
1711124339839,599616200048170360,-157
1711124339847,599616200055834628,-148
1711124339854,599616200063498896,-112
1711124339862,599616200071163164,-72
1711124339870,599616200078827432,-39
1711124339877,599616200086491700,-84
1711124339885,599616200094155968,-216
1711124339893,599616200101820236,-282
1711124339900,599616200109484504,-268
1711124339908,599616200117148772,-275
1711124339916,599616200124813040,-293
1711124339923,599616200132477308,-322
1711124339931,599616200140141576,-378
1711124339939,599616200147800892,-395
1711124339945,599616200155465229,-345
1711124339953,599616200163129566,-298
1711124339961,599616200170793903,-268
1711124339969,599616200178458240,-230
1711124339977,599616200186122577,-223
1711124339985,599616200193786914,-244
1711124339992,599616200201451251,-228
1711124340000,599616200209115588,-176
1711124340008,599616200216779925,-141
1711124340015,599616200224444262,-105
1711124340023,599616200232108599,-91
1711124340031,599616200239772936,-141
1711124340038,599616200247437273,-171
1711124340046,599616200255101610,-124
1711124340053,599616200262765947,-87
1711124340061,599616200270430284,-98
1711124340069,599616200278094621,-119
1711124340076,599616200285758958,-183
1711124340084,599616200293423295,-235
1711124340092,599616200301087632,-185
1711124340099,599616200308751969,-115
1711124340107,599616200316416306,-89
1711124340115,599616200324080643,-68
1711124340121,599616200331744980,-79
1711124340129,599616200339409317,-117
1711124340137,599616200347073654,18
1711124340145,599616200354737991,533
1711124340153,599616200362402328,1237
1711124340161,599616200370066665,1119
1711124340168,599616200377731002,-206
1711124340176,599616200385395339,-971
1711124340184,599616200393059676,-413
1711124340191,599616200400724013,-115
1711124340199,599616200408388350,-310
1711124340207,599616200416052687,-192
1711124340214,599616200423717024,-58
1711124340222,599616200431381361,-141
1711124340230,599616200439045698,-131
1711124340237,599616200446710035,-51
1711124340245,599616200454374372,-39
1711124340253,599616200462038709,-25
1711124340260,599616200469703046,9
1711124340268,599616200477367383,-23
1711124340276,599616200485031720,-87
1711124340283,599616200492696057,-75
1711124340291,599616200500360394,-7
1711124340299,599616200508024731,23
1711124340305,599616200515689068,32
1711124340313,599616200523353405,51
1711124340321,599616200531017742,63
1711124340329,599616200538682079,72
1711124340337,599616200546346416,110
1711124340345,599616200554010753,145
1711124340352,599616200561675090,157
1711124340360,599616200569339427,164
1711124340368,599616200577003764,176
1711124340375,599616200584668101,188
1711124340383,599616200592332438,214
1711124340391,599616200599996775,235
1711124340398,599616200607661112,230
1711124340406,599616200615325449,221
1711124340414,599616200622989786,181
1711124340421,599616200630654123,112
1711124340429,599616200638318460,105
1711124340437,599616200645982797,127
1711124340444,599616200653647134,98
1711124340452,599616200661311471,82
1711124340460,599616200668975808,84
1711124340467,599616200676640145,18
1711124340475,599616200684304482,-47
1711124340483,599616200691968819,-28
1711124340489,599616200699633156,-7
1711124340497,599616200707307568,-9
1711124340505,599616200714971766,18
1711124340513,599616200722635964,37
1711124340521,599616200730300162,30
1711124340529,599616200737964360,42
1711124340536,599616200745628558,58
1711124340544,599616200753292756,63
1711124340552,599616200760956954,82
1711124340559,599616200768621152,68
1711124340567,599616200776285350,-14
1711124340575,599616200783949548,-61
1711124340582,599616200791613746,-39
1711124340590,599616200799277944,-35
1711124340598,599616200806942142,-32
1711124340605,599616200814606340,-23
1711124340613,599616200822270538,-72
1711124340621,599616200829934736,-141
1711124340628,599616200837598934,-129
1711124340636,599616200845263132,-82
1711124340644,599616200852927330,-54
1711124340651,599616200860591528,-28
1711124340659,599616200868255726,-51
1711124340667,599616200875919924,-164
1711124340673,599616200883584122,-242
1711124340681,599616200891248320,-214
1711124340689,599616200898912518,-171
1711124340697,599616200906576716,-155
1711124340705,599616200914240914,-166
1711124340713,599616200921905112,-237
1711124340720,599616200929569310,-284
1711124340728,599616200937233508,-244
1711124340736,599616200944897706,-190
1711124340743,599616200952561904,-164
1711124340751,599616200960226102,-141
1711124340759,599616200967890300,-145
1711124340766,599616200975554498,-176
1711124340774,599616200983218696,-174
1711124340782,599616200990882894,-131
1711124340789,599616200998547092,-91
1711124340797,599616201006211290,-70
1711124340805,599616201013875488,-110
1711124340812,599616201021539686,-202
1711124340820,599616201029203884,-218
1711124340828,599616201036868082,-159
1711124340835,599616201044532280,-141
1711124340843,599616201052196478,-166
1711124340851,599616201059860676,-197
1711124340857,599616201067524874,-254
1711124340865,599616201075189072,-303
1711124340873,599616201082853270,-279
1711124340881,599616201090517468,-232
1711124340889,599616201098181666,-218
1711124340897,599616201105845864,-209
1711124340904,599616201113510062,-228
1711124340912,599616201121174260,-277
1711124340920,599616201128838458,-268
1711124340927,599616201136502656,-211
1711124340935,599616201144166854,-178
1711124340943,599616201151831052,-183
1711124340950,599616201159495250,-244
1711124340958,599616201167159448,-329
1711124340966,599616201174823646,-315
1711124340973,599616201182487844,-232
1711124340981,599616201190152042,-174
1711124340989,599616201197816240,-141
1711124340996,599616201205480438,-136
1711124341004,599616201213144636,-150
1711124341012,599616201220808834,-141
1711124341019,599616201228473032,-108
1711124341027,599616201236137230,-75
1711124341035,599616201243801428,-49
1711124341041,599616201251465626,-39
1711124341049,599616201259129824,-42
1711124341057,599616201266758926,-32
1711124341065,599616201274423612,2
1711124341073,599616201282088298,30
1711124341080,599616201289752984,16
1711124341088,599616201297417670,37
1711124341096,599616201305082356,310
1711124341103,599616201312747042,896
1711124341111,599616201320411728,1246
1711124341119,599616201328076414,505
1711124341126,599616201335741100,-569
1711124341134,599616201343405786,-489
1711124341142,599616201351070472,-4
1711124341149,599616201358735158,-119
1711124341157,599616201366399844,-235
1711124341165,599616201374064530,-159
1711124341172,599616201381729216,-239
1711124341180,599616201389393902,-296
1711124341188,599616201397058588,-209
1711124341195,599616201404723274,-174
1711124341203,599616201412387960,-176
1711124341211,599616201420052646,-124
1711124341217,599616201427717332,-77
1711124341225,599616201435382018,-68
1711124341233,599616201443046704,-47
1711124341241,599616201450711390,-47
1711124341249,599616201458376076,-105
1711124341257,599616201466040762,-124
1711124341264,599616201473705448,-72
1711124341272,599616201481370134,-49
1711124341280,599616201489034820,-42
1711124341287,599616201496699506,-2
1711124341295,599616201504364192,11
1711124341303,599616201512028878,0
1711124341310,599616201519693564,11
1711124341318,599616201527358250,37
1711124341326,599616201535022936,58
1711124341333,599616201542687622,98
1711124341341,599616201550352308,127
1711124341349,599616201558016994,129
1711124341356,599616201565681680,141
1711124341364,599616201573346366,152
1711124341372,599616201581011052,159
1711124341379,599616201588675738,178
1711124341387,599616201596340424,195
1711124341395,599616201604005110,176
1711124341401,599616201611669796,110
1711124341409,599616201619334482,42
1711124341417,599616201626999168,35
1711124341425,599616201634663854,58
1711124341433,599616201642328540,49
1711124341441,599616201649993226,-18
1711124341448,599616201657657912,-98
1711124341456,599616201665322598,-112
1711124341464,599616201672987284,-79
1711124341471,599616201680651970,-54
1711124341479,599616201688316656,-39
1711124341487,599616201695981342,-77
1711124341494,599616201703646028,-162
1711124341502,599616201711310714,-185
1711124341510,599616201718975400,-136
1711124341517,599616201726640086,-96
1711124341525,599616201734304772,-68
1711124341533,599616201741969458,-42
1711124341540,599616201749634144,-42
1711124341548,599616201757298830,-56
1711124341556,599616201764963516,-35
1711124341563,599616201772628202,9
1711124341571,599616201780292888,39
1711124341579,599616201787957574,54
1711124341585,599616201795622260,49
1711124341593,599616201803286946,28
1711124341601,599616201810951632,35
1711124341609,599616201818616318,70
1711124341617,599616201826311120,87
1711124341625,599616201833975388,84
1711124341632,599616201841639656,42
1711124341640,599616201849303924,-49
1711124341648,599616201856968192,-119
1711124341655,599616201864632460,-145
1711124341663,599616201872296728,-190
1711124341671,599616201879960996,-275
1711124341678,599616201887625264,-350
1711124341686,599616201895289532,-420
1711124341694,599616201902953800,-460
1711124341701,599616201910618068,-406
1711124341709,599616201918282336,-333
1711124341717,599616201925946604,-305
1711124341724,599616201933610872,-296
1711124341732,599616201941275140,-350
1711124341740,599616201948939408,-437
1711124341747,599616201956603676,-409
1711124341755,599616201964267944,-324
1711124341763,599616201971932212,-289
1711124341769,599616201979596480,-268
1711124341777,599616201987260748,-258
1711124341785,599616201994925016,-263
1711124341793,599616202002589284,-235
1711124341801,599616202010253552,-221
1711124341809,599616202017917820,-246
1711124341816,599616202025582088,-258
1711124341824,599616202033246356,-289
1711124341832,599616202040910624,-350
1711124341839,599616202048574892,-369
1711124341847,599616202056239160,-336
1711124341855,599616202063903428,-296
1711124341862,599616202071567696,-275
1711124341870,599616202079231964,-282
1711124341878,599616202086896232,-333
1711124341885,599616202094560500,-413
1711124341893,599616202102224768,-460
1711124341901,599616202109889036,-446
1711124341908,599616202117553304,-406
1711124341916,599616202125217572,-381
1711124341924,599616202132881840,-352
1711124341931,599616202140546108,-303
1711124341939,599616202148210376,-254
1711124341947,599616202155874644,-228
1711124341953,599616202163538912,-211
1711124341961,599616202171203180,-195
1711124341969,599616202178867448,-181
1711124341977,599616202186531716,-169
1711124341985,599616202194195984,-155
1711124341993,599616202201860252,-115
1711124342000,599616202209524520,-72
1711124342008,599616202217188788,-72
1711124342016,599616202224853056,-89
1711124342023,599616202232517324,-127
1711124342031,599616202240181592,-204
1711124342039,599616202247845860,-188
1711124342046,599616202255510128,124
1711124342054,599616202263174396,776
1711124342062,599616202270838664,1260
1711124342069,599616202278502932,587
1711124342077,599616202286167200,-651
1711124342085,599616202293831468,-670
1711124342092,599616202301495736,-77
1711124342100,599616202309160004,-162
1711124342108,599616202316824272,-261
1711124342115,599616202324488540,-44
1711124342123,599616202332152808,-28
1711124342131,599616202339817076,-115
1711124342137,599616202347481344,-98
1711124342145,599616202355145612,-115
1711124342153,599616202362809880,-119
1711124342161,599616202370474148,-54
1711124342169,599616202378138416,-32
1711124342177,599616202385802700,-91
1711124342184,599616202393466968,-150
1711124342192,599616202401131236,-148
1711124342200,599616202408795504,-117
1711124342207,599616202416459772,-79
1711124342215,599616202424124040,-65
1711124342223,599616202431788308,-117
1711124342230,599616202439452576,-157
1711124342238,599616202447116844,-115
1711124342246,599616202454781112,-63
1711124342253,599616202462445380,-28
1711124342261,599616202470109648,0
1711124342269,599616202477773916,-63
1711124342276,599616202485438184,-197
1711124342284,599616202493102452,-216
1711124342291,599616202500766720,-131
1711124342299,599616202508430988,-89
1711124342307,599616202516095256,-63
1711124342313,599616202523759524,-25
1711124342321,599616202531423792,-30
1711124342329,599616202539088060,-56
1711124342337,599616202546752328,-42
1711124342345,599616202554416596,-11
1711124342353,599616202562080864,2
1711124342360,599616202569745132,2
1711124342368,599616202577409400,-23
1711124342376,599616202585073668,-65
1711124342383,599616202592737936,-101
1711124342391,599616202600402204,-124
1711124342399,599616202608066472,-110
1711124342406,599616202615730740,-72
1711124342414,599616202623395008,-110
1711124342422,599616202631059276,-188
1711124342429,599616202638723544,-166
1711124342437,599616202646387812,-96
1711124342445,599616202654052080,-58
1711124342452,599616202661716348,-21
1711124342460,599616202669380616,0
1711124342468,599616202677044884,-23
1711124342475,599616202684709152,-16
1711124342483,599616202692373420,44
1711124342491,599616202700037688,89
1711124342497,599616202707701956,110
1711124342505,599616202715366224,119
1711124342513,599616202723030492,98
1711124342521,599616202730694760,94
1711124342529,599616202738359028,136
1711124342537,599616202746023296,169
1711124342544,599616202753687564,176
1711124342552,599616202761351832,162
1711124342560,599616202769016100,89
1711124342567,599616202776680368,-11
1711124342575,599616202784344636,-56
1711124342583,599616202792008904,-47
1711124342590,599616202799673172,-25
1711124342598,599616202807337440,-14
1711124342606,599616202815001708,-28
1711124342613,599616202822665976,-49
1711124342621,599616202830330244,-39
1711124342629,599616202837994512,-37
1711124342636,599616202845658780,-75
1711124342644,599616202853323048,-91
1711124342652,599616202860987316,-77
1711124342659,599616202868651584,-77
1711124342667,599616202876315852,-70
1711124342675,599616202883980120,-58
1711124342681,599616202891644388,-112
1711124342689,599616202899308656,-185
1711124342697,599616202906972924,-176
1711124342705,599616202914637192,-152
1711124342713,599616202922301460,-152
1711124342721,599616202929965728,-124
1711124342728,599616202937629996,-89
1711124342736,599616202945294280,-94
1711124342744,599616202952958548,-127
1711124342751,599616202960622816,-181
1711124342759,599616202968287084,-265
1711124342767,599616202975951352,-343
1711124342774,599616202983615620,-336
1711124342782,599616202991279888,-291
1711124342790,599616202998944156,-296
1711124342797,599616203006608424,-303
1711124342805,599616203014272692,-338
1711124342813,599616203021936960,-406
1711124342820,599616203029601228,-402
1711124342828,599616203037265496,-348
1711124342836,599616203044929764,-329
1711124342843,599616203052594032,-296
1711124342851,599616203060258300,-239
1711124342859,599616203067922568,-221
1711124342865,599616203075586836,-218
1711124342873,599616203083251104,-221
1711124342881,599616203090915372,-261
1711124342889,599616203098579640,-272
1711124342897,599616203106243908,-235
1711124342905,599616203113908176,-235
1711124342912,599616203121572444,-242
1711124342920,599616203129236712,-195
1711124342928,599616203136900980,-162
1711124342935,599616203144565248,-145
1711124342943,599616203152229516,-112
1711124342951,599616203159893784,-155
1711124342958,599616203167558052,-174
1711124342966,599616203175222320,174
1711124342974,599616203182886588,898
1711124342981,599616203190550856,1204
1711124342989,599616203198215124,303
1711124342997,599616203205879392,-696
1711124343004,599616203213543660,-418
1711124343012,599616203221207928,35
1711124343020,599616203228872196,-136
1711124343027,599616203236536464,-129
1711124343035,599616203244200732,75
1711124343043,599616203251865000,56
1711124343049,599616203259529268,16
1711124343057,599616203267193536,70
1711124343065,599616203274857804,82
1711124343073,599616203282522072,79
1711124343081,599616203290186340,117
1711124343089,599616203297850608,134
1711124343096,599616203305514876,87
1711124343104,599616203313179144,4
1711124343112,599616203320843412,-21
1711124343119,599616203328507680,-2
1711124343127,599616203336171948,-21
1711124343135,599616203343836216,-32
1711124343142,599616203351500484,4
1711124343150,599616203359164752,16
1711124343158,599616203366829020,4
1711124343165,599616203374493288,39
1711124343173,599616203382157556,101
1711124343181,599616203389821824,129
1711124343188,599616203397486092,96
1711124343196,599616203405150360,0
1711124343204,599616203412814628,-44
1711124343211,599616203420478896,4
1711124343219,599616203428143164,54
1711124343227,599616203435807432,77
1711124343233,599616203443471700,108
1711124343241,599616203451135968,110
1711124343249,599616203458800236,70
1711124343257,599616203466464504,51
1711124343265,599616203474128772,56
1711124343273,599616203481793040,58
1711124343280,599616203489457308,70
1711124343288,599616203497121576,54
1711124343296,599616203504785860,-35
1711124343303,599616203512450128,-94
1711124343311,599616203520114396,-44
1711124343319,599616203527778664,4
1711124343326,599616203535442932,16
1711124343334,599616203543107200,16
1711124343342,599616203550771468,-56
1711124343349,599616203558435736,-148
1711124343357,599616203566100004,-117
1711124343364,599616203573764272,-65
1711124343372,599616203581428540,-110
1711124343380,599616203589092808,-143
1711124343387,599616203596757076,-129
1711124343395,599616203604421344,-134
1711124343403,599616203612085612,-122
1711124343409,599616203619749880,-68
1711124343417,599616203627414148,-30
1711124343425,599616203635078416,-16
1711124343433,599616203642742684,-42
1711124343441,599616203650406952,-129
1711124343449,599616203658071220,-174
1711124343456,599616203665735488,-122
1711124343464,599616203673399756,-65
1711124343472,599616203681064024,-56
1711124343479,599616203688728292,-51
1711124343487,599616203696392560,-49
1711124343495,599616203704056828,-44
1711124343502,599616203711721096,-14
1711124343510,599616203719385364,9
1711124343518,599616203727049632,-23
1711124343525,599616203734713900,-63
1711124343533,599616203742378168,-61
1711124343541,599616203750042436,-56
1711124343548,599616203757706704,-51
1711124343556,599616203765370972,-23
1711124343564,599616203773035240,-4
1711124343571,599616203780699508,-9
1711124343579,599616203788363776,-7
1711124343587,599616203796028044,-2
1711124343593,599616203803692312,-2
1711124343601,599616203811356580,16
1711124343609,599616203819020848,21
1711124343617,599616203826685116,-47
1711124343625,599616203834349384,-117
1711124343633,599616203842013652,-148
1711124343640,599616203849677920,-202
1711124343648,599616203857342188,-206
1711124343656,599616203865006456,-155
1711124343663,599616203872670724,-138
1711124343671,599616203880334992,-129
1711124343679,599616203887999260,-108
1711124343686,599616203895663528,-162
1711124343694,599616203903327796,-289
1711124343702,599616203910992064,-376
1711124343709,599616203918656332,-392
1711124343717,599616203926320600,-378
1711124343725,599616203933984868,-355
1711124343732,599616203941649136,-341
1711124343740,599616203949313404,-331
1711124343748,599616203956977672,-310
1711124343755,599616203964641940,-293
1711124343763,599616203972306208,-275
1711124343771,599616203979970476,-239
1711124343777,599616203987634744,-223
1711124343785,599616203995299012,-230
1711124343793,599616204002963280,-230
1711124343801,599616204010627548,-218
1711124343809,599616204018291816,-185
1711124343817,599616204025956084,-129
1711124343824,599616204033620352,-129
1711124343832,599616204041284620,-221
1711124343840,599616204048948888,-277
1711124343847,599616204056613156,-249
1711124343855,599616204064277440,-232
1711124343863,599616204071941708,-263
1711124343870,599616204079605976,-277
1711124343878,599616204087270244,-261
1711124343886,599616204094934512,-246
1711124343893,599616204102598780,-239
1711124343901,599616204110263048,-204
1711124343909,599616204117927316,-159
1711124343916,599616204125591584,-148
1711124343924,599616204133255852,-185
1711124343932,599616204140920120,-82
1711124343939,599616204148584388,460
1711124343947,599616204156248656,1128
1711124343955,599616204163912924,809
1711124343961,599616204171577192,-395
1711124343969,599616204179241460,-738
1711124343977,599616204186905728,-268
1711124343985,599616204194569996,-277
1711124343993,599616204202234264,-402
1711124344001,599616204209898532,-199
1711124344008,599616204217562800,-117
1711124344016,599616204225227068,-164
1711124344024,599616204232891336,-166
1711124344031,599616204240555604,-204
1711124344039,599616204248219872,-209
1711124344047,599616204255884140,-134
1711124344054,599616204263548408,-77
1711124344062,599616204271212676,-44
1711124344070,599616204278876944,-23
1711124344077,599616204286541212,-35
1711124344085,599616204294205480,-25
1711124344093,599616204301869748,25
1711124344100,599616204309534016,63
1711124344108,599616204317198284,47
1711124344116,599616204324862552,4
1711124344123,599616204332526820,-18
1711124344131,599616204340191088,-4
1711124344139,599616204347855356,39
1711124344145,599616204355519624,77
1711124344153,599616204363183892,94
1711124344161,599616204370848160,101
1711124344169,599616204378512428,51
1711124344177,599616204386176696,-30
1711124344185,599616204393840964,-21
1711124344192,599616204401505232,9
1711124344200,599616204409169500,-68
1711124344208,599616204416833768,-134
1711124344215,599616204424498036,-117
1711124344223,599616204432162304,-117
1711124344231,599616204439826572,-122
1711124344238,599616204447490840,-79
1711124344246,599616204455155108,-44
1711124344254,599616204462819376,-37
1711124344261,599616204470483644,-39
1711124344269,599616204478147912,-49
1711124344277,599616204485812180,-47
1711124344284,599616204493476448,-11
1711124344292,599616204501140716,28
1711124344300,599616204508804984,47
1711124344307,599616204516469252,49
1711124344315,599616204524133520,49
1711124344323,599616204531797788,47
1711124344329,599616204539462056,49
1711124344337,599616204547126324,75
1711124344345,599616204554790592,96
1711124344353,599616204562454860,61
1711124344361,599616204570119128,-32
1711124344369,599616204577783396,-110
1711124344376,599616204585447664,-112
1711124344384,599616204593111932,-65
1711124344392,599616204600776200,-35
1711124344399,599616204608440468,-30
1711124344407,599616204616104736,-11
1711124344415,599616204623769022,4
1711124344422,599616204631433290,7
1711124344430,599616204639097558,35
1711124344437,599616204646761826,63
1711124344445,599616204654426094,58
1711124344453,599616204662090362,54
1711124344460,599616204669754630,16
1711124344468,599616204677418898,-89
1711124344476,599616204685083166,-122
1711124344483,599616204692747434,-75
1711124344491,599616204700411702,-75
1711124344499,599616204708075970,-87
1711124344505,599616204715740238,-98
1711124344513,599616204723404506,-169
1711124344521,599616204731068774,-211
1711124344529,599616204738733042,-171
1711124344537,599616204746397310,-145
1711124344545,599616204754061578,-143
1711124344552,599616204761725846,-105
1711124344560,599616204769390114,-84
1711124344568,599616204777054382,-89
1711124344575,599616204784718650,-70
1711124344583,599616204792382918,-39
1711124344591,599616204800047186,-28
1711124344598,599616204807711454,-37
1711124344606,599616204815375722,-79
1711124344614,599616204823039990,-105
1711124344621,599616204830704258,-87
1711124344629,599616204838368526,-91
1711124344637,599616204846032794,-131
1711124344644,599616204853697062,-134
1711124344652,599616204861361330,-138
1711124344660,599616204869025598,-192
1711124344667,599616204876689866,-221
1711124344675,599616204884354134,-206
1711124344683,599616204892018402,-206
1711124344689,599616204899682670,-225
1711124344697,599616204907346938,-291
1711124344705,599616204915011206,-418
1711124344713,599616204922675474,-486
1711124344721,599616204930339742,-453
1711124344729,599616204938004010,-409
1711124344736,599616204945668278,-371
1711124344744,599616204953332546,-319
1711124344752,599616204960996814,-284
1711124344759,599616204968661082,-289
1711124344767,599616204976325350,-284
1711124344775,599616204983989618,-244
1711124344782,599616204991653886,-195
1711124344790,599616204999318154,-155
1711124344798,599616205006982422,-124
1711124344805,599616205014646690,-124
1711124344813,599616205022310958,-143
1711124344821,599616205029975226,-129
1711124344828,599616205037639494,-87
1711124344836,599616205045303762,-54
1711124344844,599616205052968030,-51
1711124344851,599616205060632298,-96
1711124344859,599616205068296566,-148
1711124344867,599616205075960834,-150
1711124344873,599616205083625102,-110
1711124344881,599616205091289370,-72
1711124344889,599616205098953638,-49
1711124344897,599616205106617906,-65
1711124344905,599616205114282174,-138
1711124344913,599616205121946442,-164
1711124344920,599616205129610710,-101
1711124344928,599616205137274978,-51
1711124344936,599616205144939246,-30
1711124344943,599616205152603514,-7
1711124344951,599616205160267782,-39
1711124344959,599616205167932050,-79
1711124344966,599616205175596318,101
1711124344974,599616205183240586,667
1711124344982,599616205190905132,1331
1711124344989,599616205198569678,1131
1711124344997,599616205206234224,-84
1711124345005,599616205213898770,-667
1711124345012,599616205221563316,-178
1711124345020,599616205229227862,9
1711124345028,599616205236892408,-152
1711124345035,599616205244556954,-51
1711124345043,599616205252221500,-14
1711124345051,599616205259886046,-174
1711124345057,599616205267550592,-190
1711124345065,599616205275215138,-87
1711124345073,599616205282879684,-54
1711124345081,599616205290544230,-44
1711124345089,599616205298208776,-32
1711124345097,599616205305873322,-63
1711124345104,599616205313537868,-72
1711124345112,599616205321202414,-21
1711124345120,599616205328866960,25
1711124345127,599616205336531506,44
1711124345135,599616205344196052,58
1711124345143,599616205351860598,63
1711124345150,599616205359525144,70
1711124345158,599616205367189690,94
1711124345166,599616205374854236,134
1711124345173,599616205382518782,157
1711124345181,599616205390183328,159
1711124345189,599616205397847874,166
1711124345196,599616205405512420,166
1711124345204,599616205413176966,117
1711124345212,599616205420841512,35
1711124345219,599616205428506058,0
1711124345227,599616205436170604,14
1711124345235,599616205443835150,18
1711124345241,599616205451499696,-21
1711124345249,599616205459164242,-79
1711124345257,599616205466828788,-70
1711124345265,599616205474493334,-35
1711124345273,599616205482157880,-49
1711124345281,599616205489822426,-58
1711124345288,599616205497486972,-44
1711124345296,599616205505151518,-54
1711124345304,599616205512816064,-51
1711124345311,599616205520480610,-25
1711124345319,599616205528145156,-16
1711124345327,599616205535809702,-9
1711124345334,599616205543474248,9
1711124345342,599616205551138794,-14
1711124345350,599616205558803340,-44
1711124345357,599616205566467886,-21
1711124345365,599616205574132432,0
1711124345373,599616205581796978,4
1711124345380,599616205589461524,30
1711124345388,599616205597126070,18
1711124345396,599616205604790616,-49
1711124345403,599616205612455162,-89
1711124345411,599616205620119708,-75
1711124345419,599616205627784254,-61
1711124345425,599616205635448800,-49
1711124345433,599616205643113346,-37
1711124345441,599616205650777892,-49
1711124345449,599616205658442438,-61
1711124345457,599616205666106984,-54
1711124345465,599616205673771530,-39
1711124345472,599616205681436076,-14
1711124345480,599616205689100622,-7
1711124345487,599616205696765168,-56
1711124345495,599616205704429714,-119
1711124345503,599616205712094260,-119
1711124345510,599616205719758806,-84
1711124345518,599616205727423352,-65
1711124345526,599616205735087898,-39
1711124345533,599616205742762520,-25
1711124345541,599616205750426927,-47
1711124345549,599616205758091334,-65
1711124345556,599616205765755741,-56
1711124345564,599616205773420148,-65
1711124345572,599616205781084555,-108
1711124345579,599616205788748962,-155
1711124345587,599616205796413369,-239
1711124345595,599616205804077776,-317
1711124345601,599616205811742183,-301
1711124345609,599616205819406590,-246
1711124345617,599616205827070997,-230
1711124345625,599616205834735404,-242
1711124345633,599616205842399811,-345
1711124345641,599616205850064218,-489
1711124345648,599616205857728625,-477
1711124345656,599616205865393032,-385
1711124345664,599616205873057439,-357
1711124345671,599616205880721846,-326
1711124345679,599616205888386253,-296
1711124345687,599616205896050660,-319
1711124345694,599616205903715067,-310
1711124345702,599616205911379474,-256
1711124345710,599616205919043881,-272
1711124345717,599616205926708288,-348
1711124345725,599616205934372695,-357
1711124345733,599616205942037102,-338
1711124345740,599616205949701509,-338
1711124345748,599616205957365916,-303
1711124345756,599616205965030323,-265
1711124345763,599616205972694730,-237
1711124345771,599616205980359137,-206
1711124345779,599616205988023544,-246
1711124345785,599616205995687951,-310
1711124345793,599616206003352358,-270
1711124345801,599616206011016765,-190
1711124345809,599616206018681172,-159
1711124345817,599616206026345579,-138
1711124345825,599616206034009986,-131
1711124345832,599616206041674393,-159
1711124345840,599616206049338800,-169
1711124345848,599616206057003207,-129
1711124345855,599616206064667614,-82
1711124345863,599616206072332021,-61
1711124345871,599616206079996428,-54
1711124345878,599616206087660835,-63
1711124345886,599616206095325242,-49
1711124345894,599616206102989649,18
1711124345901,599616206110654056,89
1711124345909,599616206118318463,108
1711124345917,599616206125982870,89
1711124345924,599616206133647277,61
1711124345932,599616206141311684,42
1711124345940,599616206148976091,56
1711124345947,599616206156640498,89
1711124345955,599616206164304905,101
1711124345963,599616206171969312,101
1711124345969,599616206179633719,79
1711124345977,599616206187298126,4
1711124345985,599616206194962533,-32
1711124345993,599616206202626940,9
1711124346001,599616206210291347,21
1711124346009,599616206217955754,58
1711124346016,599616206225620161,423
1711124346024,599616206233284568,1117
1711124346032,599616206240948975,1349
1711124346039,599616206248613382,411
1711124346047,599616206256277789,-519
1711124346055,599616206263942196,-221
1711124346062,599616206271606603,183
1711124346070,599616206279271010,7
1711124346078,599616206286935417,-11
1711124346085,599616206294599824,101
1711124346093,599616206302274280,49
1711124346101,599616206309938548,23
1711124346108,599616206317602816,63
1711124346116,599616206325267084,35
1711124346124,599616206332931352,-51
1711124346131,599616206340595620,-79
1711124346139,599616206348259888,-35
1711124346147,599616206355924156,-11
1711124346153,599616206363588424,-9
1711124346161,599616206371252692,4
1711124346169,599616206378916960,-32
1711124346177,599616206386581228,-101
1711124346185,599616206394245496,-89
1711124346193,599616206401909764,-44
1711124346200,599616206409574032,-25
1711124346208,599616206417238300,-30
1711124346216,599616206424902568,-105
1711124346223,599616206432566836,-166
1711124346231,599616206440231104,-129
1711124346239,599616206447895372,-89
1711124346246,599616206455559640,-82
1711124346254,599616206463223908,-37
1711124346262,599616206470888176,7
1711124346269,599616206478552444,4
1711124346277,599616206486216712,0
1711124346285,599616206493880980,0
1711124346292,599616206501545248,-14
1711124346300,599616206509209516,0
1711124346308,599616206516873784,21
1711124346315,599616206524538052,-39
1711124346323,599616206532202320,-178
1711124346331,599616206539866588,-286
1711124346337,599616206547530856,-286
1711124346345,599616206555195124,-244
1711124346353,599616206562859392,-230
1711124346361,599616206570523660,-254
1711124346369,599616206578187928,-315
1711124346377,599616206585852196,-348
1711124346384,599616206593516464,-303
1711124346392,599616206601180732,-249
1711124346400,599616206608845000,-214
1711124346407,599616206616509268,-176
1711124346415,599616206624173536,-178
1711124346423,599616206631837804,-197
1711124346430,599616206639502072,-162
1711124346438,599616206647166340,-105
1711124346446,599616206654830608,-72
1711124346453,599616206662494876,-51
1711124346461,599616206670159144,-61
1711124346469,599616206677823412,-98
1711124346476,599616206685487680,-89
1711124346484,599616206693151948,-32
1711124346492,599616206700816216,-14
1711124346499,599616206708480484,-49
1711124346507,599616206716144752,-122
1711124346515,599616206723809020,-239
1711124346521,599616206731473288,-315
1711124346529,599616206739137556,-282
1711124346537,599616206746801824,-244
1711124346545,599616206754466092,-237
1711124346553,599616206762130360,-228
1711124346561,599616206769794628,-244
1711124346568,599616206777458896,-291
1711124346576,599616206785123164,-312
1711124346584,599616206792787432,-291
1711124346591,599616206800451700,-254
1711124346599,599616206808115968,-228
1711124346607,599616206815780236,-232
1711124346614,599616206823444504,-237
1711124346622,599616206831108772,-199
1711124346630,599616206838773040,-150
1711124346637,599616206846437308,-129
1711124346645,599616206854101576,-131
1711124346652,599616206861765860,-162
1711124346660,599616206869430128,-218
1711124346668,599616206877094396,-230
1711124346675,599616206884758664,-178
1711124346683,599616206892422932,-134
1711124346691,599616206900087200,-115
1711124346697,599616206907751468,-124
1711124346705,599616206915415736,-202
1711124346713,599616206923080004,-315
1711124346721,599616206930744272,-369
1711124346729,599616206938408540,-336
1711124346737,599616206946072808,-284
1711124346744,599616206953737076,-268
1711124346752,599616206961401344,-256
1711124346760,599616206969065612,-230
1711124346767,599616206976729880,-183
1711124346775,599616206984394148,-131
1711124346783,599616206992058416,-96
1711124346790,599616206999722684,-75
1711124346798,599616207007386952,-58
1711124346806,599616207015051220,-44
1711124346813,599616207022715488,-58
1711124346821,599616207030379756,-103
1711124346829,599616207038044024,-131
1711124346836,599616207045708292,-108
1711124346844,599616207053372560,-84
1711124346852,599616207061036828,-127
1711124346859,599616207068701096,-183
1711124346867,599616207076365364,-148
1711124346875,599616207084029632,-84
1711124346881,599616207091693900,-72
1711124346889,599616207099358168,-37
1711124346897,599616207107022436,-23
1711124346905,599616207114686704,-108
1711124346913,599616207122350972,-141
1711124346921,599616207130015240,-89
1711124346928,599616207137679508,-79
1711124346936,599616207145343776,-84
1711124346944,599616207153008044,-47
1711124346951,599616207160672312,-30
1711124346959,599616207168336580,-30
1711124346967,599616207176000848,2
1711124346974,599616207183665116,21
1711124346982,599616207191329384,25
1711124346990,599616207198993652,21
1711124346997,599616207206657920,-42
1711124347005,599616207214322188,25
1711124347013,599616207221986456,559
1711124347020,599616207229650724,1234
1711124347028,599616207237314992,945
1711124347036,599616207244979260,-254
1711124347043,599616207252643528,-613
1711124347051,599616207260307796,-51
1711124347059,599616207267972064,7
1711124347065,599616207275636332,-221
1711124347073,599616207283300600,-105
1711124347081,599616207290964868,0
1711124347089,599616207298629136,-44
1711124347097,599616207306293404,-23
1711124347105,599616207313957672,21
1711124347112,599616207321621940,14
1711124347120,599616207329286208,35
1711124347128,599616207336950476,91
1711124347135,599616207344614744,124
1711124347143,599616207352279012,129
1711124347151,599616207359943280,129
1711124347158,599616207367607548,131
1711124347166,599616207375271816,148
1711124347174,599616207382936084,169
1711124347181,599616207390600352,181
1711124347189,599616207398264620,166
1711124347197,599616207405928888,101
1711124347204,599616207413593156,47
1711124347212,599616207421257440,58
1711124347220,599616207428921708,23
1711124347227,599616207436585976,-42
1711124347235,599616207444250244,-14
1711124347243,599616207451914512,18
1711124347249,599616207459578780,-16
1711124347257,599616207467243048,-7
1711124347265,599616207474907316,49
1711124347273,599616207482571584,63
1711124347281,599616207490235852,28
1711124347289,599616207497900120,-58
1711124347296,599616207505564388,-166
1711124347304,599616207513228656,-211
1711124347312,599616207520892924,-232
1711124347319,599616207528557192,-275
1711124347327,599616207536221460,-268
1711124347335,599616207543885728,-244
1711124347342,599616207551549996,-277
1711124347350,599616207559214264,-298
1711124347358,599616207566878532,-270
1711124347365,599616207574542800,-232
1711124347373,599616207582207068,-197
1711124347381,599616207589871336,-181
1711124347388,599616207597535604,-235
1711124347396,599616207605199872,-291
1711124347404,599616207612864140,-249
1711124347411,599616207620528408,-178
1711124347419,599616207628192676,-150
1711124347427,599616207635856944,-124
1711124347433,599616207643521212,-117
1711124347441,599616207651185480,-141
1711124347449,599616207658849748,-150
1711124347457,599616207666514016,-155
1711124347465,599616207674178284,-159
1711124347473,599616207681842552,-185
1711124347480,599616207689506820,-235
1711124347488,599616207697171088,-254
1711124347496,599616207704835356,-232
1711124347503,599616207712499624,-206
1711124347511,599616207720163892,-185
1711124347519,599616207727828160,-171
1711124347526,599616207735492428,-195
1711124347534,599616207743156696,-272
1711124347542,599616207750820964,-331
1711124347549,599616207758485232,-312
1711124347557,599616207766149500,-305
1711124347565,599616207773813768,-343
1711124347572,599616207781478036,-336
1711124347580,599616207789142304,-338
1711124347588,599616207796806572,-392
1711124347595,599616207804470840,-388
1711124347603,599616207812135108,-310
1711124347611,599616207819799376,-272
1711124347617,599616207827463644,-265
1711124347625,599616207835127912,-237
1711124347633,599616207842792180,-211
1711124347641,599616207850456448,-195
1711124347649,599616207858120716,-150
1711124347657,599616207865784984,-110
1711124347664,599616207873449252,-98
1711124347672,599616207881113520,-82
1711124347680,599616207888777788,-63
1711124347687,599616207896442056,-51
1711124347695,599616207904106324,-23
1711124347703,599616207911770592,0
1711124347710,599616207919434860,-16
1711124347718,599616207927099128,-68
1711124347725,599616207934763396,-174
1711124347733,599616207942427664,-284
1711124347741,599616207950091932,-277
1711124347748,599616207957756200,-214
1711124347756,599616207965420468,-195
1711124347764,599616207973084736,-174
1711124347771,599616207980749020,-119
1711124347779,599616207988413288,-101
1711124347787,599616207996077556,-94
1711124347793,599616208003741824,-68
1711124347801,599616208011406092,-94
1711124347809,599616208019070360,-143
1711124347817,599616208026734628,-122
1711124347825,599616208034398896,-138
1711124347833,599616208042063164,-228
1711124347840,599616208049727432,-230
1711124347848,599616208057391700,-171
1711124347856,599616208065055968,-148
1711124347863,599616208072720236,-115
1711124347871,599616208080384504,-77
1711124347879,599616208088048772,-79
1711124347886,599616208095713040,-94
1711124347894,599616208103377308,-87
1711124347902,599616208111041576,-54
1711124347909,599616208118705844,-7
1711124347917,599616208126370112,32
1711124347925,599616208134034380,49
1711124347932,599616208141698648,51
1711124347940,599616208149362916,58
1711124347948,599616208157027184,72
1711124347955,599616208164691452,94
1711124347963,599616208172355720,119
1711124347971,599616208180019988,96
1711124347977,599616208187684256,28
1711124347985,599616208195348524,4
1711124347993,599616208203012792,44
1711124348001,599616208210677060,82
1711124348009,599616208218341328,108
1711124348017,599616208226005596,129
1711124348024,599616208233669864,98
1711124348032,599616208241334132,44
1711124348040,599616208248998400,138
1711124348047,599616208256662668,559
1711124348055,599616208264326936,1201
1711124348063,599616208271991204,1281
1711124348070,599616208279655472,192
1711124348078,599616208287319740,-733
1711124348086,599616208294984008,-373
1711124348093,599616208302648276,14
1711124348101,599616208310312544,-155
1711124348109,599616208317976812,-108
1711124348116,599616208325641080,37
1711124348124,599616208333305348,-39
1711124348132,599616208340969616,-58
1711124348139,599616208348633884,42
1711124348147,599616208356298152,75
1711124348155,599616208363962420,84
1711124348161,599616208371626688,117
1711124348169,599616208379290956,105
1711124348177,599616208386955224,91
1711124348185,599616208394619492,134
1711124348193,599616208402283760,176
1711124348201,599616208409948028,192
1711124348208,599616208417612296,206
1711124348216,599616208425276564,195
1711124348224,599616208432940832,129
1711124348231,599616208440605100,25
1711124348239,599616208448269368,-47
1711124348247,599616208455933636,-35
1711124348254,599616208463597904,-11
1711124348262,599616208471262172,-47
1711124348270,599616208478926440,-91
1711124348277,599616208486590708,-70
1711124348285,599616208494254976,-23
1711124348293,599616208501919244,-30
1711124348300,599616208509583512,-77
1711124348308,599616208517247780,-119
1711124348316,599616208524912048,-181
1711124348323,599616208532576316,-235
1711124348331,599616208540240602,-206
1711124348339,599616208547904870,-152
1711124348345,599616208555569138,-155
1711124348353,599616208563233406,-183
1711124348361,599616208570897674,-239
1711124348369,599616208578561942,-305
1711124348377,599616208586226210,-298
1711124348385,599616208593890478,-242
1711124348392,599616208601554746,-221
1711124348400,599616208609219014,-246
1711124348408,599616208616883282,-286
1711124348415,599616208624547550,-317
1711124348423,599616208632211818,-341
1711124348431,599616208639876086,-343
1711124348438,599616208647540354,-322
1711124348446,599616208655204622,-312
1711124348454,599616208662868890,-322
1711124348461,599616208670533158,-369
1711124348469,599616208678197426,-418
1711124348477,599616208685861694,-385
1711124348484,599616208693525962,-329
1711124348492,599616208701190230,-324
1711124348500,599616208708854498,-303
1711124348507,599616208716518766,-258
1711124348515,599616208724183034,-242
1711124348523,599616208731847302,-218
1711124348529,599616208739511570,-178
1711124348537,599616208747175838,-192
1711124348545,599616208754840106,-237
1711124348553,599616208762504374,-239
1711124348561,599616208770168642,-214
1711124348569,599616208777832910,-192
1711124348576,599616208785497178,-164
1711124348584,599616208793161446,-143
1711124348592,599616208800825714,-129
1711124348599,599616208808489982,-117
1711124348607,599616208816154250,-164
1711124348615,599616208823818518,-216
1711124348622,599616208831482786,-190
1711124348630,599616208839147054,-148
1711124348638,599616208846811322,-136
1711124348645,599616208854475590,-98
1711124348653,599616208862139858,-65
1711124348661,599616208869804126,-63
1711124348668,599616208877468394,-54
1711124348676,599616208885132662,-25
1711124348684,599616208892796930,-4
1711124348691,599616208900461198,23
1711124348699,599616208908125466,61
1711124348707,599616208915789734,63
1711124348713,599616208923454002,51
1711124348721,599616208931118270,54
1711124348729,599616208938782538,21
1711124348737,599616208946446806,-56
1711124348745,599616208954111074,-72
1711124348753,599616208961775342,-37
1711124348760,599616208969439610,-44
1711124348768,599616208977103878,-61
1711124348776,599616208984768146,-42
1711124348783,599616208992432414,-42
1711124348791,599616209000096682,-82
1711124348798,599616209007760950,-141
1711124348806,599616209015425218,-209
1711124348814,599616209023089486,-242
1711124348821,599616209030753754,-199
1711124348829,599616209038418022,-143
1711124348837,599616209046082290,-108
1711124348844,599616209053746558,-79
1711124348852,599616209061410826,-77
1711124348860,599616209069075094,-89
1711124348867,599616209076739362,-58
1711124348875,599616209084403630,-9
1711124348883,599616209092067898,18
1711124348889,599616209099732182,47
1711124348897,599616209107396450,63
1711124348905,599616209115060718,37
1711124348913,599616209122724986,32
1711124348921,599616209130389254,82
1711124348929,599616209138053522,124
1711124348936,599616209145717790,141
1711124348944,599616209153382058,148
1711124348952,599616209161046326,115
1711124348959,599616209168710594,96
1711124348967,599616209176374862,150
1711124348975,599616209184039130,197
1711124348982,599616209191703398,197
1711124348990,599616209199367666,174
1711124348998,599616209207031934,47
1711124349005,599616209214696202,-115
1711124349013,599616209222360470,-110
1711124349021,599616209230024738,-25
1711124349028,599616209237689006,-23
1711124349036,599616209245353274,-75
1711124349044,599616209253017542,-131
1711124349051,599616209260681810,-141
1711124349059,599616209268346078,-105
1711124349067,599616209276010346,-94
1711124349073,599616209283674614,-44
1711124349081,599616209291338882,270
1711124349089,599616209299003150,921
1711124349097,599616209306667418,1331
1711124349105,599616209314331686,585
1711124349113,599616209321995954,-526
1711124349120,599616209329660222,-416
1711124349128,599616209337324490,87
1711124349136,599616209344988758,-96
1711124349143,599616209352653026,-251
1711124349151,599616209360317294,-164
1711124349159,599616209367981562,-197
1711124349166,599616209375645830,-211
1711124349174,599616209383310098,-141
1711124349182,599616209390974366,-134
1711124349189,599616209398638634,-152
1711124349197,599616209406302902,-129
1711124349205,599616209413967170,-96
1711124349212,599616209421631438,-70
1711124349220,599616209429295706,-49
1711124349228,599616209436959974,-37
1711124349235,599616209444624242,-56
1711124349243,599616209452288510,-122
1711124349251,599616209459952778,-150
1711124349257,599616209467617046,-94
1711124349265,599616209475281314,-54
1711124349273,599616209482945582,-75
1711124349281,599616209490609850,-103
1711124349289,599616209498274118,-124
1711124349297,599616209505938386,-115
1711124349304,599616209513602654,-75
1711124349312,599616209521266922,-65
1711124349320,599616209528931190,-108
1711124349327,599616209536595458,-134
1711124349335,599616209544259726,-162
1711124349343,599616209551923994,-254
1711124349350,599616209559588262,-303
1711124349358,599616209567252530,-268
1711124349366,599616209574916798,-256
1711124349373,599616209582581066,-275
1711124349381,599616209590245334,-270
1711124349389,599616209597909602,-275
1711124349396,599616209605573870,-284
1711124349404,599616209613238138,-270
1711124349412,599616209620902406,-268
1711124349419,599616209628566674,-261
1711124349427,599616209636230942,-225
1711124349435,599616209643895210,-206
1711124349441,599616209651559478,-211
1711124349449,599616209659223762,-195
1711124349457,599616209666888030,-169
1711124349465,599616209674552298,-150
1711124349473,599616209682216566,-117
1711124349481,599616209689880834,-98
1711124349488,599616209697545102,-112
1711124349496,599616209705209370,-112
1711124349504,599616209712873638,-96
1711124349511,599616209720537906,-77
1711124349519,599616209728202174,-54
1711124349527,599616209735866442,-82
1711124349534,599616209743530710,-197
1711124349542,599616209751194978,-263
1711124349550,599616209758859246,-218
1711124349557,599616209766523514,-176
1711124349565,599616209774187782,-150
1711124349573,599616209781852050,-115
1711124349580,599616209789516318,-174
1711124349588,599616209797180586,-319
1711124349596,599616209804844854,-352
1711124349603,599616209812509122,-268
1711124349611,599616209820173390,-223
1711124349619,599616209827837658,-197
1711124349625,599616209835501926,-157
1711124349633,599616209843166194,-155
1711124349641,599616209850830462,-164
1711124349649,599616209858494730,-129
1711124349657,599616209866158998,-82
1711124349665,599616209873823266,-63
1711124349672,599616209881487534,-63
1711124349680,599616209889151802,-112
1711124349688,599616209896816070,-181
1711124349695,599616209904480338,-162
1711124349703,599616209912144606,-84
1711124349711,599616209919808874,-47
1711124349718,599616209927473142,-21
1711124349726,599616209935137410,0
1711124349734,599616209942801678,-16
1711124349741,599616209950465946,-35
1711124349749,599616209958130214,-72
1711124349757,599616209965794482,-122
1711124349764,599616209973458750,-105
1711124349772,599616209981123018,-101
1711124349780,599616209988787286,-176
1711124349787,599616209996451554,-185
1711124349795,599616210004115822,-105
1711124349803,599616210011780090,-61
1711124349809,599616210019444358,-35
1711124349817,599616210027108626,-7
1711124349825,599616210034772894,-30
1711124349833,599616210042437162,-54
1711124349841,599616210050101430,-16
1711124349848,599616210057765698,16
1711124349856,599616210065429966,35
1711124349864,599616210073094234,58
1711124349871,599616210080758502,23
1711124349879,599616210088422770,-61
1711124349887,599616210096087038,-72
1711124349894,599616210103751306,-11
1711124349902,599616210111415574,23
1711124349910,599616210119079842,35
1711124349917,599616210126744110,39
1711124349925,599616210134408378,32
1711124349933,599616210142072646,37
1711124349940,599616210149736914,70
1711124349948,599616210157401182,103
1711124349956,599616210165065450,122
1711124349963,599616210172729718,134
1711124349971,599616210180393986,143
1711124349979,599616210188058254,152
1711124349985,599616210195722522,159
1711124349993,599616210203386790,171
1711124350001,599616210211051058,176
1711124350009,599616210218715342,157
1711124350017,599616210226379610,115
1711124350025,599616210234043878,61
1711124350032,599616210241708146,54
1711124350040,599616210249372414,94
1711124350048,599616210257036682,115
1711124350055,599616210264700950,101
1711124350063,599616210272365218,65
1711124350071,599616210280029486,-61
1711124350078,599616210287693754,-166
1711124350086,599616210295358022,101
1711124350094,599616210303022290,778
1711124350101,599616210310686558,1284
1711124350109,599616210318350826,674
1711124350117,599616210326015094,-573
1711124350124,599616210333679362,-736
1711124350132,599616210341343630,-188
1711124350140,599616210349007898,-211
1711124350147,599616210356672166,-336
1711124350155,599616210364336434,-162
1711124350163,599616210372000702,-122
1711124350169,599616210379664970,-197
1711124350177,599616210387329238,-145
1711124350185,599616210394993506,-87
1711124350193,599616210402657774,-110
1711124350201,599616210410322042,-112
1711124350209,599616210417986310,-91
1711124350216,599616210425650578,-148
1711124350224,599616210433314846,-216
1711124350232,599616210440979114,-185
1711124350239,599616210448643382,-145
1711124350247,599616210456307650,-181
1711124350255,599616210463971918,-244
1711124350262,599616210471636186,-282
1711124350270,599616210479300454,-289
1711124350278,599616210486964722,-277
1711124350285,599616210494628990,-265
1711124350293,599616210502293258,-272
1711124350301,599616210509957526,-265
1711124350308,599616210517621794,-268
1711124350316,599616210525286062,-305
1711124350324,599616210532950330,-310
1711124350331,599616210540614598,-282
1711124350339,599616210548278866,-261
1711124350347,599616210555943134,-230
1711124350353,599616210563607402,-202
1711124350361,599616210571271670,-206
1711124350369,599616210578935938,-235
1711124350377,599616210586600206,-256
1711124350385,599616210594264474,-256
1711124350393,599616210601928742,-237
1711124350400,599616210609593010,-221
1711124350408,599616210617257278,-251
1711124350416,599616210624921546,-324
1711124350423,599616210632585814,-357
1711124350431,599616210640250082,-315
1711124350439,599616210647914350,-265
1711124350446,599616210655578618,-230
1711124350454,599616210663242886,-197
1711124350462,599616210670907154,-195
1711124350469,599616210678571422,-206
1711124350477,599616210686235690,-176
1711124350485,599616210693899958,-115
1711124350492,599616210701564226,-75
1711124350500,599616210709228494,-49
1711124350508,599616210716892762,-49
1711124350515,599616210724557030,-96
1711124350523,599616210732221298,-110
1711124350531,599616210739885566,-61
1711124350537,599616210747549834,-18
1711124350545,599616210755214102,-2
1711124350553,599616210762878370,-42
1711124350561,599616210770542638,-143
1711124350569,599616210778206922,-171
1711124350577,599616210785871190,-98
1711124350584,599616210793535458,-56
1711124350592,599616210801199726,-42
1711124350600,599616210808863994,-35
1711124350607,599616210816528262,-103
1711124350615,599616210824192530,-169
1711124350623,599616210831856798,-117
1711124350630,599616210839521066,-49
1711124350638,599616210847185334,-32
1711124350646,599616210854849602,-14
1711124350653,599616210862513870,-16
1711124350661,599616210870178138,-32
1711124350669,599616210877842406,-4
1711124350676,599616210885506674,44
1711124350684,599616210893170942,72
1711124350692,599616210900835210,87
1711124350699,599616210908499478,79
1711124350707,599616210916163746,65
1711124350715,599616210923828014,79
1711124350721,599616210931492282,112
1711124350729,599616210939156550,124
1711124350737,599616210946820818,112
1711124350745,599616210954485086,77
1711124350753,599616210962149354,-14
1711124350761,599616210969813622,-122
1711124350768,599616210977477890,-124
1711124350776,599616210985142158,-63
1711124350784,599616210992806426,-39
1711124350791,599616211000470694,-47
1711124350799,599616211008134962,-84
1711124350807,599616211015799230,-152
1711124350814,599616211023463498,-155
1711124350822,599616211031127766,-96
1711124350830,599616211038792034,-72
1711124350837,599616211046456302,-70
1711124350845,599616211054120570,-54
1711124350853,599616211061784838,-47
1711124350860,599616211069449106,-35
1711124350868,599616211077113374,7
1711124350876,599616211084777642,39
1711124350883,599616211092441910,39
1711124350891,599616211100106178,49
1711124350899,599616211107770446,58
1711124350905,599616211115434714,54
1711124350913,599616211123098982,61
1711124350921,599616211130763250,75
1711124350929,599616211138427518,79
1711124350937,599616211146091786,87
1711124350944,599616211153756054,63
1711124350952,599616211161420322,-4
1711124350960,599616211169084590,-18
1711124350967,599616211176748858,30
1711124350975,599616211184413126,47
1711124350983,599616211192077394,63
1711124350990,599616211199741662,122
1711124350998,599616211207405930,145
1711124351006,599616211215070198,89
1711124351013,599616211222734466,32
1711124351021,599616211230398734,30
1711124351029,599616211238063002,47
1711124351036,599616211245727270,51
1711124351044,599616211253391538,11
1711124351052,599616211261055806,-47
1711124351059,599616211268720074,-47
1711124351067,599616211276384342,-16
1711124351075,599616211284048610,-9
1711124351081,599616211291712878,-7
1711124351089,599616211299377146,-70
1711124351097,599616211307041414,-101
1711124351105,599616211314705682,261
1711124351113,599616211322369950,994
1711124351121,599616211330034218,1180
1711124351128,599616211337698502,197
1711124351136,599616211345362770,-658
1711124351144,599616211353027038,-333
1711124351151,599616211360691306,-28
1711124351159,599616211368355574,-258
1711124351167,599616211376019842,-239
1711124351174,599616211383684110,-75
1711124351182,599616211391348378,-119
1711124351190,599616211399012646,-190
1711124351197,599616211406676914,-206
1711124351205,599616211414341182,-225
1711124351213,599616211422005450,-197
1711124351220,599616211429669718,-141
1711124351228,599616211437333986,-108
1711124351236,599616211444998254,-91
1711124351243,599616211452662522,-108
1711124351251,599616211460326790,-188
1711124351259,599616211467991058,-265
1711124351265,599616211475655326,-244
1711124351273,599616211483319594,-188
1711124351281,599616211490983862,-185
1711124351289,599616211498648130,-246
1711124351297,599616211506312398,-305
1711124351305,599616211513976666,-265
1711124351312,599616211521640934,-188
1711124351320,599616211529305202,-166
1711124351328,599616211536969470,-178
1711124351335,599616211544633738,-199
1711124351343,599616211552298006,-244
1711124351351,599616211559962274,-275
1711124351358,599616211567626542,-242
1711124351366,599616211575290810,-197
1711124351374,599616211582955078,-181
1711124351381,599616211590619346,-185
1711124351389,599616211598283614,-216
1711124351397,599616211605947882,-225
1711124351404,599616211613612150,-195
1711124351412,599616211621276418,-176
1711124351420,599616211628940686,-169
1711124351427,599616211636604954,-166
1711124351435,599616211644269222,-192
1711124351443,599616211651933490,-221
1711124351449,599616211659597758,-204
1711124351457,599616211667262026,-166
1711124351465,599616211674926294,-134
1711124351473,599616211682590562,-119
1711124351481,599616211690254830,-164
1711124351489,599616211697919098,-244
1711124351496,599616211705583366,-277
1711124351504,599616211713247634,-270
1711124351512,599616211720911902,-244
1711124351519,599616211728576170,-209
1711124351527,599616211736240438,-202
1711124351535,599616211743904706,-209
1711124351542,599616211751568974,-176
1711124351550,599616211759233242,-117
1711124351558,599616211766897510,-77
1711124351565,599616211774561778,-56
1711124351573,599616211782226046,-49
1711124351581,599616211789890314,-54
1711124351588,599616211797554582,-39
1711124351596,599616211805218850,0
1711124351604,599616211812883118,37
1711124351611,599616211820547386,56
1711124351619,599616211828211654,44
1711124351627,599616211835875922,-16
1711124351633,599616211843540190,-98
1711124351641,599616211851204458,-110
1711124351649,599616211858868726,-51
1711124351657,599616211866532994,-21
1711124351665,599616211874197262,-25
1711124351673,599616211881861530,-11
1711124351680,599616211889525798,0
1711124351688,599616211897190084,9
1711124351696,599616211904854352,39
1711124351703,599616211912518620,63
1711124351711,599616211920182888,58
1711124351719,599616211927847156,56
1711124351726,599616211935511424,25
1711124351734,599616211943175692,-47
1711124351742,599616211950839960,-84
1711124351749,599616211958504228,-105
1711124351757,599616211966168496,-174
1711124351765,599616211973832764,-251
1711124351772,599616211981497032,-263
1711124351780,599616211989161300,-235
1711124351788,599616211996825568,-211
1711124351795,599616212004489836,-197
1711124351803,599616212012154104,-192
1711124351811,599616212019818372,-169
1711124351817,599616212027482640,-152
1711124351825,599616212035146908,-214
1711124351833,599616212042811176,-272
1711124351841,599616212050475444,-232
1711124351849,599616212058139712,-188
1711124351857,599616212065803980,-171
1711124351864,599616212073468248,-127
1711124351872,599616212081132516,-94
1711124351880,599616212088796784,-96
1711124351887,599616212096461052,-77
1711124351895,599616212104125320,-47
1711124351903,599616212111789588,-28
1711124351910,599616212119453856,7
1711124351918,599616212127118124,39
1711124351926,599616212134782392,39
1711124351933,599616212142446660,35
1711124351941,599616212150110928,47
1711124351949,599616212157775196,70
1711124351956,599616212165439464,98
1711124351964,599616212173103732,115
1711124351972,599616212180768000,108
1711124351979,599616212188432268,87
1711124351987,599616212196096536,44
1711124351993,599616212203760804,2
1711124352001,599616212211425072,23
1711124352009,599616212219089340,75
1711124352017,599616212226753608,32
1711124352025,599616212234417876,-75
1711124352033,599616212242082144,-110
1711124352040,599616212249746412,-68
1711124352048,599616212257410680,-35
1711124352056,599616212265074948,-9
1711124352063,599616212272739216,16
1711124352071,599616212280403484,9
1711124352079,599616212288067752,-7
1711124352086,599616212295732020,16
1711124352094,599616212303396288,49
1711124352102,599616212311060556,44
1711124352109,599616212318724824,94
1711124352117,599616212326389092,399
1711124352125,599616212334053360,1027
1711124352132,599616212341717628,1387
1711124352140,599616212349381896,599
1711124352148,599616212357046164,-453
1711124352155,599616212364710432,-296
1711124352163,599616212372374700,112
1711124352171,599616212380038968,-138
1711124352177,599616212387703236,-204
1711124352185,599616212395367504,7
1711124352193,599616212403031772,-16
1711124352201,599616212410696040,-98
1711124352209,599616212418360308,-63
1711124352217,599616212426024576,-77
1711124352224,599616212433688844,-117
1711124352232,599616212441353112,-105
1711124352240,599616212449017380,-124
1711124352247,599616212456681664,-141
1711124352255,599616212464345932,-108
1711124352263,599616212472010200,-117
1711124352270,599616212479674468,-195
1711124352278,599616212487338736,-228
1711124352286,599616212495003004,-178
1711124352293,599616212502667272,-134
1711124352301,599616212510331540,-122
1711124352309,599616212517995808,-150
1711124352316,599616212525660076,-209
1711124352324,599616212533324344,-209
1711124352332,599616212540988612,-155
1711124352339,599616212548652880,-127
1711124352347,599616212556317148,-105
1711124352355,599616212563981416,-82
1711124352361,599616212571645684,-91
1711124352369,599616212579309952,-119
1711124352377,599616212586974220,-122
1711124352385,599616212594638488,-127
1711124352393,599616212602302756,-164
1711124352401,599616212609967024,-218
1711124352408,599616212617631292,-291
1711124352416,599616212625295560,-366
1711124352424,599616212632959828,-371
1711124352431,599616212640624096,-333
1711124352439,599616212648288364,-333
1711124352447,599616212655952632,-345
1711124352454,599616212663616900,-341
1711124352462,599616212671281168,-329
1711124352470,599616212678945436,-310
1711124352477,599616212686609704,-303
1711124352485,599616212694273972,-338
1711124352493,599616212701938240,-364
1711124352500,599616212709602508,-343
1711124352508,599616212717266776,-329
1711124352516,599616212724931044,-336
1711124352523,599616212732595312,-296
1711124352531,599616212740259580,-237
1711124352539,599616212747923848,-218
1711124352545,599616212755588116,-211
1711124352553,599616212763252384,-230
1711124352561,599616212770916652,-286
1711124352569,599616212778580920,-286
1711124352577,599616212786245188,-228
1711124352585,599616212793909456,-204
1711124352592,599616212801573724,-183
1711124352600,599616212809237992,-138
1711124352608,599616212816902260,-127
1711124352615,599616212824566528,-122
1711124352623,599616212832230796,-89
1711124352631,599616212839895064,-65
1711124352638,599616212847559332,-54
1711124352646,599616212855223600,-28
1711124352654,599616212862887868,-7
1711124352661,599616212870552136,-4
1711124352669,599616212878216404,7
1711124352677,599616212885880672,28
1711124352684,599616212893544940,32
1711124352692,599616212901209208,37
1711124352700,599616212908873476,9
1711124352707,599616212916537744,-56
1711124352715,599616212924202012,-75
1711124352723,599616212931866280,-61
1711124352729,599616212939530548,-96
1711124352737,599616212947194816,-119
1711124352745,599616212954859084,-101
1711124352753,599616212962523352,-134
1711124352761,599616212970187620,-185
1711124352769,599616212977851888,-171
1711124352776,599616212985516156,-192
1711124352784,599616212993180424,-258
1711124352792,599616213000844692,-244
