value,timestamp
-0.0,1711590037000000
-0.0,1711590037015625
-0.0,1711590037031250
-0.0,1711590037046875
-0.0,1711590037062500
-0.0,1711590037078125
-0.0,1711590037093750
-0.0,1711590037109375
-0.0,1711590037125000
-0.0,1711590037140625
0.0,1711590037156250
0.01,1711590037171875
0.01,1711590037187500
-0.0,1711590037203125
-0.03,1711590037218750
-0.05,1711590037234375
-0.05,1711590037250000
0.0,1711590037265625
0.13,1711590037281250
0.36,1711590037296875
0.66,1711590037312500
1.01,1711590037328125
1.37,1711590037343750
1.72,1711590037359375
2.06,1711590037375000
2.4,1711590037390625
2.79,1711590037406250
3.24,1711590037421875
3.8,1711590037437500
4.42,1711590037453125
5.06,1711590037468750
5.66,1711590037484375
6.2,1711590037500000
6.68,1711590037515625
7.15,1711590037531250
7.68,1711590037546875
8.31,1711590037562500
9.14,1711590037578125
10.09,1711590037593750
11.04,1711590037609375
11.88,1711590037625000
12.56,1711590037640625
13.14,1711590037656250
13.76,1711590037671875
14.65,1711590037687500
15.96,1711590037703125
17.91,1711590037718750
20.32,1711590037734375
22.9,1711590037750000
25.38,1711590037765625
27.58,1711590037781250
29.57,1711590037796875
31.68,1711590037812500
34.32,1711590037828125
37.81,1711590037843750
42.54,1711590037859375
48.15,1711590037875000
54.1,1711590037890625
59.83,1711590037906250
64.97,1711590037921875
69.58,1711590037937500
74.14,1711590037953125
79.34,1711590037968750
85.71,1711590037984375
93.76,1711590038000000
103.0,1711590038015625
112.62,1711590038031250
121.73,1711590038046875
129.77,1711590038062500
136.75,1711590038078125
143.3,1711590038093750
150.75,1711590038109375
157.77,1711590038125000
166.64,1711590038140625
177.95,1711590038156250
191.79,1711590038171875
206.97,1711590038187500
220.57,1711590038203125
228.25,1711590038218750
225.36,1711590038234375
208.53,1711590038250000
176.87,1711590038265625
132.76,1711590038281250
80.05,1711590038296875
23.07,1711590038312500
-34.94,1711590038328125
-92.44,1711590038343750
-149.16,1711590038359375
-205.23,1711590038375000
-260.37,1711590038390625
-313.74,1711590038406250
-363.87,1711590038421875
-409.83,1711590038437500
-450.91,1711590038453125
-486.5,1711590038468750
-515.74,1711590038484375
-537.23,1711590038500000
-549.22,1711590038515625
-549.96,1711590038531250
-538.37,1711590038546875
-514.21,1711590038562500
-478.67,1711590038578125
-433.88,1711590038593750
-382.45,1711590038609375
-327.02,1711590038625000
-269.84,1711590038640625
-212.63,1711590038656250
-156.66,1711590038671875
-102.95,1711590038687500
-52.37,1711590038703125
-5.9,1711590038718750
35.58,1711590038734375
71.43,1711590038750000
101.35,1711590038765625
125.5,1711590038781250
144.38,1711590038796875
158.69,1711590038812500
169.15,1711590038828125
176.37,1711590038843750
180.75,1711590038859375
182.57,1711590038875000
182.07,1711590038890625
179.51,1711590038906250
175.23,1711590038921875
169.65,1711590038937500
163.18,1711590038953125
156.15,1711590038968750
148.81,1711590038984375
141.3,1711590039000000
133.69,1711590039015625
126.02,1711590039031250
118.33,1711590039046875
110.69,1711590039062500
103.16,1711590039078125
95.8,1711590039093750
88.68,1711590039109375
81.83,1711590039125000
75.25,1711590039140625
68.95,1711590039156250
62.95,1711590039171875
57.25,1711590039187500
51.86,1711590039203125
46.78,1711590039218750
42.03,1711590039234375
37.59,1711590039250000
33.45,1711590039265625
29.61,1711590039281250
26.07,1711590039296875
22.81,1711590039312500
19.83,1711590039328125
17.11,1711590039343750
14.67,1711590039359375
12.48,1711590039375000
10.54,1711590039390625
8.83,1711590039406250
7.35,1711590039421875
6.07,1711590039437500
4.97,1711590039453125
4.05,1711590039468750
3.27,1711590039484375
2.62,1711590039500000
2.09,1711590039515625
1.65,1711590039531250
1.3,1711590039546875
1.01,1711590039562500
0.79,1711590039578125
0.61,1711590039593750
0.47,1711590039609375
0.37,1711590039625000
0.29,1711590039640625
0.23,1711590039656250
0.19,1711590039671875
0.16,1711590039687500
0.14,1711590039703125
0.14,1711590039718750
0.14,1711590039734375
0.16,1711590039750000
0.18,1711590039765625
0.2,1711590039781250
0.23,1711590039796875
0.27,1711590039812500
0.31,1711590039828125
0.35,1711590039843750
0.4,1711590039859375
0.44,1711590039875000
0.49,1711590039890625
0.54,1711590039906250
0.59,1711590039921875
0.64,1711590039937500
0.7,1711590039953125
0.75,1711590039968750
0.82,1711590039984375
0.88,1711590040000000
0.95,1711590040015625
1.03,1711590040031250
1.13,1711590040046875
1.25,1711590040062500
1.39,1711590040078125
1.54,1711590040093750
1.69,1711590040109375
1.81,1711590040125000
1.9,1711590040140625
1.96,1711590040156250
2.02,1711590040171875
2.12,1711590040187500
2.3,1711590040203125
2.58,1711590040218750
2.94,1711590040234375
3.34,1711590040250000
3.73,1711590040265625
4.1,1711590040281250
4.44,1711590040296875
4.78,1711590040312500
5.19,1711590040328125
5.72,1711590040343750
6.37,1711590040359375
7.11,1711590040375000
7.88,1711590040390625
8.58,1711590040406250
9.16,1711590040421875
9.65,1711590040437500
10.12,1711590040453125
10.71,1711590040468750
11.54,1711590040484375
12.65,1711590040500000
13.94,1711590040515625
15.23,1711590040531250
16.27,1711590040546875
16.94,1711590040562500
17.24,1711590040578125
17.31,1711590040593750
17.41,1711590040609375
17.71,1711590040625000
18.18,1711590040640625
18.47,1711590040656250
18.07,1711590040671875
16.41,1711590040687500
13.16,1711590040703125
8.41,1711590040718750
2.65,1711590040734375
-3.39,1711590040750000
-8.98,1711590040765625
-13.76,1711590040781250
-17.87,1711590040796875
-21.82,1711590040812500
-26.25,1711590040828125
-31.48,1711590040843750
-37.27,1711590040859375
-42.87,1711590040875000
-47.3,1711590040890625
-49.81,1711590040906250
-50.22,1711590040921875
-49.04,1711590040937500
-47.23,1711590040953125
-45.84,1711590040968750
-45.71,1711590040984375
-47.39,1711590041000000
-51.1,1711590041015625
-56.46,1711590041031250
-62.12,1711590041046875
-65.7,1711590041062500
-64.13,1711590041078125
-54.85,1711590041093750
-37.23,1711590041109375
-13.27,1711590041125000
12.63,1711590041140625
35.35,1711590041156250
50.97,1711590041171875
58.2,1711590041187500
58.36,1711590041203125
54.29,1711590041218750
48.72,1711590041234375
43.14,1711590041250000
37.73,1711590041265625
32.08,1711590041281250
26.05,1711590041296875
20.15,1711590041312500
15.36,1711590041328125
12.29,1711590041343750
10.87,1711590041359375
10.34,1711590041375000
9.67,1711590041390625
8.05,1711590041406250
5.35,1711590041421875
2.17,1711590041437500
-0.62,1711590041453125
-2.25,1711590041468750
-2.78,1711590041484375
-2.91,1711590041500000
-3.72,1711590041515625
-6.13,1711590041531250
-10.36,1711590041546875
-15.81,1711590041562500
-21.3,1711590041578125
-25.69,1711590041593750
-28.37,1711590041609375
-29.68,1711590041625000
-30.63,1711590041640625
-32.42,1711590041656250
-35.98,1711590041671875
-41.5,1711590041687500
-48.38,1711590041703125
-55.32,1711590041718750
-60.81,1711590041734375
-62.45,1711590041750000
-58.71,1711590041765625
-49.0,1711590041781250
-33.83,1711590041796875
-14.66,1711590041812500
6.5,1711590041828125
27.56,1711590041843750
46.83,1711590041859375
63.17,1711590041875000
76.07,1711590041890625
85.31,1711590041906250
90.97,1711590041921875
93.37,1711590041937500
93.01,1711590041953125
90.6,1711590041968750
86.89,1711590041984375
82.57,1711590042000000
78.18,1711590042015625
73.94,1711590042031250
69.68,1711590042046875
65.1,1711590042062500
59.91,1711590042078125
54.1,1711590042093750
47.9,1711590042109375
41.73,1711590042125000
35.96,1711590042140625
30.7,1711590042156250
25.69,1711590042171875
20.33,1711590042187500
14.02,1711590042203125
6.36,1711590042218750
-2.55,1711590042234375
-12.24,1711590042250000
-22.04,1711590042265625
-31.3,1711590042281250
-39.65,1711590042296875
-47.13,1711590042312500
-54.2,1711590042328125
-61.58,1711590042343750
-70.06,1711590042359375
-80.12,1711590042375000
-91.57,1711590042390625
-103.26,1711590042406250
-113.14,1711590042421875
-118.74,1711590042437500
-117.83,1711590042453125
-109.24,1711590042468750
-93.22,1711590042484375
-71.45,1711590042500000
-46.51,1711590042515625
-21.18,1711590042531250
2.31,1711590042546875
22.58,1711590042562500
39.16,1711590042578125
52.19,1711590042593750
61.98,1711590042609375
68.87,1711590042625000
73.09,1711590042640625
74.88,1711590042656250
74.64,1711590042671875
72.98,1711590042687500
70.56,1711590042703125
67.91,1711590042718750
65.23,1711590042734375
62.37,1711590042750000
59.03,1711590042765625
54.99,1711590042781250
50.36,1711590042796875
45.58,1711590042812500
41.22,1711590042828125
37.67,1711590042843750
34.9,1711590042859375
32.36,1711590042875000
29.21,1711590042890625
24.65,1711590042906250
18.29,1711590042921875
10.29,1711590042937500
1.36,1711590042953125
-7.63,1711590042968750
-16.01,1711590042984375
-23.57,1711590043000000
-30.62,1711590043015625
-37.86,1711590043031250
-46.05,1711590043046875
-55.77,1711590043062500
-67.2,1711590043078125
-79.86,1711590043093750
-92.6,1711590043109375
-103.65,1711590043125000
-110.85,1711590043140625
-112.26,1711590043156250
-106.65,1711590043171875
-93.91,1711590043187500
-75.2,1711590043203125
-52.59,1711590043218750
-28.59,1711590043234375
-5.53,1711590043250000
14.85,1711590043265625
31.55,1711590043281250
44.27,1711590043296875
53.24,1711590043312500
58.97,1711590043328125
62.16,1711590043343750
63.5,1711590043359375
63.61,1711590043375000
63.02,1711590043390625
62.06,1711590043406250
60.89,1711590043421875
59.48,1711590043437500
57.66,1711590043453125
55.27,1711590043468750
52.33,1711590043484375
49.03,1711590043500000
45.77,1711590043515625
42.86,1711590043531250
40.34,1711590043546875
37.81,1711590043562500
34.61,1711590043578125
30.06,1711590043593750
23.77,1711590043609375
15.84,1711590043625000
6.81,1711590043640625
-2.62,1711590043656250
-11.82,1711590043671875
-20.47,1711590043687500
-28.57,1711590043703125
-36.45,1711590043718750
-44.59,1711590043734375
-53.58,1711590043750000
-63.89,1711590043765625
-75.67,1711590043781250
-88.41,1711590043796875
-100.71,1711590043812500
-110.56,1711590043828125
-115.68,1711590043843750
-114.32,1711590043859375
-105.82,1711590043875000
-90.81,1711590043890625
-70.98,1711590043906250
-48.55,1711590043921875
-25.66,1711590043937500
-3.95,1711590043953125
15.42,1711590043968750
31.74,1711590043984375
44.57,1711590044000000
53.72,1711590044015625
59.29,1711590044031250
61.76,1711590044046875
61.92,1711590044062500
60.72,1711590044078125
58.97,1711590044093750
57.17,1711590044109375
55.44,1711590044125000
53.6,1711590044140625
51.41,1711590044156250
48.72,1711590044171875
45.64,1711590044187500
42.43,1711590044203125
39.33,1711590044218750
36.34,1711590044234375
33.15,1711590044250000
29.32,1711590044265625
24.44,1711590044281250
18.36,1711590044296875
11.33,1711590044312500
3.84,1711590044328125
-3.61,1711590044343750
-10.7,1711590044359375
-17.52,1711590044375000
-24.48,1711590044390625
-32.22,1711590044406250
-41.35,1711590044421875
-52.25,1711590044437500
-64.83,1711590044453125
-78.35,1711590044468750
-91.44,1711590044484375
-102.19,1711590044500000
-108.49,1711590044515625
-108.56,1711590044531250
-101.45,1711590044546875
-87.38,1711590044562500
-67.78,1711590044578125
-44.95,1711590044593750
-21.47,1711590044609375
0.43,1711590044625000
19.35,1711590044640625
34.79,1711590044656250
46.94,1711590044671875
56.36,1711590044687500
63.54,1711590044703125
68.84,1711590044718750
72.42,1711590044734375
74.41,1711590044750000
74.94,1711590044765625
74.28,1711590044781250
72.69,1711590044796875
70.35,1711590044812500
67.39,1711590044828125
63.83,1711590044843750
59.72,1711590044859375
55.2,1711590044875000
50.48,1711590044890625
45.67,1711590044906250
40.77,1711590044921875
35.54,1711590044937500
29.58,1711590044953125
22.63,1711590044968750
14.59,1711590044984375
5.69,1711590045000000
-3.67,1711590045015625
-13.07,1711590045031250
-22.28,1711590045046875
-31.32,1711590045062500
-40.46,1711590045078125
-50.05,1711590045093750
-60.47,1711590045109375
-71.98,1711590045125000
-84.44,1711590045140625
-97.17,1711590045156250
-108.81,1711590045171875
-117.42,1711590045187500
-120.89,1711590045203125
-117.59,1711590045218750
-106.97,1711590045234375
-89.81,1711590045250000
-67.98,1711590045265625
-43.9,1711590045281250
-19.78,1711590045296875
2.7,1711590045312500
22.57,1711590045328125
39.3,1711590045343750
52.57,1711590045359375
62.22,1711590045375000
68.37,1711590045390625
71.47,1711590045406250
72.33,1711590045421875
71.94,1711590045437500
71.1,1711590045453125
70.22,1711590045468750
69.23,1711590045484375
67.77,1711590045500000
65.46,1711590045515625
62.14,1711590045531250
57.98,1711590045546875
53.41,1711590045562500
48.92,1711590045578125
44.81,1711590045593750
41.05,1711590045609375
37.23,1711590045625000
32.7,1711590045640625
26.86,1711590045656250
19.4,1711590045671875
10.48,1711590045687500
0.66,1711590045703125
-9.33,1711590045718750
-18.83,1711590045734375
-27.54,1711590045750000
-35.59,1711590045765625
-43.45,1711590045781250
-51.86,1711590045796875
-61.55,1711590045812500
-72.91,1711590045828125
-85.68,1711590045843750
-98.71,1711590045859375
-110.04,1711590045875000
-117.26,1711590045890625
-118.27,1711590045906250
-111.88,1711590045921875
-98.27,1711590045937500
-78.88,1711590045953125
-55.88,1711590045968750
-31.59,1711590045984375
-7.92,1711590046000000
13.75,1711590046015625
32.55,1711590046031250
47.93,1711590046046875
59.59,1711590046062500
67.48,1711590046078125
71.9,1711590046093750
73.54,1711590046109375
73.32,1711590046125000
72.2,1711590046140625
70.95,1711590046156250
69.98,1711590046171875
69.22,1711590046187500
68.34,1711590046203125
66.84,1711590046218750
64.38,1711590046234375
60.93,1711590046250000
56.75,1711590046265625
52.27,1711590046281250
47.89,1711590046296875
43.69,1711590046312500
39.41,1711590046328125
34.56,1711590046343750
28.58,1711590046359375
21.16,1711590046375000
12.39,1711590046390625
2.71,1711590046406250
-7.19,1711590046421875
-16.72,1711590046437500
-25.55,1711590046453125
-33.72,1711590046468750
-41.64,1711590046484375
-49.95,1711590046500000
-59.25,1711590046515625
-69.95,1711590046531250
-82.02,1711590046546875
-94.69,1711590046562500
-106.46,1711590046578125
-115.2,1711590046593750
-118.68,1711590046609375
-115.18,1711590046625000
-104.13,1711590046640625
-86.33,1711590046656250
-63.78,1711590046671875
-39.03,1711590046687500
-14.49,1711590046703125
8.06,1711590046718750
27.67,1711590046734375
43.95,1711590046750000
56.82,1711590046765625
66.27,1711590046781250
72.37,1711590046796875
75.4,1711590046812500
75.89,1711590046828125
74.64,1711590046843750
72.47,1711590046859375
70.08,1711590046875000
67.81,1711590046890625
65.69,1711590046906250
63.54,1711590046921875
61.08,1711590046937500
58.11,1711590046953125
54.57,1711590046968750
50.61,1711590046984375
46.44,1711590047000000
42.25,1711590047015625
38.04,1711590047031250
33.61,1711590047046875
28.56,1711590047062500
22.51,1711590047078125
15.25,1711590047093750
6.84,1711590047109375
-2.41,1711590047125000
-12.05,1711590047140625
-21.65,1711590047156250
-30.98,1711590047171875
-39.97,1711590047187500
-48.75,1711590047203125
-57.61,1711590047218750
-66.97,1711590047234375
-77.32,1711590047250000
-89.0,1711590047265625
-101.9,1711590047281250
-115.16,1711590047296875
-127.07,1711590047312500
-135.37,1711590047328125
-137.86,1711590047343750
-133.1,1711590047359375
-120.89,1711590047375000
-102.45,1711590047390625
-79.99,1711590047406250
-56.07,1711590047421875
-32.96,1711590047437500
-12.32,1711590047453125
4.91,1711590047468750
18.27,1711590047484375
27.63,1711590047500000
33.12,1711590047515625
35.14,1711590047531250
34.4,1711590047546875
31.87,1711590047562500
28.49,1711590047578125
24.89,1711590047593750
21.23,1711590047609375
17.31,1711590047625000
12.89,1711590047640625
8.11,1711590047656250
3.51,1711590047671875
-0.06,1711590047687500
-1.96,1711590047703125
-2.07,1711590047718750
-0.85,1711590047734375
0.87,1711590047750000
2.31,1711590047765625
2.91,1711590047781250
2.27,1711590047796875
0.03,1711590047812500
-4.02,1711590047828125
-9.87,1711590047843750
-17.01,1711590047859375
-24.64,1711590047875000
-31.96,1711590047890625
-38.82,1711590047906250
-45.87,1711590047921875
-54.28,1711590047937500
-64.94,1711590047953125
-77.62,1711590047968750
-90.71,1711590047984375
-101.57,1711590048000000
-107.43,1711590048015625
-106.35,1711590048031250
-97.9,1711590048046875
-83.04,1711590048062500
-63.78,1711590048078125
-42.46,1711590048093750
-21.13,1711590048109375
-1.26,1711590048125000
16.38,1711590048140625
31.53,1711590048156250
44.18,1711590048171875
54.35,1711590048187500
62.12,1711590048203125
67.65,1711590048218750
71.38,1711590048234375
74.02,1711590048250000
76.51,1711590048265625
79.81,1711590048281250
84.82,1711590048296875
92.2,1711590048312500
102.41,1711590048328125
115.8,1711590048343750
132.24,1711590048359375
150.81,1711590048375000
169.48,1711590048390625
185.41,1711590048406250
195.67,1711590048421875
198.18,1711590048437500
192.49,1711590048453125
179.85,1711590048468750
162.67,1711590048484375
143.52,1711590048500000
124.52,1711590048515625
106.97,1711590048531250
91.49,1711590048546875
78.36,1711590048562500
67.57,1711590048578125
58.7,1711590048593750
50.7,1711590048609375
42.12,1711590048625000
31.75,1711590048640625
19.45,1711590048656250
6.69,1711590048671875
-3.71,1711590048687500
-8.57,1711590048703125
-5.79,1711590048718750
4.67,1711590048734375
20.6,1711590048750000
38.15,1711590048765625
52.92,1711590048781250
61.09,1711590048796875
59.94,1711590048812500
48.13,1711590048828125
25.68,1711590048843750
-5.9,1711590048859375
-43.72,1711590048875000
-83.89,1711590048890625
-122.39,1711590048906250
-156.15,1711590048921875
-183.85,1711590048937500
-205.86,1711590048953125
-223.25,1711590048968750
-236.64,1711590048984375
-245.52,1711590049000000
-248.57,1711590049015625
-244.82,1711590049031250
-234.71,1711590049046875
-220.23,1711590049062500
-204.06,1711590049078125
-188.25,1711590049093750
-173.21,1711590049109375
-157.92,1711590049125000
-140.9,1711590049140625
-121.19,1711590049156250
-98.69,1711590049171875
-73.75,1711590049187500
-46.88,1711590049203125
-18.83,1711590049218750
9.08,1711590049234375
34.75,1711590049250000
55.71,1711590049265625
70.26,1711590049281250
78.41,1711590049296875
82.19,1711590049312500
84.73,1711590049328125
88.91,1711590049343750
96.1,1711590049359375
106.01,1711590049375000
117.37,1711590049390625
129.04,1711590049406250
140.56,1711590049421875
152.02,1711590049437500
163.49,1711590049453125
174.61,1711590049468750
184.75,1711590049484375
193.42,1711590049500000
200.73,1711590049515625
207.16,1711590049531250
212.97,1711590049546875
217.71,1711590049562500
220.18,1711590049578125
218.84,1711590049593750
212.67,1711590049609375
201.92,1711590049625000
188.16,1711590049640625
173.44,1711590049656250
159.24,1711590049671875
145.66,1711590049687500
131.29,1711590049703125
113.72,1711590049718750
90.47,1711590049734375
59.82,1711590049750000
21.45,1711590049765625
-23.43,1711590049781250
-72.18,1711590049796875
-121.11,1711590049812500
-166.23,1711590049828125
-204.11,1711590049843750
-232.58,1711590049859375
-251.2,1711590049875000
-261.11,1711590049890625
-264.54,1711590049906250
-264.05,1711590049921875
-262.04,1711590049937500
-260.34,1711590049953125
-260.0,1711590049968750
-260.95,1711590049984375
-261.79,1711590050000000
-259.89,1711590050015625
-252.17,1711590050031250
-236.24,1711590050046875
-211.41,1711590050062500
-179.02,1711590050078125
-142.0,1711590050093750
-103.95,1711590050109375
-68.02,1711590050125000
-36.45,1711590050140625
-10.6,1711590050156250
8.68,1711590050171875
20.78,1711590050187500
25.35,1711590050203125
22.44,1711590050218750
13.03,1711590050234375
-0.85,1711590050250000
-16.17,1711590050265625
-29.46,1711590050281250
-37.62,1711590050296875
-38.77,1711590050312500
-32.82,1711590050328125
-21.65,1711590050343750
-8.56,1711590050359375
2.76,1711590050375000
9.4,1711590050390625
10.02,1711590050406250
5.18,1711590050421875
-3.27,1711590050437500
-13.03,1711590050453125
-22.26,1711590050468750
-30.19,1711590050484375
-37.01,1711590050500000
-43.49,1711590050515625
-50.41,1711590050531250
-58.05,1711590050546875
-66.04,1711590050562500
-73.37,1711590050578125
-78.7,1711590050593750
-80.77,1711590050609375
-78.73,1711590050625000
-72.29,1711590050640625
-61.74,1711590050656250
-47.82,1711590050671875
-31.51,1711590050687500
-13.8,1711590050703125
4.34,1711590050718750
21.98,1711590050734375
38.23,1711590050750000
52.27,1711590050765625
63.49,1711590050781250
71.59,1711590050796875
76.67,1711590050812500
79.23,1711590050828125
79.96,1711590050843750
79.62,1711590050859375
78.77,1711590050875000
77.71,1711590050890625
76.38,1711590050906250
74.49,1711590050921875
71.66,1711590050937500
67.64,1711590050953125
62.52,1711590050968750
56.75,1711590050984375
51.01,1711590051000000
45.98,1711590051015625
42.08,1711590051031250
39.21,1711590051046875
36.82,1711590051062500
34.0,1711590051078125
29.81,1711590051093750
23.51,1711590051109375
14.78,1711590051125000
3.86,1711590051140625
-8.4,1711590051156250
-20.67,1711590051171875
-31.24,1711590051187500
-38.42,1711590051203125
-40.87,1711590051218750
-37.92,1711590051234375
-29.76,1711590051250000
-17.33,1711590051265625
-2.05,1711590051281250
14.57,1711590051296875
31.13,1711590051312500
46.51,1711590051328125
59.8,1711590051343750
70.14,1711590051359375
76.8,1711590051375000
79.29,1711590051390625
77.69,1711590051406250
72.86,1711590051421875
66.35,1711590051437500
59.99,1711590051453125
55.24,1711590051468750
52.69,1711590051484375
51.89,1711590051500000
51.65,1711590051515625
50.58,1711590051531250
47.77,1711590051546875
43.06,1711590051562500
36.99,1711590051578125
30.53,1711590051593750
24.58,1711590051609375
19.6,1711590051625000
15.56,1711590051640625
11.96,1711590051656250
8.13,1711590051671875
3.51,1711590051687500
-2.26,1711590051703125
-9.27,1711590051718750
-17.46,1711590051734375
-26.58,1711590051750000
-36.16,1711590051765625
-45.36,1711590051781250
-52.93,1711590051796875
-57.33,1711590051812500
-57.12,1711590051828125
-51.49,1711590051843750
-40.63,1711590051859375
-25.8,1711590051875000
-8.96,1711590051890625
7.82,1711590051906250
22.99,1711590051921875
35.86,1711590051937500
46.44,1711590051953125
55.14,1711590051968750
62.25,1711590051984375
67.64,1711590052000000
70.75,1711590052015625
70.85,1711590052031250
67.47,1711590052046875
60.74,1711590052062500
51.51,1711590052078125
41.09,1711590052093750
30.77,1711590052109375
21.29,1711590052125000
12.61,1711590052140625
4.05,1711590052156250
-5.37,1711590052171875
-16.39,1711590052187500
-29.33,1711590052203125
-43.95,1711590052218750
-59.68,1711590052234375
-75.61,1711590052250000
-90.47,1711590052265625
-102.78,1711590052281250
-111.06,1711590052296875
-114.26,1711590052312500
-112.15,1711590052328125
-105.32,1711590052343750
-94.73,1711590052359375
-80.97,1711590052375000
-63.88,1711590052390625
-42.57,1711590052406250
-16.22,1711590052421875
14.99,1711590052437500
49.09,1711590052453125
82.5,1711590052468750
110.86,1711590052484375
130.51,1711590052500000
139.67,1711590052515625
138.97,1711590052531250
131.05,1711590052546875
119.42,1711590052562500
107.18,1711590052578125
96.0,1711590052593750
86.01,1711590052609375
76.3,1711590052625000
65.84,1711590052640625
54.24,1711590052656250
41.93,1711590052671875
29.95,1711590052687500
19.31,1711590052703125
10.53,1711590052718750
3.48,1711590052734375
-2.45,1711590052750000
-7.85,1711590052765625
-12.92,1711590052781250
-17.33,1711590052796875
-20.44,1711590052812500
-21.77,1711590052828125
-21.49,1711590052843750
-20.71,1711590052859375
-21.07,1711590052875000
-24.07,1711590052890625
-30.16,1711590052906250
-38.47,1711590052921875
-47.2,1711590052937500
-54.67,1711590052953125
-60.24,1711590052968750
-64.56,1711590052984375
-68.94,1711590053000000
-74.23,1711590053015625
-79.9,1711590053031250
-84.13,1711590053046875
-84.64,1711590053062500
-79.89,1711590053078125
-69.87,1711590053093750
-55.99,1711590053109375
-40.3,1711590053125000
-24.47,1711590053140625
-9.35,1711590053156250
4.9,1711590053171875
18.19,1711590053187500
29.88,1711590053203125
38.76,1711590053218750
43.49,1711590053234375
43.37,1711590053250000
38.91,1711590053265625
31.85,1711590053281250
24.53,1711590053296875
18.98,1711590053312500
16.09,1711590053328125
15.32,1711590053343750
15.08,1711590053359375
13.6,1711590053375000
9.81,1711590053390625
3.71,1711590053406250
-3.75,1711590053421875
-11.32,1711590053437500
-18.2,1711590053453125
-24.37,1711590053468750
-30.52,1711590053484375
-37.68,1711590053500000
-46.77,1711590053515625
-58.41,1711590053531250
-72.71,1711590053546875
-89.27,1711590053562500
-106.85,1711590053578125
-123.25,1711590053593750
-135.41,1711590053609375
-140.02,1711590053625000
-134.46,1711590053640625
-117.87,1711590053656250
-91.54,1711590053671875
-58.57,1711590053687500
-22.96,1711590053703125
11.64,1711590053718750
42.68,1711590053734375
69.0,1711590053750000
90.42,1711590053765625
107.27,1711590053781250
119.89,1711590053796875
128.51,1711590053812500
133.39,1711590053828125
134.87,1711590053843750
133.53,1711590053859375
130.09,1711590053875000
125.24,1711590053890625
119.43,1711590053906250
112.75,1711590053921875
105.0,1711590053937500
95.8,1711590053953125
84.88,1711590053968750
72.34,1711590053984375
58.64,1711590054000000
44.57,1711590054015625
30.95,1711590054031250
18.39,1711590054046875
7.13,1711590054062500
-2.98,1711590054078125
-12.32,1711590054093750
-21.41,1711590054109375
-30.77,1711590054125000
-40.97,1711590054140625
-52.58,1711590054156250
-66.07,1711590054171875
-81.46,1711590054187500
-97.85,1711590054203125
-113.16,1711590054218750
-124.29,1711590054234375
-127.96,1711590054250000
-121.79,1711590054265625
-105.44,1711590054281250
-80.81,1711590054296875
-51.55,1711590054312500
-21.77,1711590054328125
5.2,1711590054343750
27.6,1711590054359375
45.28,1711590054375000
59.07,1711590054390625
70.01,1711590054406250
78.88,1711590054421875
86.05,1711590054437500
91.64,1711590054453125
95.68,1711590054468750
98.23,1711590054484375
99.39,1711590054500000
99.26,1711590054515625
98.06,1711590054531250
96.1,1711590054546875
93.75,1711590054562500
91.32,1711590054578125
88.82,1711590054593750
85.91,1711590054609375
82.05,1711590054625000
76.73,1711590054640625
69.68,1711590054656250
61.05,1711590054671875
51.27,1711590054687500
40.84,1711590054703125
30.11,1711590054718750
19.15,1711590054734375
7.77,1711590054750000
-4.34,1711590054765625
-17.53,1711590054781250
-31.97,1711590054796875
-47.58,1711590054812500
-63.72,1711590054828125
-79.04,1711590054843750
-91.15,1711590054859375
-97.16,1711590054875000
-94.51,1711590054890625
-82.06,1711590054906250
-60.67,1711590054921875
-33.09,1711590054937500
-3.18,1711590054953125
25.19,1711590054968750
49.17,1711590054984375
67.64,1711590055000000
80.89,1711590055015625
89.96,1711590055031250
95.9,1711590055046875
99.36,1711590055062500
100.84,1711590055078125
100.56,1711590055093750
98.69,1711590055109375
95.36,1711590055125000
91.23,1711590055140625
87.1,1711590055156250
83.64,1711590055171875
81.08,1711590055187500
79.2,1711590055203125
78.07,1711590055218750
77.37,1711590055234375
76.37,1711590055250000
73.88,1711590055265625
69.78,1711590055281250
64.53,1711590055296875
58.89,1711590055312500
53.36,1711590055328125
48.17,1711590055343750
44.5,1711590055359375
42.59,1711590055375000
41.48,1711590055390625
38.5,1711590055406250
32.59,1711590055421875
23.62,1711590055437500
12.44,1711590055453125
0.46,1711590055468750
-10.04,1711590055484375
-14.13,1711590055500000
-7.98,1711590055515625
9.56,1711590055531250
35.24,1711590055546875
66.2,1711590055562500
99.1,1711590055578125
130.54,1711590055593750
157.09,1711590055609375
176.27,1711590055625000
189.56,1711590055640625
198.19,1711590055656250
202.06,1711590055671875
198.22,1711590055687500
187.33,1711590055703125
171.84,1711590055718750
155.1,1711590055734375
139.65,1711590055750000
110.17,1711590055765625
61.85,1711590055781250
0.74,1711590055796875
-48.61,1711590055812500
-85.32,1711590055828125
-113.4,1711590055843750
-138.85,1711590055859375
-162.16,1711590055875000
-182.15,1711590055890625
-197.24,1711590055906250
-203.79,1711590055921875
-200.78,1711590055937500
-190.37,1711590055953125
-178.68,1711590055968750
-168.49,1711590055984375
-160.45,1711590056000000
-153.56,1711590056015625
-146.7,1711590056031250
-138.97,1711590056046875
-127.99,1711590056062500
-113.36,1711590056078125
-96.91,1711590056093750
-83.37,1711590056109375
-74.66,1711590056125000
-70.91,1711590056140625
-70.92,1711590056156250
-73.4,1711590056171875
-76.99,1711590056187500
-79.13,1711590056203125
-78.13,1711590056218750
-73.54,1711590056234375
-66.82,1711590056250000
-58.32,1711590056265625
-48.12,1711590056281250
-36.29,1711590056296875
-23.34,1711590056312500
-9.81,1711590056328125
4.48,1711590056343750
19.39,1711590056359375
34.16,1711590056375000
47.07,1711590056390625
57.17,1711590056406250
64.27,1711590056421875
68.99,1711590056437500
72.34,1711590056453125
75.48,1711590056468750
79.52,1711590056484375
84.8,1711590056500000
90.88,1711590056515625
96.67,1711590056531250
101.38,1711590056546875
104.67,1711590056562500
106.55,1711590056578125
107.16,1711590056593750
106.53,1711590056609375
104.58,1711590056625000
101.16,1711590056640625
96.27,1711590056656250
90.09,1711590056671875
82.84,1711590056687500
74.59,1711590056703125
65.14,1711590056718750
54.08,1711590056734375
41.02,1711590056750000
26.0,1711590056765625
9.6,1711590056781250
-7.2,1711590056796875
-23.42,1711590056812500
-38.52,1711590056828125
-52.51,1711590056843750
-65.66,1711590056859375
-78.29,1711590056875000
-90.66,1711590056890625
-103.09,1711590056906250
-116.09,1711590056921875
-130.11,1711590056937500
-144.99,1711590056953125
-159.7,1711590056968750
-172.49,1711590056984375
-181.8,1711590057000000
-187.33,1711590057015625
-190.42,1711590057031250
-193.43,1711590057046875
-198.31,1711590057062500
-205.22,1711590057078125
-212.12,1711590057093750
-215.82,1711590057109375
-213.61,1711590057125000
-204.71,1711590057140625
-190.35,1711590057156250
-172.79,1711590057171875
-154.04,1711590057187500
-135.13,1711590057203125
-116.45,1711590057218750
-98.58,1711590057234375
-82.91,1711590057250000
-71.46,1711590057265625
-65.82,1711590057281250
-66.32,1711590057296875
-71.46,1711590057312500
-78.49,1711590057328125
-84.61,1711590057343750
-87.93,1711590057359375
-88.01,1711590057375000
-85.56,1711590057390625
-81.78,1711590057406250
-77.7,1711590057421875
-74.04,1711590057437500
-71.31,1711590057453125
-70.01,1711590057468750
-70.52,1711590057484375
-72.65,1711590057500000
-75.21,1711590057515625
-76.07,1711590057531250
-72.77,1711590057546875
-63.51,1711590057562500
-48.0,1711590057578125
-27.67,1711590057593750
-5.07,1711590057609375
17.13,1711590057625000
37.05,1711590057640625
54.05,1711590057656250
68.34,1711590057671875
80.46,1711590057687500
90.76,1711590057703125
99.17,1711590057718750
105.44,1711590057734375
109.39,1711590057750000
111.15,1711590057765625
111.11,1711590057781250
109.82,1711590057796875
107.78,1711590057812500
105.34,1711590057828125
102.7,1711590057843750
99.9,1711590057859375
96.88,1711590057875000
93.5,1711590057890625
89.64,1711590057906250
85.11,1711590057921875
79.77,1711590057937500
73.42,1711590057953125
65.84,1711590057968750
56.9,1711590057984375
46.66,1711590058000000
35.4,1711590058015625
23.62,1711590058031250
11.81,1711590058046875
0.23,1711590058062500
-11.19,1711590058078125
-22.92,1711590058093750
-35.48,1711590058109375
-49.15,1711590058125000
-63.67,1711590058140625
-77.98,1711590058156250
-90.26,1711590058171875
-98.31,1711590058187500
-100.11,1711590058203125
-94.47,1711590058218750
-81.49,1711590058234375
-62.59,1711590058250000
-40.13,1711590058265625
-16.73,1711590058281250
5.4,1711590058296875
24.86,1711590058312500
40.99,1711590058328125
53.58,1711590058343750
62.7,1711590058359375
68.49,1711590058375000
71.33,1711590058390625
71.87,1711590058406250
71.05,1711590058421875
69.79,1711590058437500
68.74,1711590058453125
68.04,1711590058468750
67.31,1711590058484375
65.91,1711590058500000
63.24,1711590058515625
59.16,1711590058531250
54.09,1711590058546875
48.84,1711590058562500
44.32,1711590058578125
41.04,1711590058593750
38.83,1711590058609375
36.86,1711590058625000
33.99,1711590058640625
29.26,1711590058656250
22.38,1711590058671875
13.77,1711590058687500
4.4,1711590058703125
-4.8,1711590058718750
-13.31,1711590058734375
-21.23,1711590058750000
-29.19,1711590058765625
-38.1,1711590058781250
-48.71,1711590058796875
-61.36,1711590058812500
-75.69,1711590058828125
-90.52,1711590058843750
-103.94,1711590058859375
-113.57,1711590058875000
-117.2,1711590058890625
-113.36,1711590058906250
-101.84,1711590058921875
-83.85,1711590058937500
-61.64,1711590058953125
-37.89,1711590058968750
-14.96,1711590058984375
5.5,1711590059000000
22.75,1711590059015625
36.78,1711590059031250
47.93,1711590059046875
56.68,1711590059062500
63.38,1711590059078125
68.21,1711590059093750
71.24,1711590059109375
72.48,1711590059125000
72.06,1711590059140625
70.35,1711590059156250
68.04,1711590059171875
66.02,1711590059187500
65.22,1711590059203125
66.21,1711590059218750
68.93,1711590059234375
72.58,1711590059250000
75.73,1711590059265625
76.68,1711590059281250
74.0,1711590059296875
66.98,1711590059312500
55.65,1711590059328125
40.64,1711590059343750
22.85,1711590059359375
3.23,1711590059375000
-17.24,1711590059390625
-37.61,1711590059406250
-57.23,1711590059421875
-76.21,1711590059437500
-95.75,1711590059453125
-117.91,1711590059468750
-144.51,1711590059484375
-176.01,1711590059500000
-210.57,1711590059515625
-244.26,1711590059531250
-272.27,1711590059546875
-290.63,1711590059562500
-297.38,1711590059578125
-292.69,1711590059593750
-278.04,1711590059609375
-255.08,1711590059625000
-225.01,1711590059640625
-188.81,1711590059656250
-147.98,1711590059671875
-105.03,1711590059687500
-63.41,1711590059703125
-26.53,1711590059718750
3.24,1711590059734375
25.3,1711590059750000
40.8,1711590059765625
51.93,1711590059781250
60.81,1711590059796875
68.77,1711590059812500
76.01,1711590059828125
81.9,1711590059843750
85.81,1711590059859375
87.54,1711590059875000
87.58,1711590059890625
86.83,1711590059906250
86.1,1711590059921875
85.73,1711590059937500
85.53,1711590059953125
84.92,1711590059968750
83.3,1711590059984375
80.24,1711590060000000
75.49,1711590060015625
69.0,1711590060031250
60.82,1711590060046875
51.18,1711590060062500
40.46,1711590060078125
29.27,1711590060093750
18.23,1711590060109375
7.78,1711590060125000
-1.91,1711590060140625
-11.11,1711590060156250
-20.39,1711590060171875
-30.54,1711590060187500
-42.45,1711590060203125
-56.69,1711590060218750
-73.2,1711590060234375
-90.72,1711590060250000
-106.68,1711590060265625
-117.47,1711590060281250
-119.46,1711590060296875
-110.14,1711590060312500
-89.12,1711590060328125
-58.43,1711590060343750
-21.84,1711590060359375
16.24,1711590060375000
52.0,1711590060390625
82.97,1711590060406250
108.16,1711590060421875
127.58,1711590060437500
141.65,1711590060453125
150.78,1711590060468750
155.3,1711590060484375
155.65,1711590060500000
152.61,1711590060515625
147.38,1711590060531250
141.36,1711590060546875
135.79,1711590060562500
131.22,1711590060578125
127.52,1711590060593750
124.01,1711590060609375
119.9,1711590060625000
114.88,1711590060640625
109.23,1711590060656250
103.69,1711590060671875
98.93,1711590060687500
95.11,1711590060703125
91.62,1711590060718750
87.27,1711590060734375
80.85,1711590060750000
71.62,1711590060765625
59.66,1711590060781250
45.83,1711590060796875
31.47,1711590060812500
17.76,1711590060828125
5.42,1711590060843750
-5.64,1711590060859375
-16.18,1711590060875000
-27.44,1711590060890625
-40.68,1711590060906250
-56.71,1711590060921875
-75.33,1711590060937500
-95.11,1711590060953125
-113.23,1711590060968750
-126.05,1711590060984375
-130.0,1711590061000000
-122.68,1711590061015625
-103.79,1711590061031250
-75.3,1711590061046875
-40.97,1711590061062500
-5.24,1711590061078125
28.04,1711590061093750
56.32,1711590061109375
78.52,1711590061125000
94.6,1711590061140625
105.01,1711590061156250
110.18,1711590061171875
110.57,1711590061187500
106.9,1711590061203125
100.38,1711590061218750
92.62,1711590061234375
85.31,1711590061250000
79.68,1711590061265625
76.06,1711590061281250
73.86,1711590061296875
71.88,1711590061312500
68.94,1711590061328125
64.42,1711590061343750
58.53,1711590061359375
52.13,1711590061375000
46.24,1711590061390625
41.46,1711590061406250
37.68,1711590061421875
34.08,1711590061437500
29.49,1711590061453125
22.9,1711590061468750
13.88,1711590061484375
2.73,1711590061500000
-9.65,1711590061515625
-22.11,1711590061531250
-33.71,1711590061546875
-44.01,1711590061562500
-53.2,1711590061578125
-61.97,1711590061593750
-71.38,1711590061609375
-82.47,1711590061625000
-96.02,1711590061640625
-112.01,1711590061656250
-129.36,1711590061671875
-145.61,1711590061687500
-157.29,1711590061703125
-160.66,1711590061718750
-152.92,1711590061734375
-133.25,1711590061750000
-103.31,1711590061765625
-66.84,1711590061781250
-28.57,1711590061796875
7.18,1711590061812500
37.45,1711590061828125
60.86,1711590061843750
77.28,1711590061859375
87.18,1711590061875000
91.17,1711590061890625
90.0,1711590061906250
84.7,1711590061921875
76.74,1711590061937500
67.88,1711590061953125
59.74,1711590061968750
53.38,1711590061984375
48.96,1711590062000000
45.91,1711590062015625
43.26,1711590062031250
40.2,1711590062046875
36.42,1711590062062500
32.16,1711590062078125
28.0,1711590062093750
24.38,1711590062109375
21.3,1711590062125000
18.17,1711590062140625
14.01,1711590062156250
7.95,1711590062171875
-0.43,1711590062187500
-10.75,1711590062203125
-22.05,1711590062218750
-33.14,1711590062234375
-43.15,1711590062250000
-51.83,1711590062265625
-59.63,1711590062281250
-67.52,1711590062296875
-76.62,1711590062312500
-87.85,1711590062328125
-101.47,1711590062343750
-116.71,1711590062359375
-131.53,1711590062375000
-142.74,1711590062390625
-146.62,1711590062406250
-140.0,1711590062421875
-121.41,1711590062437500
-91.82,1711590062453125
-54.53,1711590062468750
-14.24,1711590062484375
24.37,1711590062500000
57.78,1711590062515625
84.22,1711590062531250
103.39,1711590062546875
115.89,1711590062562500
122.44,1711590062578125
123.82,1711590062593750
120.8,1711590062609375
114.52,1711590062625000
106.37,1711590062640625
97.84,1711590062656250
90.02,1711590062671875
83.34,1711590062687500
77.57,1711590062703125
72.12,1711590062718750
66.49,1711590062734375
60.59,1711590062750000
54.74,1711590062765625
49.38,1711590062781250
44.75,1711590062796875
40.58,1711590062812500
36.13,1711590062828125
30.43,1711590062843750
22.68,1711590062859375
12.59,1711590062875000
0.48,1711590062890625
-12.77,1711590062906250
-26.06,1711590062921875
-38.47,1711590062937500
-49.62,1711590062953125
-59.86,1711590062968750
-70.24,1711590062984375
-82.13,1711590063000000
-96.78,1711590063015625
-114.68,1711590063031250
-135.01,1711590063046875
-155.37,1711590063062500
-172.04,1711590063078125
-180.8,1711590063093750
-178.18,1711590063109375
-162.6,1711590063125000
-135.02,1711590063140625
-98.73,1711590063156250
-58.36,1711590063171875
-18.46,1711590063187500
17.5,1711590063203125
47.64,1711590063218750
71.37,1711590063234375
88.85,1711590063250000
100.4,1711590063265625
106.47,1711590063281250
107.7,1711590063296875
105.2,1711590063312500
100.47,1711590063328125
95.05,1711590063343750
90.08,1711590063359375
85.95,1711590063375000
82.35,1711590063390625
78.49,1711590063406250
73.73,1711590063421875
67.88,1711590063437500
61.4,1711590063453125
55.13,1711590063468750
49.88,1711590063484375
45.91,1711590063500000
42.7,1711590063515625
39.09,1711590063531250
33.65,1711590063546875
25.35,1711590063562500
13.98,1711590063578125
0.29,1711590063593750
-14.31,1711590063609375
-28.34,1711590063625000
-40.79,1711590063640625
-51.49,1711590063656250
-61.1,1711590063671875
-70.85,1711590063687500
-82.16,1711590063703125
-96.19,1711590063718750
-113.3,1711590063734375
-132.6,1711590063750000
-151.63,1711590063765625
-166.58,1711590063781250
-173.15,1711590063796875
-167.78,1711590063812500
-148.99,1711590063828125
-117.98,1711590063843750
-78.49,1711590063859375
-35.52,1711590063875000
6.03,1711590063890625
42.66,1711590063906250
72.64,1711590063921875
95.71,1711590063937500
112.35,1711590063953125
123.17,1711590063968750
128.69,1711590063984375
129.42,1711590064000000
126.21,1711590064015625
120.38,1711590064031250
113.5,1711590064046875
107.05,1711590064062500
101.88,1711590064078125
98.04,1711590064093750
94.86,1711590064109375
91.34,1711590064125000
86.68,1711590064140625
80.65,1711590064156250
73.63,1711590064171875
66.43,1711590064187500
59.77,1711590064203125
53.91,1711590064218750
48.42,1711590064234375
42.32,1711590064250000
34.46,1711590064265625
24.0,1711590064281250
10.87,1711590064296875
-4.19,1711590064312500
-19.9,1711590064328125
-34.89,1711590064343750
-48.23,1711590064359375
-59.73,1711590064375000
-69.96,1711590064390625
-79.95,1711590064406250
-90.93,1711590064421875
-103.91,1711590064437500
-119.41,1711590064453125
-136.99,1711590064468750
-155.03,1711590064484375
-170.54,1711590064500000
-179.65,1711590064515625
-178.59,1711590064531250
-164.95,1711590064546875
-138.72,1711590064562500
-102.49,1711590064578125
-60.76,1711590064593750
-18.54,1711590064609375
20.04,1711590064625000
52.54,1711590064640625
78.18,1711590064656250
97.21,1711590064671875
110.17,1711590064687500
117.49,1711590064703125
119.53,1711590064718750
116.98,1711590064734375
111.14,1711590064750000
103.78,1711590064765625
96.7,1711590064781250
91.14,1711590064796875
87.39,1711590064812500
84.79,1711590064828125
82.15,1711590064843750
78.4,1711590064859375
73.08,1711590064875000
66.52,1711590064890625
59.62,1711590064906250
53.28,1711590064921875
47.89,1711590064937500
43.07,1711590064953125
37.84,1711590064968750
30.99,1711590064984375
21.76,1711590065000000
10.15,1711590065015625
-3.04,1711590065031250
-16.54,1711590065046875
-29.14,1711590065062500
-40.14,1711590065078125
-49.66,1711590065093750
-58.52,1711590065109375
-67.98,1711590065125000
-79.32,1711590065140625
-93.43,1711590065156250
-110.3,1711590065171875
-128.66,1711590065187500
-145.85,1711590065203125
-158.12,1711590065218750
-161.56,1711590065234375
-153.24,1711590065250000
-132.35,1711590065265625
-100.63,1711590065281250
-61.94,1711590065296875
-21.09,1711590065312500
17.47,1711590065328125
50.76,1711590065343750
77.45,1711590065359375
97.46,1711590065375000
111.25,1711590065390625
119.32,1711590065406250
122.08,1711590065421875
120.13,1711590065437500
114.54,1711590065453125
106.88,1711590065468750
98.94,1711590065484375
92.15,1711590065500000
87.2,1711590065515625
83.82,1711590065531250
81.05,1711590065546875
77.76,1711590065562500
73.24,1711590065578125
67.48,1711590065593750
61.1,1711590065609375
54.96,1711590065625000
49.54,1711590065640625
44.65,1711590065656250
39.36,1711590065671875
32.45,1711590065687500
23.02,1711590065703125
10.99,1711590065718750
-2.8,1711590065734375
-16.94,1711590065750000
-30.07,1711590065765625
-41.47,1711590065781250
-51.32,1711590065796875
-60.52,1711590065812500
-70.33,1711590065828125
-81.96,1711590065843750
-96.22,1711590065859375
-113.26,1711590065875000
-132.27,1711590065890625
-151.27,1711590065906250
-167.08,1711590065921875
-175.82,1711590065937500
-173.91,1711590065953125
-159.23,1711590065968750
-132.14,1711590065984375
-95.52,1711590066000000
-54.06,1711590066015625
-12.81,1711590066031250
24.2,1711590066046875
54.76,1711590066062500
78.49,1711590066078125
96.14,1711590066093750
108.74,1711590066109375
117.06,1711590066125000
121.42,1711590066140625
122.04,1711590066156250
119.4,1711590066171875
114.37,1711590066187500
108.18,1711590066203125
102.03,1711590066218750
96.74,1711590066234375
92.56,1711590066250000
89.2,1711590066265625
86.1,1711590066281250
82.75,1711590066296875
78.8,1711590066312500
74.16,1711590066328125
68.82,1711590066343750
62.81,1711590066359375
56.08,1711590066375000
48.55,1711590066390625
40.17,1711590066406250
30.88,1711590066421875
20.67,1711590066437500
9.51,1711590066453125
-2.5,1711590066468750
-15.15,1711590066484375
-28.03,1711590066500000
-40.65,1711590066515625
-52.53,1711590066531250
-63.45,1711590066546875
-73.48,1711590066562500
-83.01,1711590066578125
-92.66,1711590066593750
-103.23,1711590066609375
-115.53,1711590066625000
-130.14,1711590066640625
-146.95,1711590066656250
-164.61,1711590066671875
-180.29,1711590066687500
-190.02,1711590066703125
-189.68,1711590066718750
-176.52,1711590066734375
-150.24,1711590066750000
-113.46,1711590066765625
-70.9,1711590066781250
-27.95,1711590066796875
10.99,1711590066812500
43.45,1711590066828125
68.97,1711590066843750
88.37,1711590066859375
102.79,1711590066875000
113.0,1711590066890625
119.34,1711590066906250
122.04,1711590066921875
121.59,1711590066937500
118.96,1711590066953125
115.34,1711590066968750
111.72,1711590066984375
108.57,1711590067000000
105.76,1711590067015625
102.79,1711590067031250
99.23,1711590067046875
94.99,1711590067062500
90.41,1711590067078125
85.99,1711590067093750
81.99,1711590067109375
78.25,1711590067125000
74.08,1711590067140625
68.62,1711590067156250
61.2,1711590067171875
51.68,1711590067187500
40.54,1711590067203125
28.84,1711590067218750
17.68,1711590067234375
7.85,1711590067250000
-0.54,1711590067265625
-8.06,1711590067281250
-15.75,1711590067296875
-24.58,1711590067312500
-35.05,1711590067328125
-46.99,1711590067343750
-59.58,1711590067359375
-71.78,1711590067375000
-82.72,1711590067390625
-92.0,1711590067406250
-99.85,1711590067421875
-107.07,1711590067437500
-114.89,1711590067453125
-124.61,1711590067468750
-137.23,1711590067484375
-152.8,1711590067500000
-169.91,1711590067515625
-185.52,1711590067531250
-195.45,1711590067546875
-195.57,1711590067562500
-183.09,1711590067578125
-157.82,1711590067593750
-122.24,1711590067609375
-80.83,1711590067625000
-38.66,1711590067640625
0.04,1711590067656250
32.7,1711590067671875
58.49,1711590067687500
77.75,1711590067703125
91.31,1711590067718750
99.96,1711590067734375
104.47,1711590067750000
105.63,1711590067765625
104.47,1711590067781250
102.14,1711590067796875
99.63,1711590067812500
97.46,1711590067828125
95.59,1711590067843750
93.65,1711590067859375
91.22,1711590067875000
88.18,1711590067890625
84.76,1711590067906250
81.37,1711590067921875
78.29,1711590067937500
75.43,1711590067953125
72.32,1711590067968750
68.34,1711590067984375
62.96,1711590068000000
56.01,1711590068015625
47.8,1711590068031250
38.84,1711590068046875
29.68,1711590068062500
20.68,1711590068078125
11.81,1711590068093750
2.71,1711590068109375
-7.09,1711590068125000
-17.92,1711590068140625
-29.67,1711590068156250
-41.74,1711590068171875
-53.28,1711590068187500
-63.5,1711590068203125
-72.09,1711590068218750
-79.44,1711590068234375
-86.54,1711590068250000
-94.73,1711590068265625
-105.25,1711590068281250
-118.74,1711590068296875
-134.67,1711590068312500
-151.1,1711590068328125
-164.67,1711590068343750
-171.36,1711590068359375
-167.61,1711590068375000
-151.6,1711590068390625
-124.1,1711590068406250
-88.4,1711590068421875
-49.3,1711590068437500
-11.7,1711590068453125
20.8,1711590068468750
46.52,1711590068484375
65.54,1711590068500000
78.85,1711590068515625
87.65,1711590068531250
92.74,1711590068546875
94.56,1711590068562500
93.48,1711590068578125
90.12,1711590068593750
85.45,1711590068609375
80.63,1711590068625000
76.66,1711590068640625
74.03,1711590068656250
72.62,1711590068671875
71.79,1711590068687500
70.75,1711590068703125
68.86,1711590068718750
65.88,1711590068734375
61.95,1711590068750000
57.44,1711590068765625
52.68,1711590068781250
47.73,1711590068796875
42.33,1711590068812500
35.97,1711590068828125
28.08,1711590068843750
18.31,1711590068859375
6.72,1711590068875000
-6.11,1711590068890625
-19.26,1711590068906250
-31.76,1711590068921875
-42.94,1711590068937500
-52.72,1711590068953125
-61.62,1711590068968750
-70.49,1711590068984375
-80.26,1711590069000000
-91.72,1711590069015625
-105.34,1711590069031250
-121.03,1711590069046875
-137.99,1711590069062500
-154.29,1711590069078125
-166.91,1711590069093750
-172.26,1711590069109375
-167.15,1711590069125000
-150.1,1711590069140625
-122.06,1711590069156250
-86.39,1711590069171875
-47.78,1711590069187500
-10.86,1711590069203125
21.15,1711590069218750
46.85,1711590069234375
66.37,1711590069250000
80.53,1711590069265625
90.11,1711590069281250
95.63,1711590069296875
97.42,1711590069312500
96.05,1711590069328125
92.56,1711590069343750
88.3,1711590069359375
84.71,1711590069375000
82.95,1711590069390625
83.56,1711590069406250
86.42,1711590069421875
90.84,1711590069437500
95.78,1711590069453125
100.19,1711590069468750
103.23,1711590069484375
104.41,1711590069500000
103.64,1711590069515625
101.09,1711590069531250
96.99,1711590069546875
91.48,1711590069562500
84.54,1711590069578125
76.05,1711590069593750
65.88,1711590069609375
54.09,1711590069625000
41.06,1711590069640625
27.43,1711590069656250
14.08,1711590069671875
1.81,1711590069687500
-8.88,1711590069703125
-17.95,1711590069718750
-26.06,1711590069734375
-34.42,1711590069750000
-44.68,1711590069765625
-58.69,1711590069781250
-78.07,1711590069796875
-103.58,1711590069812500
-134.49,1711590069828125
-168.04,1711590069843750
-199.58,1711590069859375
-223.58,1711590069875000
-235.27,1711590069890625
-232.39,1711590069906250
-216.09,1711590069921875
-190.55,1711590069937500
-161.51,1711590069953125
-134.17,1711590069968750
-111.72,1711590069984375
-94.93,1711590070000000
-82.8,1711590070015625
-73.69,1711590070031250
-66.32,1711590070046875
-60.01,1711590070062500
-54.33,1711590070078125
-48.6,1711590070093750
-41.82,1711590070109375
-32.9,1711590070125000
-21.29,1711590070140625
-7.28,1711590070156250
8.05,1711590070171875
23.35,1711590070187500
37.7,1711590070203125
50.97,1711590070218750
63.76,1711590070234375
76.81,1711590070250000
90.44,1711590070265625
104.09,1711590070281250
116.4,1711590070296875
125.68,1711590070312500
130.52,1711590070328125
130.33,1711590070343750
125.39,1711590070359375
116.69,1711590070375000
105.54,1711590070390625
93.37,1711590070406250
81.37,1711590070421875
70.42,1711590070437500
60.84,1711590070453125
52.23,1711590070468750
43.44,1711590070484375
32.96,1711590070500000
19.4,1711590070515625
1.97,1711590070531250
-19.11,1711590070546875
-42.61,1711590070562500
-66.4,1711590070578125
-87.8,1711590070593750
-103.93,1711590070609375
-112.22,1711590070625000
-110.94,1711590070640625
-99.7,1711590070656250
-79.82,1711590070671875
-54.08,1711590070687500
-26.09,1711590070703125
0.8,1711590070718750
24.35,1711590070734375
43.78,1711590070750000
59.38,1711590070765625
71.8,1711590070781250
81.37,1711590070796875
87.84,1711590070812500
90.76,1711590070828125
89.98,1711590070843750
86.02,1711590070859375
79.99,1711590070875000
73.17,1711590070890625
66.55,1711590070906250
60.46,1711590070921875
54.75,1711590070937500
49.22,1711590070953125
43.95,1711590070968750
39.43,1711590070984375
36.2,1711590071000000
34.35,1711590071015625
33.2,1711590071031250
31.37,1711590071046875
27.38,1711590071062500
20.29,1711590071078125
10.21,1711590071093750
-1.8,1711590071109375
-14.13,1711590071125000
-25.43,1711590071140625
-35.03,1711590071156250
-43.25,1711590071171875
-51.04,1711590071187500
-59.69,1711590071203125
-70.37,1711590071218750
-83.83,1711590071234375
-100.02,1711590071250000
-117.9,1711590071265625
-135.2,1711590071281250
-148.7,1711590071296875
-154.82,1711590071312500
-150.7,1711590071328125
-135.22,1711590071343750
-109.52,1711590071359375
-76.82,1711590071375000
-41.44,1711590071390625
-7.61,1711590071406250
21.61,1711590071421875
44.73,1711590071437500
61.61,1711590071453125
72.91,1711590071468750
79.5,1711590071484375
82.24,1711590071500000
81.92,1711590071515625
79.45,1711590071531250
75.81,1711590071546875
71.91,1711590071562500
68.3,1711590071578125
65.01,1711590071593750
61.62,1711590071609375
57.56,1711590071625000
52.52,1711590071640625
46.68,1711590071656250
40.72,1711590071671875
35.42,1711590071687500
31.25,1711590071703125
27.99,1711590071718750
24.73,1711590071734375
20.18,1711590071750000
13.29,1711590071765625
3.74,1711590071781250
-7.84,1711590071796875
-20.07,1711590071812500
-31.44,1711590071828125
-40.9,1711590071843750
-48.41,1711590071859375
-54.91,1711590071875000
-62.06,1711590071890625
-71.58,1711590071906250
-84.63,1711590071921875
-101.33,1711590071937500
-120.3,1711590071953125
-138.74,1711590071968750
-152.79,1711590071984375
-158.47,1711590072000000
-152.88,1711590072015625
-135.25,1711590072031250
-107.34,1711590072046875
-72.95,1711590072062500
-36.7,1711590072078125
-2.66,1711590072093750
26.62,1711590072109375
50.28,1711590072125000
68.53,1711590072140625
81.96,1711590072156250
90.97,1711590072171875
95.8,1711590072187500
96.85,1711590072203125
95.0,1711590072218750
91.55,1711590072234375
87.77,1711590072250000
84.52,1711590072265625
81.85,1711590072281250
79.18,1711590072296875
75.72,1711590072312500
70.96,1711590072328125
65.07,1711590072343750
58.8,1711590072359375
53.16,1711590072375000
48.79,1711590072390625
45.64,1711590072406250
42.8,1711590072421875
38.9,1711590072437500
32.69,1711590072453125
23.6,1711590072468750
11.98,1711590072484375
-1.04,1711590072500000
-14.02,1711590072515625
-25.84,1711590072531250
-36.06,1711590072546875
-45.14,1711590072562500
-54.2,1711590072578125
-64.73,1711590072593750
-78.02,1711590072609375
-94.7,1711590072625000
-114.17,1711590072640625
-134.21,1711590072656250
-151.21,1711590072671875
-160.89,1711590072687500
-159.6,1711590072703125
-145.59,1711590072718750
-119.85,1711590072734375
-85.82,1711590072750000
-48.34,1711590072765625
-12.04,1711590072781250
19.84,1711590072796875
45.96,1711590072812500
66.45,1711590072828125
82.09,1711590072843750
93.54,1711590072859375
100.99,1711590072875000
104.44,1711590072890625
104.14,1711590072906250
100.85,1711590072921875
95.87,1711590072937500
90.58,1711590072953125
85.92,1711590072968750
82.1,1711590072984375
78.62,1711590073000000
74.72,1711590073015625
69.9,1711590073031250
64.25,1711590073046875
58.45,1711590073062500
53.33,1711590073078125
49.35,1711590073093750
46.26,1711590073109375
43.0,1711590073125000
38.18,1711590073140625
30.65,1711590073156250
20.03,1711590073171875
6.93,1711590073187500
-7.28,1711590073203125
-21.0,1711590073218750
-32.99,1711590073234375
-42.84,1711590073250000
-51.06,1711590073265625
-58.81,1711590073281250
-67.64,1711590073296875
-78.91,1711590073312500
-93.42,1711590073328125
-110.95,1711590073343750
-129.92,1711590073359375
-147.39,1711590073375000
-159.47,1711590073390625
-162.31,1711590073406250
-153.35,1711590073421875
-132.24,1711590073437500
-101.2,1711590073453125
-64.36,1711590073468750
-26.49,1711590073484375
8.33,1711590073500000
37.62,1711590073515625
60.56,1711590073531250
77.5,1711590073546875
89.22,1711590073562500
96.45,1711590073578125
99.73,1711590073593750
99.65,1711590073609375
97.02,1711590073625000
92.85,1711590073640625
88.22,1711590073656250
83.9,1711590073671875
80.16,1711590073687500
76.73,1711590073703125
73.03,1711590073718750
68.62,1711590073734375
63.4,1711590073750000
57.76,1711590073765625
52.42,1711590073781250
47.99,1711590073796875
44.61,1711590073812500
41.76,1711590073828125
38.33,1711590073843750
33.09,1711590073859375
25.2,1711590073875000
14.59,1711590073890625
2.05,1711590073906250
-11.11,1711590073921875
-23.62,1711590073937500
-34.77,1711590073953125
-44.69,1711590073968750
-54.21,1711590073984375
-64.44,1711590074000000
-76.37,1711590074015625
-90.49,1711590074031250
-106.6,1711590074046875
-123.66,1711590074062500
-139.7,1711590074078125
-151.93,1711590074093750
-157.13,1711590074109375
-152.54,1711590074125000
-136.8,1711590074140625
-110.66,1711590074156250
-77.03,1711590074171875
-40.16,1711590074187500
-4.49,1711590074203125
26.57,1711590074218750
51.19,1711590074234375
69.05,1711590074250000
80.72,1711590074265625
87.11,1711590074281250
89.16,1711590074296875
87.77,1711590074312500
84.01,1711590074328125
79.07,1711590074343750
74.08,1711590074359375
69.75,1711590074375000
66.21,1711590074390625
63.1,1711590074406250
59.84,1711590074421875
56.07,1711590074437500
51.87,1711590074453125
47.67,1711590074468750
43.91,1711590074484375
40.7,1711590074500000
37.54,1711590074515625
33.59,1711590074531250
27.96,1711590074546875
20.18,1711590074562500
10.36,1711590074578125
-0.84,1711590074593750
-12.49,1711590074609375
-23.79,1711590074625000
-34.29,1711590074640625
-44.05,1711590074656250
-53.62,1711590074671875
-63.95,1711590074687500
-76.06,1711590074703125
-90.6,1711590074718750
-107.24,1711590074734375
-124.25,1711590074750000
-138.54,1711590074765625
-146.32,1711590074781250
-144.26,1711590074796875
-130.71,1711590074812500
-106.44,1711590074828125
-74.53,1711590074843750
-39.48,1711590074859375
-5.84,1711590074875000
22.94,1711590074890625
45.13,1711590074906250
60.59,1711590074921875
70.12,1711590074937500
74.88,1711590074953125
75.89,1711590074968750
73.99,1711590074984375
69.87,1711590075000000
64.27,1711590075015625
57.92,1711590075031250
51.52,1711590075046875
45.59,1711590075062500
40.39,1711590075078125
36.01,1711590075093750
32.38,1711590075109375
29.33,1711590075125000
26.64,1711590075140625
23.97,1711590075156250
20.89,1711590075171875
16.89,1711590075187500
11.55,1711590075203125
4.57,1711590075218750
-4.01,1711590075234375
-13.86,1711590075250000
-24.41,1711590075265625
-35.05,1711590075281250
-45.37,1711590075296875
-55.42,1711590075312500
-65.81,1711590075328125
-77.6,1711590075343750
-91.83,1711590075359375
-108.82,1711590075375000
-127.5,1711590075390625
-145.09,1711590075406250
-157.51,1711590075421875
-160.53,1711590075437500
-151.13,1711590075453125
-128.8,1711590075468750
-95.8,1711590075484375
-56.58,1711590075500000
-16.41,1711590075515625
20.16,1711590075531250
50.27,1711590075546875
73.06,1711590075562500
89.14,1711590075578125
99.82,1711590075593750
106.36,1711590075609375
109.61,1711590075625000
110.01,1711590075640625
107.76,1711590075656250
103.12,1711590075671875
96.61,1711590075687500
89.1,1711590075703125
81.57,1711590075718750
74.8,1711590075734375
69.14,1711590075750000
64.34,1711590075765625
59.76,1711590075781250
54.65,1711590075796875
48.47,1711590075812500
41.04,1711590075828125
32.45,1711590075843750
22.94,1711590075859375
12.66,1711590075875000
1.7,1711590075890625
-9.83,1711590075906250
-21.78,1711590075921875
-33.99,1711590075937500
-46.51,1711590075953125
-59.83,1711590075968750
-74.78,1711590075984375
-92.19,1711590076000000
-112.08,1711590076015625
-132.99,1711590076031250
-151.83,1711590076046875
-164.34,1711590076062500
-166.4,1711590076078125
-155.42,1711590076093750
-131.42,1711590076109375
-97.17,1711590076125000
-57.31,1711590076140625
-16.98,1711590076156250
19.7,1711590076171875
50.38,1711590076187500
74.5,1711590076203125
92.68,1711590076218750
105.85,1711590076234375
114.77,1711590076250000
119.85,1711590076265625
121.39,1711590076281250
119.85,1711590076296875
115.97,1711590076312500
110.64,1711590076328125
104.61,1711590076343750
98.31,1711590076359375
91.86,1711590076375000
85.2,1711590076390625
78.45,1711590076406250
72.01,1711590076421875
66.41,1711590076437500
62.01,1711590076453125
58.58,1711590076468750
55.18,1711590076484375
50.45,1711590076500000
43.14,1711590076515625
32.65,1711590076531250
19.36,1711590076546875
4.49,1711590076562500
-10.38,1711590076578125
-23.91,1711590076593750
-35.57,1711590076609375
-45.82,1711590076625000
-56.05,1711590076640625
-68.13,1711590076656250
-83.71,1711590076671875
-103.34,1711590076687500
-125.76,1711590076703125
-147.69,1711590076718750
-164.36,1711590076734375
-170.86,1711590076750000
-163.74,1711590076765625
-142.3,1711590076781250
-109.0,1711590076796875
-68.69,1711590076812500
-26.99,1711590076828125
11.3,1711590076843750
43.33,1711590076859375
68.26,1711590076875000
86.63,1711590076890625
99.47,1711590076906250
107.63,1711590076921875
111.68,1711590076937500
112.18,1711590076953125
110.04,1711590076968750
106.48,1711590076984375
102.82,1711590077000000
99.95,1711590077015625
98.04,1711590077031250
96.44,1711590077046875
94.12,1711590077062500
90.24,1711590077078125
84.6,1711590077093750
77.77,1711590077109375
70.79,1711590077125000
64.56,1711590077140625
59.34,1711590077156250
54.57,1711590077171875
48.98,1711590077187500
41.24,1711590077203125
30.59,1711590077218750
17.14,1711590077234375
1.94,1711590077250000
-13.51,1711590077265625
-27.84,1711590077281250
-40.4,1711590077296875
-51.42,1711590077312500
-61.91,1711590077328125
-73.26,1711590077343750
-86.72,1711590077359375
-102.99,1711590077375000
-121.69,1711590077390625
-141.09,1711590077406250
-158.08,1711590077421875
-168.64,1711590077437500
-168.87,1711590077453125
-156.3,1711590077468750
-130.95,1711590077484375
-95.62,1711590077500000
-55.14,1711590077515625
-14.85,1711590077531250
20.93,1711590077546875
49.88,1711590077562500
71.66,1711590077578125
87.14,1711590077593750
97.43,1711590077609375
103.25,1711590077625000
104.95,1711590077640625
102.92,1711590077656250
98.05,1711590077671875
91.82,1711590077687500
85.91,1711590077703125
81.62,1711590077718750
79.3,1711590077734375
78.29,1711590077750000
77.32,1711590077765625
75.15,1711590077781250
71.2,1711590077796875
65.75,1711590077812500
59.74,1711590077828125
54.19,1711590077843750
49.62,1711590077859375
45.78,1711590077875000
41.64,1711590077890625
35.92,1711590077906250
27.63,1711590077921875
16.49,1711590077937500
3.12,1711590077953125
-11.21,1711590077968750
-25.07,1711590077984375
-37.37,1711590078000000
-47.77,1711590078015625
-56.73,1711590078031250
-65.32,1711590078046875
-74.83,1711590078062500
-86.41,1711590078078125
-100.78,1711590078093750
-117.85,1711590078109375
-136.5,1711590078125000
-154.31,1711590078140625
-167.74,1711590078156250
-172.86,1711590078171875
-166.45,1711590078187500
-147.24,1711590078203125
-116.62,1711590078218750
-78.42,1711590078234375
-37.77,1711590078250000
0.4,1711590078265625
32.71,1711590078281250
57.76,1711590078296875
75.82,1711590078312500
87.93,1711590078328125
95.11,1711590078343750
98.0,1711590078359375
97.08,1711590078375000
93.06,1711590078390625
87.1,1711590078406250
80.78,1711590078421875
75.63,1711590078437500
72.53,1711590078453125
71.46,1711590078468750
71.59,1711590078484375
71.69,1711590078500000
70.71,1711590078515625
68.22,1711590078531250
64.43,1711590078546875
59.97,1711590078562500
55.49,1711590078578125
51.31,1711590078593750
47.24,1711590078609375
42.7,1711590078625000
36.93,1711590078640625
29.31,1711590078656250
19.59,1711590078671875
8.06,1711590078687500
-4.62,1711590078703125
-17.5,1711590078718750
-29.72,1711590078734375
-40.72,1711590078750000
-50.47,1711590078765625
-59.35,1711590078781250
-68.06,1711590078796875
-77.47,1711590078812500
-88.38,1711590078828125
-101.39,1711590078843750
-116.54,1711590078859375
-132.93,1711590078875000
-148.41,1711590078890625
-159.69,1711590078906250
-163.01,1711590078921875
-155.38,1711590078937500
-135.73,1711590078953125
-105.54,1711590078968750
-68.6,1711590078984375
-29.78,1711590079000000
6.4,1711590079015625
36.95,1711590079031250
60.65,1711590079046875
77.69,1711590079062500
88.83,1711590079078125
94.79,1711590079093750
96.09,1711590079109375
93.39,1711590079125000
87.7,1711590079140625
80.55,1711590079156250
73.67,1711590079171875
68.46,1711590079187500
65.6,1711590079203125
64.83,1711590079218750
65.19,1711590079234375
65.43,1711590079250000
64.58,1711590079265625
62.27,1711590079281250
58.79,1711590079296875
54.83,1711590079312500
51.07,1711590079328125
47.76,1711590079343750
44.54,1711590079359375
40.56,1711590079375000
34.83,1711590079390625
26.68,1711590079406250
16.1,1711590079421875
3.82,1711590079437500
-8.92,1711590079453125
-20.89,1711590079468750
-31.25,1711590079484375
-39.91,1711590079500000
-47.44,1711590079515625
-54.86,1711590079531250
-63.26,1711590079546875
-73.61,1711590079562500
-86.45,1711590079578125
-101.7,1711590079593750
-118.35,1711590079609375
-134.23,1711590079625000
-146.11,1711590079640625
-150.37,1711590079656250
-144.05,1711590079671875
-126.0,1711590079687500
-97.53,1711590079703125
-62.15,1711590079718750
-24.54,1711590079734375
10.84,1711590079750000
40.89,1711590079765625
64.17,1711590079781250
80.6,1711590079796875
90.78,1711590079812500
95.46,1711590079828125
95.33,1711590079843750
91.3,1711590079859375
84.62,1711590079875000
76.9,1711590079890625
69.78,1711590079906250
64.47,1711590079921875
61.39,1711590079937500
60.06,1711590079953125
59.4,1711590079968750
58.17,1711590079984375
55.56,1711590080000000
51.44,1711590080015625
46.35,1711590080031250
41.21,1711590080046875
36.77,1711590080062500
33.23,1711590080078125
30.11,1711590080093750
26.37,1711590080109375
20.9,1711590080125000
12.99,1711590080140625
2.69,1711590080156250
-9.22,1711590080171875
-21.46,1711590080187500
-32.8,1711590080203125
-42.54,1711590080218750
-50.75,1711590080234375
-58.23,1711590080250000
-66.27,1711590080265625
-76.19,1711590080281250
-88.93,1711590080296875
-104.65,1711590080312500
-122.35,1711590080328125
-139.77,1711590080343750
-153.6,1711590080359375
-160.05,1711590080375000
-155.94,1711590080390625
-139.77,1711590080406250
-112.43,1711590080421875
-77.11,1711590080437500
-38.41,1711590080453125
-1.02,1711590080468750
31.54,1711590080484375
57.44,1711590080500000
76.42,1711590080515625
88.97,1711590080531250
95.79,1711590080546875
97.44,1711590080562500
94.62,1711590080578125
88.41,1711590080593750
80.45,1711590080609375
72.58,1711590080625000
66.27,1711590080640625
62.2,1711590080656250
60.02,1711590080671875
58.73,1711590080687500
57.22,1711590080703125
54.77,1711590080718750
51.27,1711590080734375
47.16,1711590080750000
43.03,1711590080765625
39.21,1711590080781250
35.61,1711590080796875
31.69,1711590080812500
26.69,1711590080828125
19.99,1711590080843750
11.31,1711590080859375
0.85,1711590080875000
-10.76,1711590080890625
-22.75,1711590080906250
-34.4,1711590080921875
-45.3,1711590080937500
-55.46,1711590080953125
-65.43,1711590080968750
-76.17,1711590080984375
-88.82,1711590081000000
-104.29,1711590081015625
-122.49,1711590081031250
-141.83,1711590081046875
-159.11,1711590081062500
-170.1,1711590081078125
-170.85,1711590081093750
-159.02,1711590081109375
-134.82,1711590081125000
-100.99,1711590081140625
-61.97,1711590081156250
-22.49,1711590081171875
13.5,1711590081187500
43.57,1711590081203125
66.66,1711590081218750
82.68,1711590081234375
92.08,1711590081250000
95.61,1711590081265625
94.28,1711590081281250
89.42,1711590081296875
82.64,1711590081312500
75.49,1711590081328125
69.17,1711590081343750
64.26,1711590081359375
60.61,1711590081375000
57.69,1711590081390625
54.88,1711590081406250
51.91,1711590081421875
48.92,1711590081437500
46.27,1711590081453125
44.07,1711590081468750
41.94,1711590081484375
38.99,1711590081500000
34.09,1711590081515625
26.51,1711590081531250
16.26,1711590081546875
4.12,1711590081562500
-8.65,1711590081578125
-20.88,1711590081593750
-31.86,1711590081609375
-41.62,1711590081625000
-50.81,1711590081640625
-60.59,1711590081656250
-72.27,1711590081671875
-86.96,1711590081687500
-104.97,1711590081703125
-125.24,1711590081718750
-145.04,1711590081734375
-160.32,1711590081750000
-166.63,1711590081765625
-160.6,1711590081781250
-141.15,1711590081796875
-110.08,1711590081812500
-71.53,1711590081828125
-30.78,1711590081843750
7.28,1711590081859375
39.33,1711590081875000
64.01,1711590081890625
81.44,1711590081906250
92.6,1711590081921875
98.55,1711590081937500
100.21,1711590081953125
98.36,1711590081968750
93.94,1711590081984375
88.05,1711590082000000
81.86,1711590082015625
76.21,1711590082031250
71.38,1711590082046875
67.12,1711590082062500
62.9,1711590082078125
58.38,1711590082093750
53.66,1711590082109375
49.21,1711590082125000
45.5,1711590082140625
42.59,1711590082156250
39.86,1711590082171875
36.18,1711590082187500
30.39,1711590082203125
21.75,1711590082218750
10.32,1711590082234375
-3.09,1711590082250000
-17.22,1711590082265625
-30.89,1711590082281250
-43.4,1711590082296875
-54.84,1711590082312500
-66.05,1711590082328125
-78.39,1711590082343750
-93.27,1711590082359375
-111.46,1711590082375000
-132.34,1711590082390625
-153.59,1711590082406250
-171.29,1711590082421875
-180.82,1711590082437500
-178.22,1711590082453125
-161.68,1711590082468750
-132.2,1711590082484375
-93.5,1711590082500000
-50.84,1711590082515625
-9.45,1711590082531250
26.82,1711590082546875
56.04,1711590082562500
77.98,1711590082578125
93.29,1711590082593750
102.86,1711590082609375
107.5,1711590082625000
108.05,1711590082640625
105.57,1711590082656250
101.38,1711590082671875
96.81,1711590082687500
92.77,1711590082703125
89.55,1711590082718750
86.77,1711590082734375
83.82,1711590082750000
80.2,1711590082765625
75.8,1711590082781250
70.97,1711590082796875
66.17,1711590082812500
61.64,1711590082828125
57.18,1711590082843750
52.06,1711590082859375
45.32,1711590082875000
36.15,1711590082890625
24.34,1711590082906250
10.43,1711590082921875
-4.43,1711590082937500
-18.92,1711590082953125
-32.17,1711590082968750
-44.14,1711590082984375
-55.61,1711590083000000
-68.02,1711590083015625
-82.87,1711590083031250
-101.1,1711590083046875
-122.49,1711590083062500
-145.21,1711590083078125
-165.81,1711590083093750
-179.79,1711590083109375
-182.82,1711590083125000
-172.13,1711590083140625
-147.69,1711590083156250
-112.36,1711590083171875
-71.08,1711590083187500
-29.28,1711590083203125
8.74,1711590083218750
40.66,1711590083234375
66.09,1711590083250000
85.75,1711590083265625
100.45,1711590083281250
110.66,1711590083296875
116.53,1711590083312500
118.33,1711590083328125
116.84,1711590083343750
113.36,1711590083359375
109.33,1711590083375000
105.82,1711590083390625
103.14,1711590083406250
100.87,1711590083421875
98.13,1711590083437500
94.16,1711590083453125
88.74,1711590083468750
82.3,1711590083484375
75.72,1711590083500000
69.78,1711590083515625
64.65,1711590083531250
59.67,1711590083546875
53.55,1711590083562500
44.99,1711590083578125
33.24,1711590083593750
18.62,1711590083609375
2.37,1711590083625000
-13.85,1711590083640625
-28.59,1711590083656250
-41.23,1711590083671875
-52.15,1711590083687500
-62.57,1711590083703125
-74.19,1711590083718750
-88.6,1711590083734375
-106.78,1711590083750000
-128.41,1711590083765625
-151.54,1711590083781250
-172.52,1711590083796875
-186.73,1711590083812500
-189.78,1711590083828125
-178.92,1711590083843750
-154.16,1711590083859375
-118.37,1711590083875000
-76.46,1711590083890625
-33.87,1711590083906250
4.97,1711590083921875
37.56,1711590083937500
63.34,1711590083953125
83.07,1711590083968750
97.91,1711590083984375
108.8,1711590084000000
116.21,1711590084015625
120.37,1711590084031250
121.57,1711590084046875
120.39,1711590084062500
117.74,1711590084078125
114.5,1711590084093750
111.28,1711590084109375
108.22,1711590084125000
105.05,1711590084140625
101.3,1711590084156250
96.7,1711590084171875
91.32,1711590084187500
85.51,1711590084203125
79.77,1711590084218750
74.46,1711590084234375
69.56,1711590084250000
64.63,1711590084265625
58.85,1711590084281250
51.32,1711590084296875
41.39,1711590084312500
28.97,1711590084328125
14.62,1711590084343750
-0.56,1711590084359375
-15.33,1711590084375000
-28.73,1711590084390625
-40.4,1711590084406250
-50.75,1711590084421875
-60.66,1711590084437500
-71.28,1711590084453125
-83.73,1711590084468750
-98.87,1711590084484375
-116.99,1711590084500000
-137.42,1711590084515625
-158.18,1711590084531250
-175.9,1711590084546875
-186.39,1711590084562500
-185.77,1711590084578125
-171.94,1711590084593750
-145.46,1711590084609375
-109.64,1711590084625000
-69.47,1711590084640625
-30.13,1711590084656250
4.6,1711590084671875
33.02,1711590084687500
55.31,1711590084703125
72.65,1711590084718750
86.22,1711590084734375
96.61,1711590084750000
103.84,1711590084765625
107.77,1711590084781250
108.62,1711590084796875
107.12,1711590084812500
104.43,1711590084828125
101.63,1711590084843750
99.36,1711590084859375
97.53,1711590084875000
95.6,1711590084890625
92.86,1711590084906250
88.89,1711590084921875
83.82,1711590084937500
78.14,1711590084953125
72.51,1711590084968750
67.3,1711590084984375
62.38,1711590085000000
57.11,1711590085015625
50.5,1711590085031250
41.7,1711590085046875
30.29,1711590085062500
16.6,1711590085078125
1.57,1711590085093750
-13.51,1711590085109375
-27.45,1711590085125000
-39.57,1711590085140625
-49.86,1711590085156250
-58.9,1711590085171875
-67.65,1711590085187500
-77.23,1711590085203125
-88.73,1711590085218750
-103.01,1711590085234375
-120.33,1711590085250000
-139.84,1711590085265625
-159.25,1711590085281250
-174.86,1711590085296875
-182.39,1711590085312500
-178.26,1711590085328125
-160.96,1711590085343750
-131.84,1711590085359375
-94.68,1711590085375000
-54.64,1711590085390625
-16.55,1711590085406250
16.38,1711590085421875
43.04,1711590085437500
64.03,1711590085453125
80.54,1711590085468750
93.55,1711590085484375
103.2,1711590085500000
109.16,1711590085515625
111.2,1711590085531250
109.67,1711590085546875
105.74,1711590085562500
101.0,1711590085578125
96.77,1711590085593750
93.65,1711590085609375
91.38,1711590085625000
89.2,1711590085640625
86.37,1711590085656250
82.6,1711590085671875
78.18,1711590085687500
73.57,1711590085703125
69.15,1711590085718750
64.82,1711590085734375
60.11,1711590085750000
54.39,1711590085765625
47.07,1711590085781250
37.89,1711590085796875
26.94,1711590085812500
14.69,1711590085828125
1.8,1711590085843750
-11.01,1711590085859375
-23.18,1711590085875000
-34.42,1711590085890625
-44.74,1711590085906250
-54.4,1711590085921875
-63.86,1711590085937500
-73.69,1711590085953125
-84.6,1711590085968750
-97.36,1711590085984375
-112.47,1711590086000000
-129.76,1711590086015625
-147.82,1711590086031250
-163.81,1711590086046875
-173.95,1711590086062500
-174.45,1711590086078125
-162.93,1711590086093750
-139.38,1711590086109375
-106.34,1711590086125000
-68.2,1711590086140625
-29.85,1711590086156250
4.75,1711590086171875
33.47,1711590086187500
56.04,1711590086203125
73.41,1711590086218750
86.85,1711590086234375
97.25,1711590086250000
104.93,1711590086265625
109.83,1711590086281250
111.95,1711590086296875
111.57,1711590086312500
109.39,1711590086328125
106.2,1711590086343750
102.72,1711590086359375
99.34,1711590086375000
96.19,1711590086390625
93.17,1711590086406250
90.13,1711590086421875
86.96,1711590086437500
83.53,1711590086453125
79.64,1711590086468750
75.02,1711590086484375
69.37,1711590086500000
62.51,1711590086515625
54.37,1711590086531250
45.07,1711590086546875
34.83,1711590086562500
23.91,1711590086578125
12.47,1711590086593750
0.64,1711590086609375
-11.48,1711590086625000
-23.74,1711590086640625
-35.86,1711590086656250
-47.47,1711590086671875
-58.26,1711590086687500
-68.14,1711590086703125
-77.52,1711590086718750
-87.24,1711590086734375
-98.45,1711590086750000
-112.26,1711590086765625
-129.19,1711590086781250
-148.56,1711590086796875
-168.17,1711590086812500
-184.49,1711590086828125
-193.32,1711590086843750
-191.06,1711590086859375
-175.88,1711590086875000
-148.57,1711590086890625
-112.43,1711590086906250
-72.35,1711590086921875
-33.25,1711590086937500
1.29,1711590086953125
29.74,1711590086968750
52.48,1711590086984375
70.86,1711590087000000
86.21,1711590087015625
99.11,1711590087031250
109.41,1711590087046875
116.64,1711590087062500
120.62,1711590087078125
121.72,1711590087093750
120.83,1711590087109375
118.97,1711590087125000
116.86,1711590087140625
114.69,1711590087156250
112.2,1711590087171875
109.04,1711590087187500
105.06,1711590087203125
100.5,1711590087218750
95.85,1711590087234375
91.59,1711590087250000
87.87,1711590087265625
84.32,1711590087281250
80.16,1711590087296875
74.5,1711590087312500
66.72,1711590087328125
56.76,1711590087343750
45.19,1711590087359375
33.03,1711590087375000
21.39,1711590087390625
11.11,1711590087406250
2.4,1711590087421875
-5.23,1711590087437500
-12.82,1711590087453125
-21.56,1711590087468750
-32.27,1711590087484375
-44.96,1711590087500000
-58.84,1711590087515625
-72.56,1711590087531250
-84.81,1711590087546875
-94.89,1711590087562500
-102.95,1711590087578125
-109.89,1711590087593750
-117.03,1711590087609375
-125.77,1711590087625000
-137.2,1711590087640625
-151.87,1711590087656250
-169.3,1711590087671875
-187.52,1711590087687500
-202.98,1711590087703125
-211.13,1711590087718750
-207.69,1711590087734375
-190.31,1711590087750000
-159.75,1711590087765625
-119.84,1711590087781250
-76.26,1711590087796875
-34.53,1711590087812500
1.56,1711590087828125
30.72,1711590087843750
53.64,1711590087859375
71.84,1711590087875000
86.67,1711590087890625
98.71,1711590087906250
108.08,1711590087921875
114.76,1711590087937500
119.02,1711590087953125
121.45,1711590087968750
122.7,1711590087984375
123.21,1711590088000000
123.15,1711590088015625
122.37,1711590088031250
120.67,1711590088046875
118.05,1711590088062500
114.74,1711590088078125
111.24,1711590088093750
108.04,1711590088109375
105.37,1711590088125000
103.08,1711590088140625
100.58,1711590088156250
97.12,1711590088171875
92.1,1711590088187500
85.34,1711590088203125
77.15,1711590088218750
68.17,1711590088234375
59.11,1711590088250000
50.38,1711590088265625
41.97,1711590088281250
33.58,1711590088296875
24.82,1711590088312500
15.52,1711590088328125
5.84,1711590088343750
-3.76,1711590088359375
-12.79,1711590088375000
-21.0,1711590088390625
-28.56,1711590088406250
-36.04,1711590088421875
-44.14,1711590088437500
-53.41,1711590088453125
-63.97,1711590088468750
-75.5,1711590088484375
-87.42,1711590088500000
-99.16,1711590088515625
-110.41,1711590088531250
-121.18,1711590088546875
-131.78,1711590088562500
-142.77,1711590088578125
-154.86,1711590088593750
-168.71,1711590088609375
-184.55,1711590088625000
-201.64,1711590088640625
-217.92,1711590088656250
-229.98,1711590088671875
-233.8,1711590088687500
-225.99,1711590088703125
-204.92,1711590088718750
-171.42,1711590088734375
-128.56,1711590088750000
-80.57,1711590088765625
-31.71,1711590088781250
14.57,1711590088796875
55.87,1711590088812500
90.58,1711590088828125
117.52,1711590088843750
135.97,1711590088859375
145.9,1711590088875000
148.27,1711590088890625
145.05,1711590088906250
138.78,1711590088921875
131.86,1711590088937500
125.87,1711590088953125
121.2,1711590088968750
117.2,1711590088984375
112.76,1711590089000000
106.99,1711590089015625
99.74,1711590089031250
91.67,1711590089046875
83.98,1711590089062500
77.78,1711590089078125
73.58,1711590089093750
71.1,1711590089109375
69.38,1711590089125000
67.36,1711590089140625
64.25,1711590089156250
59.89,1711590089171875
54.71,1711590089187500
49.52,1711590089203125
45.09,1711590089218750
41.89,1711590089234375
39.93,1711590089250000
38.71,1711590089265625
37.49,1711590089281250
35.54,1711590089296875
32.53,1711590089312500
28.65,1711590089328125
24.57,1711590089343750
21.29,1711590089359375
19.62,1711590089375000
19.99,1711590089390625
22.22,1711590089406250
25.58,1711590089421875
28.92,1711590089437500
30.98,1711590089453125
30.6,1711590089468750
27.1,1711590089484375
20.42,1711590089500000
11.31,1711590089515625
1.15,1711590089531250
-8.34,1711590089546875
-15.64,1711590089562500
-19.96,1711590089578125
-21.46,1711590089593750
-21.09,1711590089609375
-20.2,1711590089625000
-19.87,1711590089640625
-20.48,1711590089656250
-21.59,1711590089671875
-22.34,1711590089687500
-21.95,1711590089703125
-20.34,1711590089718750
-18.21,1711590089734375
-16.73,1711590089750000
-16.85,1711590089765625
-18.76,1711590089781250
-21.77,1711590089796875
-24.58,1711590089812500
-26.05,1711590089828125
-25.62,1711590089843750
-23.6,1711590089859375
-20.85,1711590089875000
-18.32,1711590089890625
-16.66,1711590089906250
-15.97,1711590089921875
-16.0,1711590089937500
-16.24,1711590089953125
-16.32,1711590089968750
-15.98,1711590089984375
-15.23,1711590090000000
-14.29,1711590090015625
-13.54,1711590090031250
-13.47,1711590090046875
-14.46,1711590090062500
-16.66,1711590090078125
-19.93,1711590090093750
-23.91,1711590090109375
-28.21,1711590090125000
-32.59,1711590090140625
-37.02,1711590090156250
-41.73,1711590090171875
-46.98,1711590090187500
-53.01,1711590090203125
-59.85,1711590090218750
-67.33,1711590090234375
-75.01,1711590090250000
-82.15,1711590090265625
-87.81,1711590090281250
-90.91,1711590090296875
-90.55,1711590090312500
-86.2,1711590090328125
-77.94,1711590090343750
-66.36,1711590090359375
-52.5,1711590090375000
-37.55,1711590090390625
-22.64,1711590090406250
-8.79,1711590090421875
3.24,1711590090437500
12.87,1711590090453125
19.73,1711590090468750
23.77,1711590090484375
25.34,1711590090500000
25.27,1711590090515625
24.72,1711590090531250
24.98,1711590090546875
27.18,1711590090562500
32.06,1711590090578125
39.82,1711590090593750
50.06,1711590090609375
61.79,1711590090625000
73.38,1711590090640625
82.81,1711590090656250
87.93,1711590090671875
86.94,1711590090687500
78.83,1711590090703125
63.62,1711590090718750
42.3,1711590090734375
16.53,1711590090750000
-11.73,1711590090765625
-40.39,1711590090781250
-67.34,1711590090796875
-90.51,1711590090812500
-108.14,1711590090828125
-119.33,1711590090843750
-124.44,1711590090859375
-125.28,1711590090875000
-124.48,1711590090890625
-124.54,1711590090906250
-126.67,1711590090921875
-130.23,1711590090937500
-132.94,1711590090953125
-131.84,1711590090968750
-124.57,1711590090984375
-110.32,1711590091000000
-90.02,1711590091015625
-65.88,1711590091031250
-40.54,1711590091046875
-16.23,1711590091062500
5.63,1711590091078125
24.41,1711590091093750
40.0,1711590091109375
52.43,1711590091125000
61.72,1711590091140625
67.85,1711590091156250
71.0,1711590091171875
71.65,1711590091187500
70.52,1711590091203125
68.38,1711590091218750
65.74,1711590091234375
62.65,1711590091250000
58.64,1711590091265625
53.07,1711590091281250
45.49,1711590091296875
36.03,1711590091312500
25.48,1711590091328125
15.03,1711590091343750
5.74,1711590091359375
-1.94,1711590091375000
-8.44,1711590091390625
-14.89,1711590091406250
-22.61,1711590091421875
-32.51,1711590091437500
-44.65,1711590091453125
-58.3,1711590091468750
-72.26,1711590091484375
-85.52,1711590091500000
-97.62,1711590091515625
-108.83,1711590091531250
-120.02,1711590091546875
-132.42,1711590091562500
-147.15,1711590091578125
-165.01,1711590091593750
-185.99,1711590091609375
-208.9,1711590091625000
-231.13,1711590091640625
-248.78,1711590091656250
-257.59,1711590091671875
-254.18,1711590091687500
-237.34,1711590091703125
-208.49,1711590091718750
-171.17,1711590091734375
-129.81,1711590091750000
-88.29,1711590091765625
-49.09,1711590091781250
-13.13,1711590091796875
19.72,1711590091812500
49.89,1711590091828125
77.66,1711590091843750
103.05,1711590091859375
125.88,1711590091875000
145.96,1711590091890625
163.03,1711590091906250
176.79,1711590091921875
186.81,1711590091937500
192.73,1711590091953125
194.38,1711590091968750
192.02,1711590091984375
186.32,1711590092000000
178.27,1711590092015625
168.96,1711590092031250
159.24,1711590092046875
149.36,1711590092062500
138.95,1711590092078125
127.21,1711590092093750
113.53,1711590092109375
98.03,1711590092125000
81.81,1711590092140625
66.61,1711590092156250
54.03,1711590092171875
44.64,1711590092187500
37.56,1711590092203125
30.72,1711590092218750
21.64,1711590092234375
8.4,1711590092250000
-9.61,1711590092265625
-31.45,1711590092281250
-54.87,1711590092296875
-76.7,1711590092312500
-93.58,1711590092328125
-102.7,1711590092343750
-102.71,1711590092359375
-94.36,1711590092375000
-80.7,1711590092390625
-66.4,1711590092406250
-56.12,1711590092421875
-52.59,1711590092437500
-55.32,1711590092453125
-60.79,1711590092468750
-64.0,1711590092484375
-60.87,1711590092500000
-50.08,1711590092515625
-33.5,1711590092531250
-15.05,1711590092546875
1.29,1711590092562500
13.2,1711590092578125
20.74,1711590092593750
25.88,1711590092609375
31.23,1711590092625000
38.95,1711590092640625
50.06,1711590092656250
64.46,1711590092671875
81.23,1711590092687500
98.95,1711590092703125
115.9,1711590092718750
130.14,1711590092734375
139.62,1711590092750000
142.38,1711590092765625
137.03,1711590092781250
123.31,1711590092796875
102.57,1711590092812500
77.9,1711590092828125
53.56,1711590092843750
33.86,1711590092859375
21.67,1711590092875000
17.41,1711590092890625
18.87,1711590092906250
22.14,1711590092921875
23.22,1711590092937500
19.62,1711590092953125
11.05,1711590092968750
-0.76,1711590092984375
-13.15,1711590093000000
-23.84,1711590093015625
-31.63,1711590093031250
-36.56,1711590093046875
-39.42,1711590093062500
-41.03,1711590093078125
-41.63,1711590093093750
-40.89,1711590093109375
-38.08,1711590093125000
-32.68,1711590093140625
-24.77,1711590093156250
-15.06,1711590093171875
-4.73,1711590093187500
5.01,1711590093203125
13.23,1711590093218750
19.46,1711590093234375
23.54,1711590093250000
25.53,1711590093265625
25.58,1711590093281250
23.9,1711590093296875
20.88,1711590093312500
17.04,1711590093328125
13.0,1711590093343750
9.32,1711590093359375
6.35,1711590093375000
4.13,1711590093390625
2.4,1711590093406250
0.81,1711590093421875
-0.96,1711590093437500
-2.95,1711590093453125
-5.01,1711590093468750
-6.78,1711590093484375
-7.93,1711590093500000
-8.35,1711590093515625
-8.26,1711590093531250
-8.09,1711590093546875
-8.46,1711590093562500
-9.88,1711590093578125
-12.76,1711590093593750
-17.3,1711590093609375
-23.5,1711590093625000
-31.08,1711590093640625
-39.41,1711590093656250
-47.47,1711590093671875
-53.81,1711590093687500
-56.94,1711590093703125
-55.72,1711590093718750
-49.74,1711590093734375
-39.53,1711590093750000
-26.41,1711590093765625
-12.01,1711590093781250
2.17,1711590093796875
15.17,1711590093812500
26.61,1711590093828125
36.51,1711590093843750
44.96,1711590093859375
51.9,1711590093875000
57.02,1711590093890625
59.92,1711590093906250
60.41,1711590093921875
58.66,1711590093937500
55.17,1711590093953125
50.68,1711590093968750
45.88,1711590093984375
41.29,1711590094000000
37.22,1711590094015625
33.72,1711590094031250
30.7,1711590094046875
27.92,1711590094062500
25.07,1711590094078125
21.8,1711590094093750
17.79,1711590094109375
12.85,1711590094125000
6.94,1711590094140625
0.11,1711590094156250
-7.52,1711590094171875
-15.87,1711590094187500
-24.89,1711590094203125
-34.65,1711590094218750
-45.29,1711590094234375
-56.95,1711590094250000
-69.67,1711590094265625
-83.07,1711590094281250
-96.16,1711590094296875
-107.22,1711590094312500
-114.08,1711590094328125
-114.73,1711590094343750
-108.02,1711590094359375
-94.23,1711590094375000
-75.04,1711590094390625
-53.08,1711590094406250
-31.03,1711590094421875
-10.8,1711590094437500
6.81,1711590094453125
21.98,1711590094468750
35.34,1711590094484375
47.35,1711590094500000
57.92,1711590094515625
66.53,1711590094531250
72.54,1711590094546875
75.61,1711590094562500
75.93,1711590094578125
74.17,1711590094593750
71.2,1711590094609375
67.79,1711590094625000
64.38,1711590094640625
61.04,1711590094656250
57.61,1711590094671875
53.84,1711590094687500
49.47,1711590094703125
44.33,1711590094718750
38.37,1711590094734375
31.6,1711590094750000
24.18,1711590094765625
16.32,1711590094781250
8.21,1711590094796875
-0.06,1711590094812500
-8.61,1711590094828125
-17.81,1711590094843750
-28.2,1711590094859375
-40.29,1711590094875000
-54.28,1711590094890625
-69.72,1711590094906250
-85.18,1711590094921875
-98.42,1711590094937500
-106.64,1711590094953125
-107.31,1711590094968750
-98.97,1711590094984375
-81.83,1711590095000000
-57.8,1711590095015625
-29.91,1711590095031250
-1.51,1711590095046875
24.81,1711590095062500
47.58,1711590095078125
66.46,1711590095093750
81.79,1711590095109375
93.99,1711590095125000
103.22,1711590095140625
109.38,1711590095156250
112.28,1711590095171875
111.97,1711590095187500
108.83,1711590095203125
103.48,1711590095218750
96.6,1711590095234375
88.74,1711590095250000
80.22,1711590095265625
71.15,1711590095281250
61.53,1711590095296875
51.29,1711590095312500
40.42,1711590095328125
28.92,1711590095343750
16.86,1711590095359375
4.43,1711590095375000
-8.13,1711590095390625
-20.46,1711590095406250
-32.24,1711590095421875
-43.28,1711590095437500
-53.63,1711590095453125
-63.6,1711590095468750
-73.78,1711590095484375
-84.93,1711590095500000
-97.76,1711590095515625
-112.64,1711590095531250
-129.1,1711590095546875
-145.57,1711590095562500
-159.3,1711590095578125
-166.86,1711590095593750
-165.1,1711590095609375
-152.25,1711590095625000
-128.71,1711590095640625
-97.11,1711590095656250
-61.5,1711590095671875
-26.13,1711590095687500
5.74,1711590095703125
32.42,1711590095718750
53.66,1711590095734375
70.02,1711590095750000
82.19,1711590095765625
90.62,1711590095781250
95.64,1711590095796875
97.7,1711590095812500
97.58,1711590095828125
96.22,1711590095843750
94.43,1711590095859375
92.52,1711590095875000
90.23,1711590095890625
86.95,1711590095906250
82.2,1711590095921875
75.99,1711590095937500
68.91,1711590095953125
61.95,1711590095968750
55.98,1711590095984375
51.34,1711590096000000
47.48,1711590096015625
43.23,1711590096031250
37.2,1711590096046875
28.38,1711590096062500
16.64,1711590096078125
2.83,1711590096093750
-11.6,1711590096109375
-25.14,1711590096125000
-36.86,1711590096140625
-46.78,1711590096156250
-55.83,1711590096171875
-65.53,1711590096187500
-77.43,1711590096203125
-92.54,1711590096218750
-110.77,1711590096234375
-130.66,1711590096250000
-149.41,1711590096265625
-163.3,1711590096281250
-168.62,1711590096296875
-162.77,1711590096312500
-145.19,1711590096328125
-117.68,1711590096343750
-83.9,1711590096359375
-48.24,1711590096375000
-14.47,1711590096390625
15.13,1711590096406250
39.9,1711590096421875
60.28,1711590096437500
76.96,1711590096453125
90.31,1711590096468750
100.22,1711590096484375
106.46,1711590096500000
109.08,1711590096515625
108.66,1711590096531250
106.21,1711590096546875
102.8,1711590096562500
99.24,1711590096578125
95.89,1711590096593750
92.72,1711590096609375
89.56,1711590096625000
86.21,1711590096640625
82.61,1711590096656250
78.79,1711590096671875
74.86,1711590096687500
70.94,1711590096703125
67.0,1711590096718750
62.95,1711590096734375
58.44,1711590096750000
52.99,1711590096765625
46.06,1711590096781250
37.25,1711590096796875
26.48,1711590096812500
14.1,1711590096828125
0.76,1711590096843750
-12.72,1711590096859375
-25.64,1711590096875000
-37.67,1711590096890625
-48.85,1711590096906250
-59.55,1711590096921875
-70.37,1711590096937500
-82.03,1711590096953125
-95.26,1711590096968750
-110.54,1711590096984375
-127.79,1711590097000000
-145.93,1711590097015625
-162.67,1711590097031250
-174.7,1711590097046875
-178.45,1711590097062500
-171.24,1711590097078125
-152.31,1711590097093750
-123.25,1711590097109375
-87.62,1711590097125000
-49.83,1711590097140625
-13.88,1711590097156250
17.63,1711590097171875
43.73,1711590097187500
64.58,1711590097203125
80.84,1711590097218750
93.03,1711590097234375
101.48,1711590097250000
106.47,1711590097265625
108.59,1711590097281250
108.83,1711590097296875
108.36,1711590097312500
108.07,1711590097328125
108.24,1711590097343750
108.41,1711590097359375
107.74,1711590097375000
105.47,1711590097390625
101.41,1711590097406250
96.13,1711590097421875
90.67,1711590097437500
86.0,1711590097453125
82.56,1711590097468750
79.97,1711590097484375
77.22,1711590097500000
73.11,1711590097515625
66.83,1711590097531250
58.31,1711590097546875
48.24,1711590097562500
37.77,1711590097578125
28.03,1711590097593750
19.62,1711590097609375
12.41,1711590097625000
5.58,1711590097640625
-1.99,1711590097656250
-11.2,1711590097671875
-22.31,1711590097687500
-34.84,1711590097703125
-47.72,1711590097718750
-59.82,1711590097734375
-70.35,1711590097750000
-79.2,1711590097765625
-86.91,1711590097781250
-94.5,1711590097796875
-103.09,1711590097812500
-113.64,1711590097828125
-126.73,1711590097843750
-142.12,1711590097859375
-158.56,1711590097875000
-173.59,1711590097890625
-183.78,1711590097906250
-185.59,1711590097921875
-176.38,1711590097937500
-155.51,1711590097953125
-124.8,1711590097968750
-88.02,1711590097984375
-49.79,1711590098000000
-14.13,1711590098015625
16.42,1711590098031250
41.06,1711590098046875
60.17,1711590098062500
74.57,1711590098078125
84.85,1711590098093750
91.35,1711590098109375
94.4,1711590098125000
94.68,1711590098140625
93.39,1711590098156250
91.94,1711590098171875
91.54,1711590098187500
92.73,1711590098203125
95.26,1711590098218750
98.28,1711590098234375
100.72,1711590098250000
101.73,1711590098265625
100.99,1711590098281250
98.73,1711590098296875
95.58,1711590098312500
92.16,1711590098328125
88.8,1711590098343750
85.33,1711590098359375
81.16,1711590098375000
75.54,1711590098390625
67.99,1711590098406250
58.58,1711590098421875
48.04,1711590098437500
37.49,1711590098453125
27.92,1711590098468750
19.8,1711590098484375
12.75,1711590098500000
5.77,1711590098515625
-2.31,1711590098531250
-12.2,1711590098546875
-23.8,1711590098562500
-36.2,1711590098578125
-48.15,1711590098593750
-58.67,1711590098609375
-67.5,1711590098625000
-75.21,1711590098640625
-82.92,1711590098656250
-91.86,1711590098671875
-102.97,1711590098687500
-116.65,1711590098703125
-132.52,1711590098718750
-149.35,1711590098734375
-164.81,1711590098750000
-175.69,1711590098765625
-178.54,1711590098781250
-170.67,1711590098796875
-151.24,1711590098812500
-121.85,1711590098828125
-86.21,1711590098843750
-48.98,1711590098859375
-14.41,1711590098875000
14.78,1711590098890625
37.66,1711590098906250
54.6,1711590098921875
66.51,1711590098937500
74.26,1711590098953125
78.46,1711590098968750
79.66,1711590098984375
78.56,1711590099000000
76.05,1711590099015625
72.99,1711590099031250
69.95,1711590099046875
67.08,1711590099062500
64.18,1711590099078125
60.96,1711590099093750
57.23,1711590099109375
53.13,1711590099125000
48.95,1711590099140625
45.0,1711590099156250
41.39,1711590099171875
37.9,1711590099187500
34.0,1711590099203125
29.12,1711590099218750
22.84,1711590099234375
15.13,1711590099250000
6.29,1711590099265625
-3.16,1711590099281250
-12.75,1711590099296875
-22.26,1711590099312500
-31.78,1711590099328125
-41.57,1711590099343750
-51.88,1711590099359375
-62.7,1711590099375000
-73.69,1711590099390625
-84.25,1711590099406250
-93.65,1711590099421875
-101.33,1711590099437500
-107.05,1711590099453125
-111.06,1711590099468750
-114.18,1711590099484375
-117.57,1711590099500000
-122.33,1711590099515625
-128.84,1711590099531250
-136.08,1711590099546875
-141.44,1711590099562500
-141.28,1711590099578125
-132.07,1711590099593750
-111.93,1711590099609375
-81.54,1711590099625000
-44.13,1711590099640625
-4.46,1711590099656250
32.77,1711590099671875
64.3,1711590099687500
88.78,1711590099703125
106.52,1711590099718750
118.64,1711590099734375
126.26,1711590099750000
130.14,1711590099765625
130.73,1711590099781250
128.47,1711590099796875
123.98,1711590099812500
118.09,1711590099828125
111.67,1711590099843750
105.43,1711590099859375
99.83,1711590099875000
95.02,1711590099890625
90.91,1711590099906250
87.28,1711590099921875
83.82,1711590099937500
80.28,1711590099953125
76.45,1711590099968750
72.26,1711590099984375
67.67,1711590100000000
62.69,1711590100015625
57.26,1711590100031250
51.25,1711590100046875
44.44,1711590100062500
36.56,1711590100078125
27.41,1711590100093750
16.99,1711590100109375
5.59,1711590100125000
-6.25,1711590100140625
-17.93,1711590100156250
-28.98,1711590100171875
-39.19,1711590100187500
-48.7,1711590100203125
-57.92,1711590100218750
-67.47,1711590100234375
-78.11,1711590100250000
-90.62,1711590100265625
-105.57,1711590100281250
-122.76,1711590100296875
-140.74,1711590100312500
-156.54,1711590100328125
-166.09,1711590100343750
-165.35,1711590100359375
-151.82,1711590100375000
-125.66,1711590100390625
-89.94,1711590100406250
-49.71,1711590100421875
-10.42,1711590100437500
23.68,1711590100453125
50.36,1711590100468750
69.37,1711590100484375
81.6,1711590100500000
88.28,1711590100515625
90.35,1711590100531250
88.56,1711590100546875
83.71,1711590100562500
76.89,1711590100578125
69.49,1711590100593750
62.79,1711590100609375
57.58,1711590100625000
53.94,1711590100640625
51.27,1711590100656250
48.66,1711590100671875
45.42,1711590100687500
41.41,1711590100703125
37.06,1711590100718750
33.1,1711590100734375
30.08,1711590100750000
27.88,1711590100765625
25.7,1711590100781250
22.25,1711590100796875
16.42,1711590100812500
7.81,1711590100828125
-3.09,1711590100843750
-15.04,1711590100859375
-26.62,1711590100875000
-36.83,1711590100890625
-45.48,1711590100906250
-53.19,1711590100921875
-61.17,1711590100937500
-70.76,1711590100953125
-83.09,1711590100968750
-98.67,1711590100984375
-116.95,1711590101000000
-136.04,1711590101015625
-152.64,1711590101031250
-162.66,1711590101046875
-162.2,1711590101062500
-148.97,1711590101078125
-123.21,1711590101093750
-87.86,1711590101109375
-47.74,1711590101125000
-8.03,1711590101140625
27.11,1711590101156250
55.27,1711590101171875
75.81,1711590101187500
89.13,1711590101203125
96.09,1711590101218750
97.62,1711590101234375
94.75,1711590101250000
88.81,1711590101265625
81.38,1711590101281250
74.06,1711590101296875
67.99,1711590101312500
63.48,1711590101328125
60.04,1711590101343750
56.68,1711590101359375
52.48,1711590101375000
47.15,1711590101390625
41.1,1711590101406250
35.37,1711590101421875
30.89,1711590101437500
28.01,1711590101453125
26.04,1711590101468750
23.52,1711590101484375
18.79,1711590101500000
10.74,1711590101515625
-0.6,1711590101531250
-14.11,1711590101546875
-28.01,1711590101562500
-40.71,1711590101578125
-51.38,1711590101593750
-60.33,1711590101609375
-68.8,1711590101625000
-78.62,1711590101640625
-91.52,1711590101656250
-108.49,1711590101671875
-129.08,1711590101687500
-150.99,1711590101703125
-170.11,1711590101718750
-181.4,1711590101734375
-180.33,1711590101750000
-164.46,1711590101765625
-134.56,1711590101781250
-94.43,1711590101796875
-49.77,1711590101812500
-6.36,1711590101828125
31.51,1711590101843750
61.7,1711590101859375
84.0,1711590101875000
99.23,1711590101890625
108.34,1711590101906250
112.15,1711590101921875
111.41,1711590101937500
107.17,1711590101953125
100.87,1711590101968750
94.16,1711590101984375
88.34,1711590102000000
83.99,1711590102015625
80.75,1711590102031250
77.71,1711590102046875
73.81,1711590102062500
68.54,1711590102078125
62.13,1711590102093750
55.46,1711590102109375
49.63,1711590102125000
45.3,1711590102140625
42.29,1711590102156250
39.46,1711590102171875
35.19,1711590102187500
27.93,1711590102203125
16.99,1711590102218750
2.85,1711590102234375
-12.97,1711590102250000
-28.6,1711590102265625
-42.57,1711590102281250
-54.43,1711590102296875
-64.83,1711590102312500
-75.34,1711590102328125
-87.8,1711590102343750
-103.76,1711590102359375
-123.83,1711590102375000
-147.1,1711590102390625
-170.79,1711590102406250
-190.45,1711590102421875
-200.85,1711590102437500
-197.52,1711590102453125
-178.43,1711590102468750
-144.95,1711590102484375
-101.56,1711590102500000
-54.49,1711590102515625
-9.63,1711590102531250
29.06,1711590102546875
60.09,1711590102562500
83.86,1711590102578125
101.48,1711590102593750
113.78,1711590102609375
121.1,1711590102625000
123.65,1711590102640625
122.1,1711590102656250
117.87,1711590102671875
112.79,1711590102687500
108.45,1711590102703125
105.53,1711590102718750
103.58,1711590102734375
101.35,1711590102750000
97.56,1711590102765625
91.66,1711590102781250
84.14,1711590102796875
76.34,1711590102812500
69.72,1711590102828125
65.06,1711590102843750
61.9,1711590102859375
58.72,1711590102875000
53.52,1711590102890625
44.78,1711590102906250
32.07,1711590102921875
16.3,1711590102937500
-0.7,1711590102953125
-16.97,1711590102968750
-31.17,1711590102984375
-43.1,1711590103000000
-53.73,1711590103015625
-64.81,1711590103031250
-78.31,1711590103046875
-95.77,1711590103062500
-117.64,1711590103078125
-142.68,1711590103093750
-167.73,1711590103109375
-187.96,1711590103125000
-197.98,1711590103140625
-193.45,1711590103156250
-172.67,1711590103171875
-137.47,1711590103187500
-92.76,1711590103203125
-45.0,1711590103218750
-0.13,1711590103234375
38.02,1711590103250000
68.1,1711590103265625
90.71,1711590103281250
107.11,1711590103296875
118.32,1711590103312500
124.81,1711590103328125
126.92,1711590103343750
125.36,1711590103359375
121.49,1711590103375000
117.01,1711590103390625
113.26,1711590103406250
110.73,1711590103421875
108.9,1711590103437500
106.66,1711590103453125
102.94,1711590103468750
97.38,1711590103484375
90.46,1711590103500000
83.28,1711590103515625
76.97,1711590103531250
72.11,1711590103546875
68.34,1711590103562500
64.51,1711590103578125
59.09,1711590103593750
50.73,1711590103609375
38.91,1711590103625000
24.06,1711590103640625
7.55,1711590103656250
-8.86,1711590103671875
-23.63,1711590103687500
-36.06,1711590103703125
-46.61,1711590103718750
-56.66,1711590103734375
-68.15,1711590103750000
-82.9,1711590103765625
-101.93,1711590103781250
-124.84,1711590103796875
-149.41,1711590103812500
-171.67,1711590103828125
-186.58,1711590103843750
-189.34,1711590103859375
-176.95,1711590103875000
-149.46,1711590103890625
-110.22,1711590103906250
-64.96,1711590103921875
-20.03,1711590103937500
19.51,1711590103953125
51.02,1711590103968750
74.32,1711590103984375
90.68,1711590104000000
101.73,1711590104015625
108.55,1711590104031250
111.64,1711590104046875
111.35,1711590104062500
108.36,1711590104078125
103.88,1711590104093750
99.29,1711590104109375
95.67,1711590104125000
93.24,1711590104140625
91.44,1711590104156250
89.16,1711590104171875
85.46,1711590104187500
80.1,1711590104203125
73.63,1711590104218750
67.19,1711590104234375
61.82,1711590104250000
57.85,1711590104265625
54.6,1711590104281250
50.64,1711590104296875
44.31,1711590104312500
34.57,1711590104328125
21.52,1711590104343750
6.37,1711590104359375
-9.06,1711590104375000
-23.08,1711590104390625
-34.84,1711590104406250
-44.57,1711590104421875
-53.4,1711590104437500
-62.96,1711590104453125
-74.82,1711590104468750
-90.11,1711590104484375
-109.07,1711590104500000
-130.63,1711590104515625
-152.09,1711590104531250
-169.38,1711590104546875
-177.83,1711590104562500
-173.7,1711590104578125
-155.5,1711590104593750
-124.79,1711590104609375
-85.79,1711590104625000
-44.03,1711590104640625
-4.64,1711590104656250
28.98,1711590104671875
55.48,1711590104687500
75.15,1711590104703125
88.95,1711590104718750
97.84,1711590104734375
102.49,1711590104750000
103.49,1711590104765625
101.61,1711590104781250
97.97,1711590104796875
93.79,1711590104812500
90.08,1711590104828125
87.23,1711590104843750
84.93,1711590104859375
82.41,1711590104875000
78.92,1711590104890625
74.18,1711590104906250
68.58,1711590104921875
63.03,1711590104937500
58.4,1711590104953125
54.96,1711590104968750
52.05,1711590104984375
48.27,1711590105000000
42.09,1711590105015625
32.52,1711590105031250
19.66,1711590105046875
4.64,1711590105062500
-10.82,1711590105078125
-25.13,1711590105093750
-37.48,1711590105109375
-48.04,1711590105125000
-57.88,1711590105140625
-68.55,1711590105156250
-81.61,1711590105171875
-98.12,1711590105187500
-118.07,1711590105203125
-139.96,1711590105218750
-160.58,1711590105234375
-175.54,1711590105250000
-180.31,1711590105265625
-171.76,1711590105281250
-149.4,1711590105296875
-115.77,1711590105312500
-75.71,1711590105328125
-34.77,1711590105343750
2.46,1711590105359375
33.44,1711590105375000
57.69,1711590105390625
76.11,1711590105406250
89.86,1711590105421875
99.75,1711590105437500
106.06,1711590105453125
108.89,1711590105468750
108.59,1711590105484375
105.95,1711590105500000
102.14,1711590105515625
98.33,1711590105531250
95.29,1711590105546875
93.15,1711590105562500
91.41,1711590105578125
89.25,1711590105593750
85.97,1711590105609375
81.29,1711590105625000
75.52,1711590105640625
69.38,1711590105656250
63.56,1711590105671875
58.36,1711590105687500
53.43,1711590105703125
47.87,1711590105718750
40.57,1711590105734375
30.73,1711590105750000
18.23,1711590105765625
3.79,1711590105781250
-11.25,1711590105796875
-25.45,1711590105812500
-37.8,1711590105828125
-48.09,1711590105843750
-56.95,1711590105859375
-65.56,1711590105875000
-75.22,1711590105890625
-87.09,1711590105906250
-101.91,1711590105921875
-119.77,1711590105937500
-139.83,1711590105953125
-159.95,1711590105968750
-176.67,1711590105984375
-185.74,1711590106000000
-183.32,1711590106015625
-167.38,1711590106031250
-138.66,1711590106046875
-100.72,1711590106062500
-58.75,1711590106078125
-18.02,1711590106093750
17.67,1711590106109375
46.62,1711590106125000
68.89,1711590106140625
85.47,1711590106156250
97.41,1711590106171875
105.4,1711590106187500
109.91,1711590106203125
111.49,1711590106218750
110.95,1711590106234375
109.3,1711590106250000
107.41,1711590106265625
105.71,1711590106281250
104.16,1711590106296875
102.34,1711590106312500
99.81,1711590106328125
96.4,1711590106343750
92.33,1711590106359375
88.08,1711590106375000
84.18,1711590106390625
80.83,1711590106406250
77.74,1711590106421875
74.16,1711590106437500
69.15,1711590106453125
62.01,1711590106468750
52.68,1711590106484375
41.76,1711590106500000
30.31,1711590106515625
19.32,1711590106531250
9.25,1711590106546875
-0.21,1711590106562500
-9.88,1711590106578125
-20.66,1711590106593750
-32.95,1711590106609375
-46.37,1711590106625000
-59.88,1711590106640625
-72.28,1711590106656250
-82.7,1711590106671875
-91.06,1711590106687500
-98.17,1711590106703125
-105.53,1711590106718750
-114.9,1711590106734375
-127.73,1711590106750000
-144.49,1711590106765625
-163.98,1711590106781250
-183.09,1711590106796875
-197.17,1711590106812500
-201.26,1711590106828125
-191.67,1711590106843750
-167.53,1711590106859375
-131.33,1711590106875000
-88.26,1711590106890625
-44.51,1711590106906250
-5.37,1711590106921875
26.12,1711590106937500
49.39,1711590106953125
65.65,1711590106968750
76.69,1711590106984375
83.97,1711590107000000
88.39,1711590107015625
90.41,1711590107031250
90.53,1711590107046875
89.47,1711590107062500
88.1,1711590107078125
87.12,1711590107093750
86.81,1711590107109375
86.92,1711590107125000
86.88,1711590107140625
86.18,1711590107156250
84.6,1711590107171875
82.35,1711590107187500
79.83,1711590107203125
77.34,1711590107218750
74.81,1711590107234375
71.77,1711590107250000
67.61,1711590107265625
61.9,1711590107281250
54.63,1711590107296875
46.17,1711590107312500
37.12,1711590107328125
27.9,1711590107343750
18.64,1711590107359375
9.14,1711590107375000
-0.93,1711590107390625
-11.75,1711590107406250
-23.22,1711590107421875
-34.95,1711590107437500
-46.38,1711590107453125
-57.06,1711590107468750
-66.84,1711590107484375
-75.95,1711590107500000
-85.0,1711590107515625
-94.94,1711590107531250
-106.81,1711590107546875
-121.35,1711590107562500
-138.43,1711590107578125
-156.55,1711590107593750
-172.63,1711590107609375
-182.47,1711590107625000
-181.92,1711590107640625
-168.38,1711590107656250
-141.98,1711590107671875
-105.78,1711590107687500
-64.96,1711590107703125
-25.1,1711590107718750
9.41,1711590107734375
36.42,1711590107750000
55.91,1711590107765625
69.16,1711590107781250
77.74,1711590107796875
82.76,1711590107812500
84.83,1711590107828125
84.39,1711590107843750
82.02,1711590107859375
78.67,1711590107875000
75.4,1711590107890625
73.1,1711590107906250
72.19,1711590107921875
72.59,1711590107937500
73.89,1711590107953125
75.55,1711590107968750
77.11,1711590107984375
78.14,1711590108000000
78.35,1711590108015625
77.41,1711590108031250
75.12,1711590108046875
71.4,1711590108062500
66.39,1711590108078125
60.39,1711590108093750
53.76,1711590108109375
46.75,1711590108125000
39.33,1711590108140625
31.29,1711590108156250
22.25,1711590108171875
12.01,1711590108187500
0.66,1711590108203125
-11.41,1711590108218750
-23.61,1711590108234375
-35.47,1711590108250000
-46.83,1711590108265625
-58.03,1711590108281250
-69.77,1711590108296875
-83.0,1711590108312500
-98.61,1711590108328125
-116.9,1711590108343750
-137.2,1711590108359375
-157.32,1711590108375000
-173.67,1711590108390625
-181.86,1711590108406250
-178.11,1711590108421875
-160.59,1711590108437500
-130.48,1711590108453125
-91.8,1711590108468750
-50.23,1711590108484375
-11.33,1711590108500000
21.1,1711590108515625
45.64,1711590108531250
62.9,1711590108546875
74.51,1711590108562500
82.07,1711590108578125
86.64,1711590108593750
88.69,1711590108609375
88.53,1711590108625000
86.68,1711590108640625
83.88,1711590108656250
81.01,1711590108671875
78.75,1711590108687500
77.37,1711590108703125
76.65,1711590108718750
76.0,1711590108734375
74.77,1711590108750000
72.55,1711590108765625
69.25,1711590108781250
65.18,1711590108796875
60.82,1711590108812500
56.55,1711590108828125
52.43,1711590108843750
48.15,1711590108859375
43.06,1711590108875000
36.43,1711590108890625
27.69,1711590108906250
16.73,1711590108921875
3.98,1711590108937500
-9.65,1711590108953125
-23.02,1711590108968750
-35.16,1711590108984375
-45.63,1711590109000000
-54.65,1711590109015625
-63.03,1711590109031250
-71.95,1711590109046875
-82.7,1711590109062500
-96.24,1711590109078125
-112.89,1711590109093750
-131.78,1711590109109375
-150.59,1711590109125000
-165.58,1711590109140625
-172.39,1711590109156250
-167.33,1711590109171875
-148.77,1711590109187500
-118.07,1711590109203125
-79.32,1711590109218750
-38.13,1711590109234375
0.19,1711590109250000
32.09,1711590109265625
56.41,1711590109281250
73.87,1711590109296875
86.04,1711590109312500
94.34,1711590109328125
99.47,1711590109343750
101.61,1711590109359375
100.87,1711590109375000
97.8,1711590109390625
93.36,1711590109406250
88.76,1711590109421875
85.0,1711590109437500
82.48,1711590109453125
80.96,1711590109468750
79.76,1711590109484375
78.09,1711590109500000
75.46,1711590109515625
71.77,1711590109531250
67.33,1711590109546875
62.61,1711590109562500
58.0,1711590109578125
53.59,1711590109593750
49.12,1711590109609375
44.04,1711590109625000
37.66,1711590109640625
29.4,1711590109656250
19.03,1711590109671875
6.83,1711590109687500
-6.46,1711590109703125
-19.82,1711590109718750
-32.36,1711590109734375
-43.54,1711590109750000
-53.42,1711590109765625
-62.53,1711590109781250
-71.74,1711590109796875
-82.01,1711590109812500
-94.26,1711590109828125
-109.14,1711590109843750
-126.68,1711590109859375
-145.67,1711590109875000
-163.35,1711590109890625
-175.57,1711590109906250
-177.92,1711590109921875
-167.19,1711590109937500
-142.93,1711590109953125
-107.82,1711590109968750
-66.94,1711590109984375
-26.04,1711590110000000
10.27,1711590110015625
39.57,1711590110031250
61.49,1711590110046875
76.91,1711590110062500
86.89,1711590110078125
92.15,1711590110093750
93.19,1711590110109375
90.72,1711590110125000
85.9,1711590110140625
80.34,1711590110156250
75.57,1711590110171875
72.56,1711590110187500
71.36,1711590110203125
71.19,1711590110218750
70.77,1711590110234375
68.93,1711590110250000
65.13,1711590110265625
59.75,1711590110281250
53.84,1711590110296875
48.65,1711590110312500
44.97,1711590110328125
42.66,1711590110343750
40.67,1711590110359375
37.42,1711590110375000
31.49,1711590110390625
22.3,1711590110406250
10.24,1711590110421875
-3.4,1711590110437500
-17.03,1711590110453125
-29.37,1711590110468750
-39.89,1711590110484375
-48.97,1711590110500000
-57.65,1711590110515625
-67.36,1711590110531250
-79.39,1711590110546875
-94.5,1711590110562500
-112.46,1711590110578125
-131.57,1711590110593750
-148.75,1711590110609375
-159.89,1711590110625000
-161.0,1711590110640625
-149.52,1711590110656250
-125.49,1711590110671875
-91.67,1711590110687500
-52.91,1711590110703125
-14.5,1711590110718750
19.34,1711590110734375
46.49,1711590110750000
66.81,1711590110765625
81.28,1711590110781250
90.91,1711590110796875
96.24,1711590110812500
97.43,1711590110828125
94.79,1711590110843750
89.27,1711590110859375
82.47,1711590110875000
76.17,1711590110890625
71.61,1711590110906250
69.04,1711590110921875
67.75,1711590110937500
66.45,1711590110953125
64.06,1711590110968750
60.1,1711590110984375
54.96,1711590111000000
49.5,1711590111015625
44.61,1711590111031250
40.67,1711590111046875
37.32,1711590111062500
33.58,1711590111078125
28.23,1711590111093750
20.35,1711590111109375
9.68,1711590111125000
-3.16,1711590111140625
-16.94,1711590111156250
-30.22,1711590111171875
-41.93,1711590111187500
-51.74,1711590111203125
-60.13,1711590111218750
-68.26,1711590111234375
-77.53,1711590111250000
-89.28,1711590111265625
-104.39,1711590111281250
-122.83,1711590111296875
-143.24,1711590111312500
-162.68,1711590111328125
-176.94,1711590111343750
-181.53,1711590111359375
-173.14,1711590111375000
-150.93,1711590111390625
-117.2,1711590111406250
-76.69,1711590111421875
-35.13,1711590111437500
2.62,1711590111453125
33.68,1711590111468750
57.43,1711590111484375
74.67,1711590111500000
86.64,1711590111515625
94.25,1711590111531250
97.96,1711590111546875
98.13,1711590111562500
95.49,1711590111578125
91.2,1711590111593750
86.65,1711590111609375
82.91,1711590111625000
80.4,1711590111640625
78.73,1711590111656250
76.99,1711590111671875
74.27,1711590111687500
70.07,1711590111703125
64.59,1711590111718750
58.55,1711590111734375
52.88,1711590111750000
48.22,1711590111765625
44.65,1711590111781250
41.47,1711590111796875
37.55,1711590111812500
31.66,1711590111828125
22.95,1711590111843750
11.35,1711590111859375
-2.4,1711590111875000
-16.97,1711590111890625
-30.93,1711590111906250
-43.31,1711590111921875
-53.95,1711590111937500
-63.48,1711590111953125
-73.11,1711590111968750
-84.24,1711590111984375
-98.03,1711590112000000
-115.03,1711590112015625
-134.8,1711590112031250
-155.46,1711590112046875
-173.65,1711590112062500
-185.02,1711590112078125
-185.3,1711590112093750
-171.88,1711590112109375
-144.92,1711590112125000
-107.6,1711590112140625
-65.22,1711590112156250
-23.52,1711590112171875
13.12,1711590112187500
42.58,1711590112203125
64.86,1711590112218750
81.19,1711590112234375
92.93,1711590112250000
100.89,1711590112265625
105.36,1711590112281250
106.43,1711590112296875
104.48,1711590112312500
100.4,1711590112328125
95.43,1711590112343750
90.82,1711590112359375
87.44,1711590112375000
85.45,1711590112390625
84.36,1711590112406250
83.25,1711590112421875
81.23,1711590112437500
77.77,1711590112453125
73.02,1711590112468750
67.53,1711590112484375
61.96,1711590112500000
56.72,1711590112515625
51.67,1711590112531250
46.23,1711590112546875
39.6,1711590112562500
31.11,1711590112578125
20.48,1711590112593750
7.99,1711590112609375
-5.63,1711590112625000
-19.43,1711590112640625
-32.5,1711590112656250
-44.38,1711590112671875
-55.11,1711590112687500
-65.34,1711590112703125
-76.05,1711590112718750
-88.37,1711590112734375
-103.18,1711590112750000
-120.86,1711590112765625
-140.77,1711590112781250
-160.94,1711590112796875
-177.95,1711590112812500
-187.49,1711590112828125
-185.53,1711590112843750
-169.82,1711590112859375
-141.0,1711590112875000
-102.62,1711590112890625
-60.19,1711590112906250
-19.27,1711590112921875
16.1,1711590112937500
44.26,1711590112953125
65.54,1711590112968750
81.2,1711590112984375
92.34,1711590113000000
99.4,1711590113015625
102.41,1711590113031250
101.6,1711590113046875
97.92,1711590113062500
92.97,1711590113078125
88.47,1711590113093750
85.53,1711590113109375
84.27,1711590113125000
83.82,1711590113140625
82.86,1711590113156250
80.38,1711590113171875
76.09,1711590113187500
70.58,1711590113203125
64.93,1711590113218750
60.06,1711590113234375
56.28,1711590113250000
53.01,1711590113265625
49.08,1711590113281250
43.15,1711590113296875
34.35,1711590113312500
22.6,1711590113328125
8.73,1711590113343750
-5.85,1711590113359375
-19.67,1711590113375000
-31.65,1711590113390625
-41.57,1711590113406250
-50.03,1711590113421875
-58.33,1711590113437500
-68.03,1711590113453125
-80.57,1711590113468750
-96.78,1711590113484375
-116.36,1711590113500000
-137.52,1711590113515625
-156.83,1711590113531250
-169.82,1711590113546875
-172.14,1711590113562500
-161.01,1711590113578125
-136.4,1711590113593750
-101.22,1711590113609375
-60.51,1711590113625000
-19.78,1711590113640625
16.51,1711590113656250
45.93,1711590113671875
68.05,1711590113687500
83.66,1711590113703125
93.85,1711590113718750
99.48,1711590113734375
101.12,1711590113750000
99.35,1711590113765625
95.11,1711590113781250
89.64,1711590113796875
84.19,1711590113812500
79.62,1711590113828125
76.1,1711590113843750
73.14,1711590113859375
70.0,1711590113875000
66.17,1711590113890625
61.72,1711590113906250
57.27,1711590113921875
53.59,1711590113937500
51.03,1711590113953125
49.14,1711590113968750
46.67,1711590113984375
42.09,1711590114000000
34.24,1711590114015625
22.94,1711590114031250
9.1,1711590114046875
-5.6,1711590114062500
-19.41,1711590114078125
-31.28,1711590114093750
-41.17,1711590114109375
-50.06,1711590114125000
-59.62,1711590114140625
-71.57,1711590114156250
-87.16,1711590114171875
-106.5,1711590114187500
-128.17,1711590114203125
-148.96,1711590114218750
-164.4,1711590114234375
-169.79,1711590114250000
-161.71,1711590114265625
-139.46,1711590114281250
-105.54,1711590114296875
-64.95,1711590114312500
-23.63,1711590114328125
13.46,1711590114343750
43.52,1711590114359375
66.1,1711590114375000
82.27,1711590114390625
93.45,1711590114406250
100.63,1711590114421875
104.2,1711590114437500
104.41,1711590114453125
101.85,1711590114468750
97.59,1711590114484375
92.93,1711590114500000
88.93,1711590114515625
85.88,1711590114531250
83.36,1711590114546875
80.47,1711590114562500
76.47,1711590114578125
71.18,1711590114593750
65.14,1711590114609375
59.3,1711590114625000
54.48,1711590114640625
50.88,1711590114656250
47.8,1711590114671875
43.92,1711590114687500
37.78,1711590114703125
28.49,1711590114718750
16.03,1711590114734375
1.41,1711590114750000
-13.83,1711590114765625
-28.14,1711590114781250
-40.54,1711590114796875
-50.98,1711590114812500
-60.27,1711590114828125
-69.91,1711590114843750
-81.56,1711590114859375
-96.62,1711590114875000
-115.48,1711590114890625
-137.01,1711590114906250
-158.28,1711590114921875
-174.82,1711590114937500
-181.71,1711590114953125
-175.14,1711590114968750
-153.89,1711590114984375
-120.02,1711590115000000
-78.39,1711590115015625
-35.09,1711590115031250
4.47,1711590115046875
36.98,1711590115062500
61.61,1711590115078125
79.34,1711590115093750
91.88,1711590115109375
100.57,1711590115125000
106.13,1711590115140625
108.78,1711590115156250
108.8,1711590115171875
106.74,1711590115187500
103.55,1711590115203125
100.19,1711590115218750
97.32,1711590115234375
95.1,1711590115250000
93.16,1711590115265625
90.92,1711590115281250
87.86,1711590115296875
83.77,1711590115312500
78.86,1711590115328125
73.59,1711590115343750
68.43,1711590115359375
63.64,1711590115375000
59.04,1711590115390625
54.07,1711590115406250
47.97,1711590115421875
39.97,1711590115437500
29.66,1711590115453125
17.13,1711590115468750
3.0,1711590115484375
-11.73,1711590115500000
-25.92,1711590115515625
-38.78,1711590115531250
-49.98,1711590115546875
-59.86,1711590115562500
-69.18,1711590115578125
-79.0,1711590115593750
-90.45,1711590115609375
-104.5,1711590115625000
-121.62,1711590115640625
-141.29,1711590115656250
-161.49,1711590115671875
-178.63,1711590115687500
-188.15,1711590115703125
-185.85,1711590115718750
-169.47,1711590115734375
-139.75,1711590115750000
-100.47,1711590115765625
-57.3,1711590115781250
-15.88,1711590115796875
19.7,1711590115812500
47.7,1711590115828125
68.42,1711590115843750
83.22,1711590115859375
93.58,1711590115875000
100.53,1711590115890625
104.71,1711590115906250
106.64,1711590115921875
107.01,1711590115937500
106.57,1711590115953125
105.98,1711590115968750
105.47,1711590115984375
104.83,1711590116000000
103.59,1711590116015625
101.28,1711590116031250
97.78,1711590116046875
93.43,1711590116062500
88.95,1711590116078125
85.04,1711590116093750
82.09,1711590116109375
79.84,1711590116125000
77.45,1711590116140625
73.78,1711590116156250
67.9,1711590116171875
59.58,1711590116187500
49.44,1711590116203125
38.71,1711590116218750
28.62,1711590116234375
19.85,1711590116250000
12.14,1711590116265625
4.46,1711590116281250
-4.43,1711590116296875
-15.3,1711590116312500
-28.03,1711590116328125
-41.65,1711590116343750
-54.81,1711590116359375
-66.37,1711590116375000
-75.91,1711590116390625
-83.82,1711590116406250
-91.19,1711590116421875
-99.43,1711590116437500
-110.01,1711590116453125
-123.89,1711590116468750
-141.09,1711590116484375
-160.07,1711590116500000
-177.55,1711590116515625
-188.97,1711590116531250
-189.71,1711590116546875
-176.73,1711590116562500
-149.93,1711590116578125
-112.53,1711590116593750
-70.11,1711590116609375
-28.83,1711590116625000
6.62,1711590116640625
34.01,1711590116656250
53.57,1711590116671875
67.01,1711590116687500
76.21,1711590116703125
82.43,1711590116718750
86.21,1711590116734375
87.74,1711590116750000
87.31,1711590116765625
