value,timestamp
-0.0,1711685638000000
-0.0,1711685638015625
-0.0,1711685638031250
-0.0,1711685638046875
-0.0,1711685638062500
-0.0,1711685638078125
-0.0,1711685638093750
-0.0,1711685638109375
-0.0,1711685638125000
-0.0,1711685638140625
0.0,1711685638156250
0.01,1711685638171875
0.01,1711685638187500
-0.0,1711685638203125
-0.03,1711685638218750
-0.05,1711685638234375
-0.05,1711685638250000
0.0,1711685638265625
0.13,1711685638281250
0.36,1711685638296875
0.66,1711685638312500
1.01,1711685638328125
1.37,1711685638343750
1.72,1711685638359375
2.06,1711685638375000
2.4,1711685638390625
2.79,1711685638406250
3.24,1711685638421875
3.8,1711685638437500
4.42,1711685638453125
5.06,1711685638468750
5.66,1711685638484375
6.2,1711685638500000
6.68,1711685638515625
7.15,1711685638531250
7.68,1711685638546875
8.31,1711685638562500
9.14,1711685638578125
10.09,1711685638593750
11.04,1711685638609375
11.88,1711685638625000
12.56,1711685638640625
13.14,1711685638656250
13.76,1711685638671875
14.65,1711685638687500
15.96,1711685638703125
17.91,1711685638718750
20.32,1711685638734375
22.9,1711685638750000
25.38,1711685638765625
27.58,1711685638781250
29.57,1711685638796875
31.68,1711685638812500
34.32,1711685638828125
37.81,1711685638843750
42.54,1711685638859375
48.15,1711685638875000
54.1,1711685638890625
59.83,1711685638906250
64.97,1711685638921875
69.58,1711685638937500
74.14,1711685638953125
79.34,1711685638968750
85.71,1711685638984375
93.76,1711685639000000
103.0,1711685639015625
112.62,1711685639031250
121.73,1711685639046875
129.77,1711685639062500
136.75,1711685639078125
143.3,1711685639093750
150.75,1711685639109375
157.77,1711685639125000
166.64,1711685639140625
177.95,1711685639156250
191.79,1711685639171875
206.97,1711685639187500
220.57,1711685639203125
228.25,1711685639218750
225.36,1711685639234375
208.53,1711685639250000
176.87,1711685639265625
132.76,1711685639281250
80.05,1711685639296875
23.07,1711685639312500
-34.94,1711685639328125
-92.44,1711685639343750
-149.16,1711685639359375
-205.23,1711685639375000
-260.37,1711685639390625
-313.74,1711685639406250
-363.87,1711685639421875
-409.83,1711685639437500
-450.91,1711685639453125
-486.5,1711685639468750
-515.74,1711685639484375
-537.23,1711685639500000
-549.22,1711685639515625
-549.96,1711685639531250
-538.37,1711685639546875
-514.21,1711685639562500
-478.67,1711685639578125
-433.88,1711685639593750
-382.45,1711685639609375
-327.02,1711685639625000
-269.84,1711685639640625
-212.63,1711685639656250
-156.66,1711685639671875
-102.95,1711685639687500
-52.37,1711685639703125
-5.9,1711685639718750
35.58,1711685639734375
71.43,1711685639750000
101.35,1711685639765625
125.5,1711685639781250
144.38,1711685639796875
158.69,1711685639812500
169.15,1711685639828125
176.37,1711685639843750
180.75,1711685639859375
182.57,1711685639875000
182.07,1711685639890625
179.51,1711685639906250
175.23,1711685639921875
169.65,1711685639937500
163.18,1711685639953125
156.15,1711685639968750
148.81,1711685639984375
141.3,1711685640000000
133.69,1711685640015625
126.02,1711685640031250
118.33,1711685640046875
110.69,1711685640062500
103.16,1711685640078125
95.8,1711685640093750
88.68,1711685640109375
81.83,1711685640125000
75.25,1711685640140625
68.95,1711685640156250
62.95,1711685640171875
57.25,1711685640187500
51.86,1711685640203125
46.78,1711685640218750
42.03,1711685640234375
37.59,1711685640250000
33.45,1711685640265625
29.61,1711685640281250
26.07,1711685640296875
22.81,1711685640312500
19.83,1711685640328125
17.11,1711685640343750
14.67,1711685640359375
12.48,1711685640375000
10.54,1711685640390625
8.83,1711685640406250
7.35,1711685640421875
6.07,1711685640437500
4.97,1711685640453125
4.05,1711685640468750
3.27,1711685640484375
2.62,1711685640500000
2.09,1711685640515625
1.65,1711685640531250
1.3,1711685640546875
1.01,1711685640562500
0.79,1711685640578125
0.61,1711685640593750
0.47,1711685640609375
0.37,1711685640625000
0.29,1711685640640625
0.23,1711685640656250
0.19,1711685640671875
0.17,1711685640687500
0.16,1711685640703125
0.16,1711685640718750
0.17,1711685640734375
0.19,1711685640750000
0.21,1711685640765625
0.24,1711685640781250
0.28,1711685640796875
0.32,1711685640812500
0.36,1711685640828125
0.4,1711685640843750
0.45,1711685640859375
0.49,1711685640875000
0.54,1711685640890625
0.59,1711685640906250
0.64,1711685640921875
0.7,1711685640937500
0.76,1711685640953125
0.82,1711685640968750
0.89,1711685640984375
0.97,1711685641000000
1.05,1711685641015625
1.15,1711685641031250
1.25,1711685641046875
1.37,1711685641062500
1.5,1711685641078125
1.65,1711685641093750
1.81,1711685641109375
2.0,1711685641125000
2.2,1711685641140625
2.43,1711685641156250
2.68,1711685641171875
2.96,1711685641187500
3.26,1711685641203125
3.6,1711685641218750
3.97,1711685641234375
4.37,1711685641250000
4.81,1711685641265625
5.29,1711685641281250
5.79,1711685641296875
6.34,1711685641312500
6.93,1711685641328125
7.57,1711685641343750
8.24,1711685641359375
8.96,1711685641375000
9.72,1711685641390625
10.53,1711685641406250
11.38,1711685641421875
12.29,1711685641437500
13.22,1711685641453125
14.22,1711685641468750
15.29,1711685641484375
16.41,1711685641500000
17.6,1711685641515625
18.84,1711685641531250
20.11,1711685641546875
21.37,1711685641562500
22.57,1711685641578125
23.6,1711685641593750
24.38,1711685641609375
24.77,1711685641625000
24.67,1711685641640625
23.95,1711685641656250
22.56,1711685641671875
20.44,1711685641687500
17.63,1711685641703125
14.17,1711685641718750
10.17,1711685641734375
5.82,1711685641750000
1.31,1711685641765625
-3.15,1711685641781250
-7.35,1711685641796875
-11.1,1711685641812500
-14.26,1711685641828125
-16.73,1711685641843750
-18.45,1711685641859375
-19.44,1711685641875000
-19.72,1711685641890625
-19.39,1711685641906250
-18.54,1711685641921875
-17.29,1711685641937500
-15.73,1711685641953125
-13.98,1711685641968750
-12.15,1711685641984375
-10.3,1711685642000000
-8.48,1711685642015625
-6.67,1711685642031250
-4.9,1711685642046875
-3.16,1711685642062500
-1.44,1711685642078125
0.28,1711685642093750
2.01,1711685642109375
3.72,1711685642125000
5.41,1711685642140625
7.11,1711685642156250
8.91,1711685642171875
10.78,1711685642187500
12.76,1711685642203125
14.86,1711685642218750
17.12,1711685642234375
19.49,1711685642250000
21.9,1711685642265625
24.33,1711685642281250
26.8,1711685642296875
29.48,1711685642312500
32.3,1711685642328125
35.3,1711685642343750
38.55,1711685642359375
42.05,1711685642375000
45.69,1711685642390625
49.28,1711685642406250
52.66,1711685642421875
55.86,1711685642437500
59.13,1711685642453125
62.43,1711685642468750
65.92,1711685642484375
69.8,1711685642500000
74.03,1711685642515625
78.33,1711685642531250
82.27,1711685642546875
85.42,1711685642562500
87.61,1711685642578125
89.16,1711685642593750
90.02,1711685642609375
90.51,1711685642625000
90.81,1711685642640625
90.68,1711685642656250
89.26,1711685642671875
85.19,1711685642687500
76.75,1711685642703125
61.95,1711685642718750
43.76,1711685642734375
23.58,1711685642750000
2.73,1711685642765625
-17.84,1711685642781250
-37.75,1711685642796875
-57.33,1711685642812500
-77.33,1711685642828125
-98.7,1711685642843750
-122.3,1711685642859375
-148.58,1711685642875000
-178.05,1711685642890625
-209.89,1711685642906250
-241.83,1711685642921875
-270.32,1711685642937500
-291.35,1711685642953125
-301.69,1711685642968750
-300.06,1711685642984375
-287.61,1711685643000000
-267.39,1711685643015625
-243.71,1711685643031250
-220.11,1711685643046875
-198.63,1711685643062500
-179.86,1711685643078125
-163.74,1711685643093750
-150.27,1711685643109375
-139.99,1711685643125000
-133.64,1711685643140625
-131.49,1711685643156250
-133.04,1711685643171875
-136.41,1711685643187500
-138.84,1711685643203125
-137.56,1711685643218750
-130.66,1711685643234375
-117.81,1711685643250000
-100.18,1711685643265625
-79.98,1711685643281250
-59.61,1711685643296875
-41.17,1711685643312500
-25.76,1711685643328125
-13.66,1711685643343750
-4.64,1711685643359375
1.62,1711685643375000
5.33,1711685643390625
6.6,1711685643406250
5.74,1711685643421875
3.47,1711685643437500
1.01,1711685643453125
-0.07,1711685643468750
1.81,1711685643484375
7.72,1711685643500000
17.97,1711685643515625
32.12,1711685643531250
49.2,1711685643546875
68.07,1711685643562500
87.7,1711685643578125
107.16,1711685643593750
125.7,1711685643609375
142.59,1711685643625000
157.1,1711685643640625
168.59,1711685643656250
176.61,1711685643671875
180.9,1711685643687500
181.53,1711685643703125
178.91,1711685643718750
173.89,1711685643734375
167.53,1711685643750000
160.93,1711685643765625
154.78,1711685643781250
149.15,1711685643796875
143.46,1711685643812500
136.83,1711685643828125
128.57,1711685643843750
118.51,1711685643859375
107.11,1711685643875000
95.23,1711685643890625
83.84,1711685643906250
73.85,1711685643921875
66.11,1711685643937500
61.45,1711685643953125
60.47,1711685643968750
63.35,1711685643984375
69.51,1711685644000000
77.64,1711685644015625
86.06,1711685644031250
93.27,1711685644046875
98.42,1711685644062500
101.36,1711685644078125
102.4,1711685644093750
101.74,1711685644109375
99.26,1711685644125000
94.42,1711685644140625
86.78,1711685644156250
76.48,1711685644171875
64.51,1711685644187500
52.66,1711685644203125
42.97,1711685644218750
37.0,1711685644234375
35.27,1711685644250000
37.13,1711685644265625
41.03,1711685644281250
45.16,1711685644296875
47.94,1711685644312500
48.36,1711685644328125
45.93,1711685644343750
40.47,1711685644359375
32.05,1711685644375000
20.97,1711685644390625
7.9,1711685644406250
-6.04,1711685644421875
-19.58,1711685644437500
-31.58,1711685644453125
-41.49,1711685644468750
-49.43,1711685644484375
-56.02,1711685644500000
-61.95,1711685644515625
-67.62,1711685644531250
-73.03,1711685644546875
-77.89,1711685644562500
-82.03,1711685644578125
-85.62,1711685644593750
-89.21,1711685644609375
-93.42,1711685644625000
-98.64,1711685644640625
-104.6,1711685644656250
-110.34,1711685644671875
-114.4,1711685644687500
-115.28,1711685644703125
-111.95,1711685644718750
-104.11,1711685644734375
-92.34,1711685644750000
-77.8,1711685644765625
-61.95,1711685644781250
-46.18,1711685644796875
-31.67,1711685644812500
-19.24,1711685644828125
-9.46,1711685644843750
-2.59,1711685644859375
1.35,1711685644875000
2.61,1711685644890625
1.69,1711685644906250
-0.7,1711685644921875
-3.75,1711685644937500
-6.7,1711685644953125
-8.85,1711685644968750
-9.77,1711685644984375
-9.28,1711685645000000
-7.49,1711685645015625
-4.73,1711685645031250
-1.46,1711685645046875
1.83,1711685645062500
4.79,1711685645078125
7.27,1711685645093750
9.25,1711685645109375
10.78,1711685645125000
11.85,1711685645140625
12.28,1711685645156250
11.78,1711685645171875
10.08,1711685645187500
7.04,1711685645203125
2.84,1711685645218750
-2.06,1711685645234375
-7.07,1711685645250000
-11.66,1711685645265625
-15.58,1711685645281250
-19.01,1711685645296875
-22.5,1711685645312500
-26.71,1711685645328125
-32.28,1711685645343750
-39.51,1711685645359375
-48.27,1711685645375000
-57.89,1711685645390625
-67.24,1711685645406250
-74.74,1711685645421875
-78.74,1711685645437500
-77.8,1711685645453125
-71.21,1711685645468750
-59.3,1711685645484375
-43.43,1711685645500000
-25.67,1711685645515625
-8.23,1711685645531250
7.08,1711685645546875
19.21,1711685645562500
27.94,1711685645578125
33.67,1711685645593750
37.09,1711685645609375
38.85,1711685645625000
39.41,1711685645640625
39.01,1711685645656250
37.78,1711685645671875
35.86,1711685645687500
33.48,1711685645703125
31.0,1711685645718750
28.81,1711685645734375
27.26,1711685645750000
26.51,1711685645765625
26.6,1711685645781250
27.37,1711685645796875
28.56,1711685645812500
29.94,1711685645828125
31.3,1711685645843750
32.45,1711685645859375
33.12,1711685645875000
33.02,1711685645890625
31.76,1711685645906250
29.14,1711685645921875
25.05,1711685645937500
19.74,1711685645953125
13.7,1711685645968750
7.57,1711685645984375
1.95,1711685646000000
-2.84,1711685646015625
-6.75,1711685646031250
-10.08,1711685646046875
-13.28,1711685646062500
-16.82,1711685646078125
-21.07,1711685646093750
-26.34,1711685646109375
-32.75,1711685646125000
-40.12,1711685646140625
-47.89,1711685646156250
-54.96,1711685646171875
-59.89,1711685646187500
-61.26,1711685646203125
-58.16,1711685646218750
-50.61,1711685646234375
-39.64,1711685646250000
-26.93,1711685646265625
-14.25,1711685646281250
-2.89,1711685646296875
6.66,1711685646312500
14.5,1711685646328125
20.98,1711685646343750
26.26,1711685646359375
30.2,1711685646375000
32.55,1711685646390625
33.15,1711685646406250
32.28,1711685646421875
30.56,1711685646437500
28.85,1711685646453125
27.75,1711685646468750
27.48,1711685646484375
27.79,1711685646500000
28.18,1711685646515625
28.28,1711685646531250
28.07,1711685646546875
27.9,1711685646562500
28.28,1711685646578125
29.54,1711685646593750
31.52,1711685646609375
33.59,1711685646625000
34.81,1711685646640625
34.39,1711685646656250
31.92,1711685646671875
27.59,1711685646687500
21.94,1711685646703125
15.7,1711685646718750
9.47,1711685646734375
3.58,1711685646750000
-1.87,1711685646765625
-6.92,1711685646781250
-11.71,1711685646796875
-16.42,1711685646812500
-21.33,1711685646828125
-26.83,1711685646843750
-33.34,1711685646859375
-41.01,1711685646875000
-49.41,1711685646890625
-57.38,1711685646906250
-63.18,1711685646921875
-64.99,1711685646937500
-61.52,1711685646953125
-52.55,1711685646968750
-39.07,1711685646984375
-23.06,1711685647000000
-6.89,1711685647015625
7.29,1711685647031250
18.03,1711685647046875
24.86,1711685647062500
28.16,1711685647078125
28.91,1711685647093750
28.24,1711685647109375
27.08,1711685647125000
25.91,1711685647140625
24.8,1711685647156250
23.59,1711685647171875
22.12,1711685647187500
20.44,1711685647203125
18.79,1711685647218750
17.46,1711685647234375
16.64,1711685647250000
16.34,1711685647265625
16.45,1711685647281250
16.84,1711685647296875
17.41,1711685647312500
18.09,1711685647328125
18.73,1711685647343750
19.06,1711685647359375
18.71,1711685647375000
17.3,1711685647390625
14.59,1711685647406250
10.52,1711685647421875
5.25,1711685647437500
-0.88,1711685647453125
-7.41,1711685647468750
-13.88,1711685647484375
-19.94,1711685647500000
-25.46,1711685647515625
-30.56,1711685647531250
-35.64,1711685647546875
-41.25,1711685647562500
-47.87,1711685647578125
-55.64,1711685647593750
-64.06,1711685647609375
-71.84,1711685647625000
-77.18,1711685647640625
-78.31,1711685647656250
-74.1,1711685647671875
-64.51,1711685647687500
-50.72,1711685647703125
-34.66,1711685647718750
-18.45,1711685647734375
-3.8,1711685647750000
8.27,1711685647765625
17.43,1711685647781250
23.79,1711685647796875
27.65,1711685647812500
29.41,1711685647828125
29.53,1711685647843750
28.54,1711685647859375
27.04,1711685647875000
25.59,1711685647890625
24.58,1711685647906250
24.19,1711685647921875
24.37,1711685647937500
24.89,1711685647953125
25.48,1711685647968750
25.9,1711685647984375
26.1,1711685648000000
26.13,1711685648015625
26.17,1711685648031250
26.36,1711685648046875
26.64,1711685648062500
26.82,1711685648078125
26.57,1711685648093750
25.53,1711685648109375
23.43,1711685648125000
20.08,1711685648140625
15.41,1711685648156250
9.5,1711685648171875
2.63,1711685648187500
-4.63,1711685648203125
-11.58,1711685648218750
-17.46,1711685648234375
-21.9,1711685648250000
-25.02,1711685648265625
-27.54,1711685648281250
-30.58,1711685648296875
-35.25,1711685648312500
-42.14,1711685648328125
-50.99,1711685648343750
-60.6,1711685648359375
-69.04,1711685648375000
-74.18,1711685648390625
-74.33,1711685648406250
-68.75,1711685648421875
-57.89,1711685648437500
-43.26,1711685648453125
-26.98,1711685648468750
-11.19,1711685648484375
2.45,1711685648500000
13.02,1711685648515625
20.41,1711685648531250
25.13,1711685648546875
27.99,1711685648562500
29.75,1711685648578125
30.94,1711685648593750
31.76,1711685648609375
32.15,1711685648625000
31.99,1711685648640625
31.22,1711685648656250
30.01,1711685648671875
28.66,1711685648687500
27.59,1711685648703125
27.14,1711685648718750
27.53,1711685648734375
28.7,1711685648750000
30.42,1711685648765625
32.24,1711685648781250
33.74,1711685648796875
34.53,1711685648812500
34.42,1711685648828125
33.38,1711685648843750
31.51,1711685648859375
28.91,1711685648875000
25.63,1711685648890625
21.7,1711685648906250
17.19,1711685648921875
12.22,1711685648937500
7.01,1711685648953125
1.72,1711685648968750
-3.55,1711685648984375
-8.84,1711685649000000
-14.2,1711685649015625
-19.65,1711685649031250
-25.11,1711685649046875
-30.52,1711685649062500
-36.02,1711685649078125
-41.88,1711685649093750
-48.4,1711685649109375
-55.5,1711685649125000
-62.49,1711685649140625
-67.9,1711685649156250
-69.91,1711685649171875
-66.94,1711685649187500
-58.28,1711685649203125
-44.54,1711685649218750
-27.56,1711685649234375
-9.86,1711685649250000
6.05,1711685649265625
18.35,1711685649281250
26.37,1711685649296875
30.55,1711685649312500
32.1,1711685649328125
32.45,1711685649343750
32.71,1711685649359375
33.35,1711685649375000
34.1,1711685649390625
34.36,1711685649406250
33.55,1711685649421875
31.57,1711685649437500
28.81,1711685649453125
26.08,1711685649468750
24.2,1711685649484375
23.7,1711685649500000
24.63,1711685649515625
26.6,1711685649531250
28.94,1711685649546875
30.89,1711685649562500
31.81,1711685649578125
31.32,1711685649593750
29.39,1711685649609375
26.34,1711685649625000
22.62,1711685649640625
18.7,1711685649656250
14.81,1711685649671875
10.92,1711685649687500
6.83,1711685649703125
2.37,1711685649718750
-2.42,1711685649734375
-7.29,1711685649750000
-11.87,1711685649765625
-15.96,1711685649781250
-19.58,1711685649796875
-23.09,1711685649812500
-27.0,1711685649828125
-31.83,1711685649843750
-37.85,1711685649859375
-44.94,1711685649875000
-52.46,1711685649890625
-59.25,1711685649906250
-63.87,1711685649921875
-64.87,1711685649937500
-61.36,1711685649953125
-53.22,1711685649968750
-41.26,1711685649984375
-26.95,1711685650000000
-12.09,1711685650015625
1.7,1711685650031250
13.24,1711685650046875
21.94,1711685650062500
27.73,1711685650078125
30.92,1711685650093750
32.03,1711685650109375
31.61,1711685650125000
30.24,1711685650140625
28.32,1711685650156250
26.19,1711685650171875
24.15,1711685650187500
22.56,1711685650203125
21.75,1711685650218750
21.89,1711685650234375
22.83,1711685650250000
24.05,1711685650265625
25.0,1711685650281250
25.31,1711685650296875
25.01,1711685650312500
24.48,1711685650328125
24.18,1711685650343750
24.29,1711685650359375
24.57,1711685650375000
24.43,1711685650390625
23.17,1711685650406250
20.33,1711685650421875
15.87,1711685650437500
10.1,1711685650453125
3.64,1711685650468750
-2.93,1711685650484375
-9.16,1711685650500000
-14.91,1711685650515625
-20.26,1711685650531250
-25.65,1711685650546875
-31.61,1711685650562500
-38.65,1711685650578125
-46.92,1711685650593750
-55.99,1711685650609375
-64.8,1711685650625000
-71.83,1711685650640625
-75.43,1711685650656250
-74.36,1711685650671875
-68.19,1711685650687500
-57.52,1711685650703125
-43.81,1711685650718750
-29.02,1711685650734375
-15.0,1711685650750000
-3.08,1711685650765625
6.11,1711685650781250
12.55,1711685650796875
16.49,1711685650812500
18.21,1711685650828125
17.95,1711685650843750
15.92,1711685650859375
12.51,1711685650875000
8.29,1711685650890625
3.95,1711685650906250
0.02,1711685650921875
-3.21,1711685650937500
-5.82,1711685650953125
-8.09,1711685650968750
-10.32,1711685650984375
-12.68,1711685651000000
-15.09,1711685651015625
-17.42,1711685651031250
-19.59,1711685651046875
-21.73,1711685651062500
-24.21,1711685651078125
-27.48,1711685651093750
-31.98,1711685651109375
-37.9,1711685651125000
-45.11,1711685651140625
-53.16,1711685651156250
-61.41,1711685651171875
-69.27,1711685651187500
-76.4,1711685651203125
-82.87,1711685651218750
-89.1,1711685651234375
-95.67,1711685651250000
-103.08,1711685651265625
-111.57,1711685651281250
-121.06,1711685651296875
-131.09,1711685651312500
-140.82,1711685651328125
-148.97,1711685651343750
-153.81,1711685651359375
-153.38,1711685651375000
-145.91,1711685651390625
-130.43,1711685651406250
-107.31,1711685651421875
-78.38,1711685651437500
-46.5,1711685651453125
-14.73,1711685651468750
14.62,1711685651484375
40.45,1711685651500000
62.74,1711685651515625
82.01,1711685651531250
98.73,1711685651546875
113.08,1711685651562500
125.05,1711685651578125
134.87,1711685651593750
143.03,1711685651609375
150.28,1711685651625000
157.1,1711685651640625
163.5,1711685651656250
168.96,1711685651671875
172.88,1711685651687500
175.16,1711685651703125
176.43,1711685651718750
177.92,1711685651734375
180.75,1711685651750000
185.31,1711685651765625
191.04,1711685651781250
196.7,1711685651796875
201.04,1711685651812500
203.24,1711685651828125
203.15,1711685651843750
200.88,1711685651859375
196.46,1711685651875000
189.66,1711685651890625
180.05,1711685651906250
167.29,1711685651921875
151.32,1711685651937500
132.38,1711685651953125
110.93,1711685651968750
87.63,1711685651984375
63.38,1711685652000000
39.46,1711685652015625
17.47,1711685652031250
-1.05,1711685652046875
-15.08,1711685652062500
-24.4,1711685652078125
-29.52,1711685652093750
-31.14,1711685652109375
-29.77,1711685652125000
-25.53,1711685652140625
-18.61,1711685652156250
-9.76,1711685652171875
-0.57,1711685652187500
6.81,1711685652203125
10.34,1711685652218750
8.87,1711685652234375
2.47,1711685652250000
-7.61,1711685652265625
-19.74,1711685652281250
-32.6,1711685652296875
-45.63,1711685652312500
-58.79,1711685652328125
-71.98,1711685652343750
-84.42,1711685652359375
-94.66,1711685652375000
-101.08,1711685652390625
-102.62,1711685652406250
-99.4,1711685652421875
-92.62,1711685652437500
-83.99,1711685652453125
-74.99,1711685652468750
-66.45,1711685652484375
-58.46,1711685652500000
-50.85,1711685652515625
-43.59,1711685652531250
-36.93,1711685652546875
-31.37,1711685652562500
-27.4,1711685652578125
-25.39,1711685652593750
-25.52,1711685652609375
-27.78,1711685652625000
-31.86,1711685652640625
-37.02,1711685652656250
-42.29,1711685652671875
-46.75,1711685652687500
-50.0,1711685652703125
-52.3,1711685652718750
-54.53,1711685652734375
-57.67,1711685652750000
-62.37,1711685652765625
-68.67,1711685652781250
-76.05,1711685652796875
-83.64,1711685652812500
-90.45,1711685652828125
-95.51,1711685652843750
-97.94,1711685652859375
-97.09,1711685652875000
-92.64,1711685652890625
-84.72,1711685652906250
-73.94,1711685652921875
-61.23,1711685652937500
-47.62,1711685652953125
-34.06,1711685652968750
-21.34,1711685652984375
-10.1,1711685653000000
-0.91,1711685653015625
5.8,1711685653031250
9.8,1711685653046875
11.23,1711685653062500
10.5,1711685653078125
8.22,1711685653093750
5.04,1711685653109375
1.54,1711685653125000
-1.68,1711685653140625
-4.09,1711685653156250
-5.26,1711685653171875
-4.96,1711685653187500
-3.32,1711685653203125
-0.78,1711685653218750
2.02,1711685653234375
4.47,1711685653250000
6.19,1711685653265625
7.09,1711685653281250
7.28,1711685653296875
7.1,1711685653312500
6.97,1711685653328125
7.33,1711685653343750
8.56,1711685653359375
10.78,1711685653375000
13.5,1711685653390625
15.6,1711685653406250
15.6,1711685653421875
12.17,1711685653437500
4.87,1711685653453125
-5.75,1711685653468750
-18.27,1711685653484375
-31.07,1711685653500000
-42.8,1711685653515625
-52.56,1711685653531250
-59.52,1711685653546875
-62.76,1711685653562500
-61.28,1711685653578125
-54.51,1711685653593750
-42.85,1711685653609375
-27.92,1711685653625000
-12.09,1711685653640625
2.37,1711685653656250
14.23,1711685653671875
23.49,1711685653687500
31.04,1711685653703125
37.76,1711685653718750
43.88,1711685653734375
48.74,1711685653750000
51.34,1711685653765625
50.99,1711685653781250
47.7,1711685653796875
42.41,1711685653812500
36.48,1711685653828125
31.22,1711685653843750
27.41,1711685653859375
25.21,1711685653875000
24.24,1711685653890625
23.9,1711685653906250
23.66,1711685653921875
23.11,1711685653937500
22.03,1711685653953125
20.26,1711685653968750
17.68,1711685653984375
14.24,1711685654000000
9.98,1711685654015625
5.06,1711685654031250
-0.24,1711685654046875
-5.62,1711685654062500
-10.83,1711685654078125
-15.74,1711685654093750
-20.45,1711685654109375
-25.27,1711685654125000
-30.77,1711685654140625
-37.55,1711685654156250
-46.01,1711685654171875
-56.0,1711685654187500
-66.6,1711685654203125
-76.18,1711685654218750
-82.76,1711685654234375
-84.6,1711685654250000
-80.81,1711685654265625
-71.54,1711685654281250
-57.96,1711685654296875
-41.85,1711685654312500
-25.15,1711685654328125
-9.5,1711685654343750
3.98,1711685654359375
14.91,1711685654375000
23.41,1711685654390625
30.01,1711685654406250
35.22,1711685654421875
39.33,1711685654437500
42.31,1711685654453125
43.91,1711685654468750
43.88,1711685654484375
42.18,1711685654500000
39.05,1711685654515625
34.88,1711685654531250
30.08,1711685654546875
25.07,1711685654562500
20.29,1711685654578125
16.28,1711685654593750
13.56,1711685654609375
12.5,1711685654625000
12.98,1711685654640625
14.37,1711685654656250
15.72,1711685654671875
16.06,1711685654687500
14.78,1711685654703125
11.73,1711685654718750
7.16,1711685654734375
1.46,1711685654750000
-4.97,1711685654765625
-11.9,1711685654781250
-19.2,1711685654796875
-26.93,1711685654812500
-35.22,1711685654828125
-44.28,1711685654843750
-54.21,1711685654859375
-64.75,1711685654875000
-75.06,1711685654890625
-83.62,1711685654906250
-88.59,1711685654921875
-88.21,1711685654937500
-81.54,1711685654953125
-68.77,1711685654968750
-51.35,1711685654984375
-31.49,1711685655000000
-11.53,1711685655015625
6.73,1711685655031250
22.4,1711685655046875
35.4,1711685655062500
46.12,1711685655078125
54.91,1711685655093750
61.92,1711685655109375
67.07,1711685655125000
70.25,1711685655140625
71.55,1711685655156250
71.28,1711685655171875
69.89,1711685655187500
67.86,1711685655203125
65.51,1711685655218750
63.07,1711685655234375
60.68,1711685655250000
58.46,1711685655265625
56.46,1711685655281250
54.67,1711685655296875
52.87,1711685655312500
50.68,1711685655328125
47.66,1711685655343750
43.47,1711685655359375
37.99,1711685655375000
31.39,1711685655390625
24.15,1711685655406250
16.91,1711685655421875
10.32,1711685655437500
4.82,1711685655453125
0.49,1711685655468750
-2.96,1711685655484375
-6.18,1711685655500000
-9.97,1711685655515625
-15.08,1711685655531250
-22.03,1711685655546875
-30.93,1711685655562500
-41.32,1711685655578125
-52.16,1711685655593750
-61.87,1711685655609375
-68.62,1711685655625000
-70.76,1711685655640625
-67.28,1711685655656250
-58.15,1711685655671875
-44.35,1711685655687500
-27.57,1711685655703125
-9.77,1711685655718750
7.35,1711685655734375
22.62,1711685655750000
35.45,1711685655765625
45.72,1711685655781250
53.54,1711685655796875
59.02,1711685655812500
62.22,1711685655828125
63.21,1711685655843750
62.19,1711685655859375
59.56,1711685655875000
55.95,1711685655890625
52.06,1711685655906250
48.5,1711685655921875
45.63,1711685655937500
43.55,1711685655953125
42.1,1711685655968750
41.1,1711685655984375
40.4,1711685656000000
39.94,1711685656015625
39.67,1711685656031250
39.48,1711685656046875
39.11,1711685656062500
38.22,1711685656078125
36.46,1711685656093750
33.58,1711685656109375
29.54,1711685656125000
24.43,1711685656140625
18.58,1711685656156250
12.31,1711685656171875
5.94,1711685656187500
-0.34,1711685656203125
-6.53,1711685656218750
-12.75,1711685656234375
-19.29,1711685656250000
-26.36,1711685656265625
-34.16,1711685656281250
-42.63,1711685656296875
-51.42,1711685656312500
-59.69,1711685656328125
-66.2,1711685656343750
-69.47,1711685656359375
-68.16,1711685656375000
-61.53,1711685656390625
-49.79,1711685656406250
-34.2,1711685656421875
-16.68,1711685656437500
0.71,1711685656453125
16.33,1711685656468750
29.24,1711685656484375
39.15,1711685656500000
46.16,1711685656515625
50.46,1711685656531250
52.25,1711685656546875
51.84,1711685656562500
49.78,1711685656578125
46.9,1711685656593750
44.13,1711685656609375
42.18,1711685656625000
41.27,1711685656640625
41.18,1711685656656250
41.38,1711685656671875
41.38,1711685656687500
40.96,1711685656703125
40.17,1711685656718750
39.19,1711685656734375
38.12,1711685656750000
36.84,1711685656765625
35.11,1711685656781250
32.67,1711685656796875
29.43,1711685656812500
25.39,1711685656828125
20.62,1711685656843750
15.14,1711685656859375
8.98,1711685656875000
2.26,1711685656890625
-4.7,1711685656906250
-11.52,1711685656921875
-17.91,1711685656937500
-23.99,1711685656953125
-30.31,1711685656968750
-37.58,1711685656984375
-46.16,1711685657000000
-55.59,1711685657015625
-64.46,1711685657031250
-70.78,1711685657046875
-72.7,1711685657062500
-69.16,1711685657078125
-60.29,1711685657093750
-47.26,1711685657109375
-31.86,1711685657125000
-15.93,1711685657140625
-0.92,1711685657156250
12.22,1711685657171875
22.94,1711685657187500
30.99,1711685657203125
36.29,1711685657218750
38.91,1711685657234375
39.14,1711685657250000
37.51,1711685657265625
34.73,1711685657281250
31.54,1711685657296875
28.55,1711685657312500
26.14,1711685657328125
24.39,1711685657343750
23.08,1711685657359375
21.88,1711685657375000
20.48,1711685657390625
18.79,1711685657406250
16.94,1711685657421875
15.23,1711685657437500
13.93,1711685657453125
13.09,1711685657468750
12.4,1711685657484375
11.26,1711685657500000
8.99,1711685657515625
5.11,1711685657531250
-0.4,1711685657546875
-7.03,1711685657562500
-13.97,1711685657578125
-20.35,1711685657593750
-25.68,1711685657609375
-29.96,1711685657625000
-33.73,1711685657640625
-37.86,1711685657656250
-43.22,1711685657671875
-50.29,1711685657687500
-58.88,1711685657703125
-68.06,1711685657718750
-76.21,1711685657734375
-81.47,1711685657750000
-82.15,1711685657765625
-77.31,1711685657781250
-66.97,1711685657796875
-52.21,1711685657812500
-34.84,1711685657828125
-16.93,1711685657843750
-0.4,1711685657859375
13.4,1711685657875000
23.83,1711685657890625
30.95,1711685657906250
35.29,1711685657921875
37.59,1711685657937500
38.53,1711685657953125
38.58,1711685657968750
37.99,1711685657984375
36.92,1711685658000000
35.48,1711685658015625
33.88,1711685658031250
32.32,1711685658046875
30.94,1711685658062500
29.79,1711685658078125
28.87,1711685658093750
28.18,1711685658109375
27.79,1711685658125000
27.8,1711685658140625
28.21,1711685658156250
28.78,1711685658171875
29.08,1711685658187500
28.52,1711685658203125
26.68,1711685658218750
23.38,1711685658234375
18.78,1711685658250000
13.29,1711685658265625
7.39,1711685658281250
1.56,1711685658296875
-3.88,1711685658312500
-8.79,1711685658328125
-13.19,1711685658343750
-17.32,1711685658359375
-21.65,1711685658375000
-26.79,1711685658390625
-33.36,1711685658406250
-41.61,1711685658421875
-51.17,1711685658437500
-60.94,1711685658453125
-69.15,1711685658468750
-73.87,1711685658484375
-73.61,1711685658500000
-67.83,1711685658515625
-57.14,1711685658531250
-43.1,1711685658546875
-27.64,1711685658562500
-12.56,1711685658578125
0.92,1711685658593750
12.23,1711685658609375
21.28,1711685658625000
28.18,1711685658640625
33.07,1711685658656250
36.06,1711685658671875
37.23,1711685658687500
36.76,1711685658703125
35.0,1711685658718750
32.43,1711685658734375
29.64,1711685658750000
27.19,1711685658765625
25.52,1711685658781250
24.76,1711685658796875
24.75,1711685658812500
25.11,1711685658828125
25.47,1711685658843750
25.63,1711685658859375
25.66,1711685658875000
25.72,1711685658890625
25.82,1711685658906250
25.71,1711685658921875
24.82,1711685658937500
22.55,1711685658953125
18.61,1711685658968750
13.14,1711685658984375
6.73,1711685659000000
0.17,1711685659015625
-5.87,1711685659031250
-11.03,1711685659046875
-15.27,1711685659062500
-18.8,1711685659078125
-22.05,1711685659093750
-25.47,1711685659109375
-29.59,1711685659125000
-34.89,1711685659140625
-41.62,1711685659156250
-49.68,1711685659171875
-58.45,1711685659187500
-66.71,1711685659203125
-72.92,1711685659218750
-75.52,1711685659234375
-73.48,1711685659250000
-66.62,1711685659265625
-55.68,1711685659281250
-42.09,1711685659296875
-27.5,1711685659312500
-13.3,1711685659328125
-0.37,1711685659343750
10.86,1711685659359375
20.2,1711685659375000
27.5,1711685659390625
32.59,1711685659406250
35.36,1711685659421875
35.92,1711685659437500
34.7,1711685659453125
32.3,1711685659468750
29.38,1711685659484375
26.48,1711685659500000
23.93,1711685659515625
21.93,1711685659531250
20.51,1711685659546875
19.68,1711685659562500
19.39,1711685659578125
19.62,1711685659593750
20.31,1711685659609375
21.4,1711685659625000
22.69,1711685659640625
23.9,1711685659656250
24.62,1711685659671875
24.41,1711685659687500
23.02,1711685659703125
20.41,1711685659718750
16.8,1711685659734375
12.62,1711685659750000
8.27,1711685659765625
4.02,1711685659781250
-0.04,1711685659796875
-4.03,1711685659812500
-8.06,1711685659828125
-12.22,1711685659843750
-16.51,1711685659859375
-20.96,1711685659875000
-25.74,1711685659890625
-31.14,1711685659906250
-37.42,1711685659921875
-44.41,1711685659937500
-51.33,1711685659953125
-56.69,1711685659968750
-58.72,1711685659984375
-56.08,1711685660000000
-48.41,1711685660015625
-36.64,1711685660031250
-22.65,1711685660046875
-8.57,1711685660062500
3.97,1711685660078125
14.17,1711685660093750
22.02,1711685660109375
27.77,1711685660125000
31.52,1711685660140625
33.08,1711685660156250
32.17,1711685660171875
28.87,1711685660187500
23.84,1711685660203125
18.24,1711685660218750
13.35,1711685660234375
10.06,1711685660250000
8.6,1711685660265625
8.56,1711685660281250
9.29,1711685660296875
10.19,1711685660312500
11.02,1711685660328125
11.79,1711685660343750
12.57,1711685660359375
13.26,1711685660375000
13.55,1711685660390625
12.91,1711685660406250
10.92,1711685660421875
7.42,1711685660437500
2.58,1711685660453125
-3.12,1711685660468750
-9.07,1711685660484375
-14.65,1711685660500000
-19.5,1711685660515625
-23.53,1711685660531250
-27.0,1711685660546875
-30.44,1711685660562500
-34.5,1711685660578125
-39.73,1711685660593750
-46.4,1711685660609375
-54.31,1711685660625000
-62.73,1711685660640625
-70.41,1711685660656250
-75.81,1711685660671875
-77.4,1711685660687500
-74.08,1711685660703125
-65.59,1711685660718750
-52.63,1711685660734375
-36.8,1711685660750000
-20.14,1711685660765625
-4.65,1711685660781250
8.23,1711685660796875
17.88,1711685660812500
24.43,1711685660828125
28.42,1711685660843750
30.48,1711685660859375
31.04,1711685660875000
30.31,1711685660890625
28.4,1711685660906250
25.58,1711685660921875
22.28,1711685660937500
19.09,1711685660953125
16.51,1711685660968750
14.79,1711685660984375
13.89,1711685661000000
13.53,1711685661015625
13.43,1711685661031250
13.41,1711685661046875
13.5,1711685661062500
13.83,1711685661078125
14.5,1711685661093750
15.42,1711685661109375
16.23,1711685661125000
16.29,1711685661140625
14.87,1711685661156250
11.39,1711685661171875
5.8,1711685661187500
-1.29,1711685661203125
-8.76,1711685661218750
-15.39,1711685661234375
-20.42,1711685661250000
-23.87,1711685661265625
-26.53,1711685661281250
-29.68,1711685661296875
-34.52,1711685661312500
-41.74,1711685661328125
-51.23,1711685661343750
-62.0,1711685661359375
-72.38,1711685661375000
-80.34,1711685661390625
-83.95,1711685661406250
-81.86,1711685661421875
-73.75,1711685661437500
-60.47,1711685661453125
-43.86,1711685661468750
-26.24,1711685661484375
-9.77,1711685661500000
4.0,1711685661515625
14.4,1711685661531250
21.55,1711685661546875
26.05,1711685661562500
28.66,1711685661578125
30.01,1711685661593750
30.51,1711685661609375
30.35,1711685661625000
29.6,1711685661640625
28.38,1711685661656250
26.91,1711685661671875
25.48,1711685661687500
24.36,1711685661703125
23.73,1711685661718750
23.6,1711685661734375
23.86,1711685661750000
24.37,1711685661765625
24.94,1711685661781250
25.44,1711685661796875
25.75,1711685661812500
25.73,1711685661828125
25.12,1711685661843750
23.58,1711685661859375
20.79,1711685661875000
16.55,1711685661890625
11.04,1711685661906250
4.68,1711685661921875
-1.8,1711685661937500
-7.72,1711685661953125
-12.62,1711685661968750
-16.53,1711685661984375
-19.9,1711685662000000
-23.45,1711685662015625
-27.95,1711685662031250
-33.93,1711685662046875
-41.61,1711685662062500
-50.78,1711685662078125
-60.76,1711685662093750
-70.35,1711685662109375
-77.97,1711685662125000
-81.99,1711685662140625
-81.13,1711685662156250
-74.92,1711685662171875
-63.85,1711685662187500
-49.32,1711685662203125
-33.1,1711685662218750
-16.99,1711685662234375
-2.36,1711685662250000
9.95,1711685662265625
19.58,1711685662281250
26.55,1711685662296875
31.06,1711685662312500
33.52,1711685662328125
34.42,1711685662343750
34.31,1711685662359375
33.7,1711685662375000
32.94,1711685662390625
32.21,1711685662406250
31.56,1711685662421875
30.97,1711685662437500
30.46,1711685662453125
30.13,1711685662468750
30.04,1711685662484375
30.26,1711685662500000
30.73,1711685662515625
31.36,1711685662531250
32.01,1711685662546875
32.48,1711685662562500
32.54,1711685662578125
31.87,1711685662593750
30.15,1711685662609375
27.09,1711685662625000
22.64,1711685662640625
17.02,1711685662656250
10.75,1711685662671875
4.53,1711685662687500
-1.08,1711685662703125
-5.74,1711685662718750
-9.55,1711685662734375
-12.89,1711685662750000
-16.42,1711685662765625
-20.82,1711685662781250
-26.66,1711685662796875
-34.22,1711685662812500
-43.27,1711685662828125
-52.99,1711685662843750
-61.99,1711685662859375
-68.55,1711685662875000
-71.05,1711685662890625
-68.46,1711685662906250
-60.62,1711685662921875
-48.34,1711685662937500
-33.18,1711685662953125
-16.96,1711685662968750
-1.44,1711685662984375
12.09,1711685663000000
22.87,1711685663015625
30.7,1711685663031250
35.78,1711685663046875
38.54,1711685663062500
39.43,1711685663078125
38.87,1711685663093750
37.19,1711685663109375
34.71,1711685663125000
31.82,1711685663140625
28.98,1711685663156250
26.68,1711685663171875
25.19,1711685663187500
24.59,1711685663203125
24.67,1711685663218750
25.07,1711685663234375
25.51,1711685663250000
25.74,1711685663265625
25.73,1711685663281250
25.37,1711685663296875
24.56,1711685663312500
23.09,1711685663328125
20.81,1711685663343750
17.73,1711685663359375
14.15,1711685663375000
10.61,1711685663390625
7.64,1711685663406250
5.54,1711685663421875
4.22,1711685663437500
3.15,1711685663453125
1.64,1711685663468750
-1.01,1711685663484375
-5.27,1711685663500000
-11.32,1711685663515625
-18.95,1711685663531250
-27.6,1711685663546875
-36.2,1711685663562500
-43.27,1711685663578125
-47.14,1711685663593750
-46.35,1711685663609375
-40.13,1711685663625000
-28.78,1711685663640625
-13.7,1711685663656250
2.96,1711685663671875
18.88,1711685663687500
32.15,1711685663703125
41.73,1711685663718750
47.48,1711685663734375
49.97,1711685663750000
50.08,1711685663765625
48.7,1711685663781250
46.43,1711685663796875
43.57,1711685663812500
40.28,1711685663828125
36.69,1711685663843750
33.08,1711685663859375
29.76,1711685663875000
26.91,1711685663890625
24.48,1711685663906250
22.16,1711685663921875
19.61,1711685663937500
16.72,1711685663953125
13.83,1711685663968750
11.58,1711685663984375
10.55,1711685664000000
10.66,1711685664015625
11.02,1711685664031250
10.18,1711685664046875
6.83,1711685664062500
0.56,1711685664078125
-7.78,1711685664093750
-16.52,1711685664109375
-23.86,1711685664125000
-28.87,1711685664140625
-31.84,1711685664156250
-34.05,1711685664171875
-37.09,1711685664187500
-42.08,1711685664203125
-49.21,1711685664218750
-57.77,1711685664234375
-66.36,1711685664250000
-73.41,1711685664265625
-77.35,1711685664281250
-76.95,1711685664296875
-71.43,1711685664312500
-60.8,1711685664328125
-45.94,1711685664343750
-28.54,1711685664359375
-10.66,1711685664375000
5.73,1711685664390625
19.27,1711685664406250
29.46,1711685664421875
36.55,1711685664437500
41.23,1711685664453125
44.24,1711685664468750
46.07,1711685664484375
46.92,1711685664500000
46.85,1711685664515625
45.88,1711685664531250
44.21,1711685664546875
42.13,1711685664562500
39.98,1711685664578125
38.03,1711685664593750
36.42,1711685664609375
35.18,1711685664625000
34.22,1711685664640625
33.43,1711685664656250
32.7,1711685664671875
31.87,1711685664687500
30.82,1711685664703125
29.35,1711685664718750
27.18,1711685664734375
24.0,1711685664750000
19.53,1711685664765625
13.71,1711685664781250
6.82,1711685664796875
-0.59,1711685664812500
-7.75,1711685664828125
-14.02,1711685664843750
-19.09,1711685664859375
-23.12,1711685664875000
-26.63,1711685664890625
-30.37,1711685664906250
-35.07,1711685664921875
-41.09,1711685664937500
-48.31,1711685664953125
-55.91,1711685664968750
-62.4,1711685664984375
-65.91,1711685665000000
-64.74,1711685665015625
-57.93,1711685665031250
-45.74,1711685665046875
-29.65,1711685665062500
-11.98,1711685665078125
4.78,1711685665093750
18.7,1711685665109375
28.79,1711685665125000
35.03,1711685665140625
38.17,1711685665156250
39.37,1711685665171875
39.75,1711685665187500
40.07,1711685665203125
40.57,1711685665218750
41.02,1711685665234375
40.91,1711685665250000
39.81,1711685665265625
37.78,1711685665281250
35.35,1711685665296875
33.36,1711685665312500
32.53,1711685665328125
33.06,1711685665343750
34.61,1711685665359375
36.47,1711685665375000
38.01,1711685665390625
38.93,1711685665406250
39.36,1711685665421875
39.56,1711685665437500
39.61,1711685665453125
39.25,1711685665468750
37.93,1711685665484375
35.2,1711685665500000
30.88,1711685665515625
25.26,1711685665531250
18.93,1711685665546875
12.52,1711685665562500
6.42,1711685665578125
0.81,1711685665593750
-4.41,1711685665609375
-9.43,1711685665625000
-14.52,1711685665640625
-20.1,1711685665656250
-26.64,1711685665671875
-34.51,1711685665687500
-43.62,1711685665703125
-53.23,1711685665718750
-61.85,1711685665734375
-67.59,1711685665750000
-68.84,1711685665765625
-64.73,1711685665781250
-55.58,1711685665796875
-42.76,1711685665812500
-28.22,1711685665828125
-13.96,1711685665843750
-1.51,1711685665859375
8.31,1711685665875000
15.29,1711685665890625
19.61,1711685665906250
21.55,1711685665921875
21.44,1711685665937500
19.73,1711685665953125
16.96,1711685665968750
13.88,1711685665984375
11.25,1711685666000000
9.63,1711685666015625
9.23,1711685666031250
9.91,1711685666046875
11.31,1711685666062500
13.04,1711685666078125
14.87,1711685666093750
16.73,1711685666109375
18.59,1711685666125000
20.34,1711685666140625
21.72,1711685666156250
22.39,1711685666171875
22.04,1711685666187500
20.47,1711685666203125
17.64,1711685666218750
13.59,1711685666234375
8.48,1711685666250000
2.57,1711685666265625
-3.76,1711685666281250
-10.07,1711685666296875
-15.92,1711685666312500
-21.01,1711685666328125
-25.3,1711685666343750
-29.01,1711685666359375
-32.62,1711685666375000
-36.7,1711685666390625
-41.73,1711685666406250
-47.91,1711685666421875
-54.95,1711685666437500
-62.12,1711685666453125
-68.2,1711685666468750
-71.79,1711685666484375
-71.59,1711685666500000
-66.76,1711685666515625
-57.24,1711685666531250
-43.83,1711685666546875
-28.03,1711685666562500
-11.7,1711685666578125
3.48,1711685666593750
16.32,1711685666609375
26.29,1711685666625000
33.41,1711685666640625
38.03,1711685666656250
40.57,1711685666671875
41.37,1711685666687500
40.74,1711685666703125
38.95,1711685666718750
36.34,1711685666734375
33.35,1711685666750000
30.44,1711685666765625
28.02,1711685666781250
26.36,1711685666796875
25.53,1711685666812500
25.4,1711685666828125
25.7,1711685666843750
26.15,1711685666859375
26.51,1711685666875000
26.63,1711685666890625
26.32,1711685666906250
25.31,1711685666921875
23.16,1711685666937500
19.48,1711685666953125
14.11,1711685666968750
7.38,1711685666984375
0.09,1711685667000000
-6.74,1711685667015625
-12.29,1711685667031250
-16.24,1711685667046875
-18.92,1711685667062500
-21.15,1711685667078125
-23.81,1711685667093750
-27.55,1711685667109375
-32.45,1711685667125000
-38.0,1711685667140625
-43.14,1711685667156250
-46.61,1711685667171875
-47.2,1711685667187500
-44.11,1711685667203125
-37.17,1711685667218750
-26.86,1711685667234375
-14.17,1711685667250000
-0.32,1711685667265625
13.48,1711685667281250
26.22,1711685667296875
37.2,1711685667312500
46.03,1711685667328125
52.59,1711685667343750
57.0,1711685667359375
59.44,1711685667375000
60.09,1711685667390625
59.08,1711685667406250
56.5,1711685667421875
52.64,1711685667437500
47.98,1711685667453125
43.26,1711685667468750
39.26,1711685667484375
36.56,1711685667500000
35.35,1711685667515625
35.4,1711685667531250
36.23,1711685667546875
37.29,1711685667562500
38.1,1711685667578125
38.35,1711685667593750
37.9,1711685667609375
36.66,1711685667625000
34.55,1711685667640625
31.54,1711685667656250
27.59,1711685667671875
22.79,1711685667687500
17.31,1711685667703125
11.47,1711685667718750
5.6,1711685667734375
-0.06,1711685667750000
-5.51,1711685667765625
-11.04,1711685667781250
-17.17,1711685667796875
-24.41,1711685667812500
-32.97,1711685667828125
-42.51,1711685667843750
-52.01,1711685667859375
-59.97,1711685667875000
-64.77,1711685667890625
-65.12,1711685667906250
-60.55,1711685667921875
-51.53,1711685667937500
-39.34,1711685667953125
-25.71,1711685667968750
-12.31,1711685667984375
-0.39,1711685668000000
9.34,1711685668015625
16.67,1711685668031250
21.62,1711685668046875
24.28,1711685668062500
24.72,1711685668078125
23.11,1711685668093750
19.8,1711685668109375
15.43,1711685668125000
10.89,1711685668140625
7.08,1711685668156250
4.68,1711685668171875
3.89,1711685668187500
4.3,1711685668203125
5.17,1711685668218750
5.64,1711685668234375
5.18,1711685668250000
3.8,1711685668265625
1.94,1711685668281250
0.21,1711685668296875
-1.05,1711685668312500
-2.0,1711685668328125
-3.22,1711685668343750
-5.43,1711685668359375
-9.06,1711685668375000
-13.98,1711685668390625
-19.54,1711685668406250
-24.88,1711685668421875
-29.28,1711685668437500
-32.44,1711685668453125
-34.52,1711685668468750
-35.99,1711685668484375
-37.43,1711685668500000
-39.33,1711685668515625
-42.04,1711685668531250
-45.73,1711685668546875
-50.29,1711685668562500
-55.13,1711685668578125
-59.2,1711685668593750
-60.97,1711685668609375
-58.94,1711685668625000
-52.05,1711685668640625
-40.19,1711685668656250
-24.35,1711685668671875
-6.37,1711685668687500
11.55,1711685668703125
27.52,1711685668718750
40.32,1711685668734375
49.5,1711685668750000
55.22,1711685668765625
57.91,1711685668781250
58.11,1711685668796875
56.38,1711685668812500
53.35,1711685668828125
49.64,1711685668843750
45.82,1711685668859375
42.18,1711685668875000
38.67,1711685668890625
34.98,1711685668906250
30.8,1711685668921875
26.04,1711685668937500
21.04,1711685668953125
16.51,1711685668968750
13.22,1711685668984375
11.63,1711685669000000
11.73,1711685669015625
13.04,1711685669031250
14.8,1711685669046875
16.22,1711685669062500
16.7,1711685669078125
15.88,1711685669093750
13.65,1711685669109375
10.18,1711685669125000
5.92,1711685669140625
1.42,1711685669156250
-2.72,1711685669171875
-6.18,1711685669187500
-9.05,1711685669203125
-11.84,1711685669218750
-15.27,1711685669234375
-20.0,1711685669250000
-26.37,1711685669265625
-34.28,1711685669281250
-43.13,1711685669296875
-51.92,1711685669312500
-59.35,1711685669328125
-64.0,1711685669343750
-64.65,1711685669359375
-60.63,1711685669375000
-52.06,1711685669390625
-39.96,1711685669406250
-25.96,1711685669421875
-11.82,1711685669437500
1.02,1711685669453125
11.71,1711685669468750
20.04,1711685669484375
26.13,1711685669500000
30.22,1711685669515625
32.48,1711685669531250
32.97,1711685669546875
31.73,1711685669562500
28.94,1711685669578125
25.04,1711685669593750
20.64,1711685669609375
16.56,1711685669625000
13.48,1711685669640625
11.85,1711685669656250
11.74,1711685669671875
12.87,1711685669687500
14.78,1711685669703125
17.01,1711685669718750
19.26,1711685669734375
21.32,1711685669750000
22.95,1711685669765625
23.83,1711685669781250
23.54,1711685669796875
21.76,1711685669812500
18.42,1711685669828125
13.85,1711685669843750
8.62,1711685669859375
3.42,1711685669875000
-1.3,1711685669890625
-5.4,1711685669906250
-9.14,1711685669921875
-12.96,1711685669937500
-17.38,1711685669953125
-22.82,1711685669968750
-29.41,1711685669984375
-36.82,1711685670000000
-44.25,1711685670015625
-50.49,1711685670031250
-54.14,1711685670046875
-54.07,1711685670062500
-49.75,1711685670078125
-41.43,1711685670093750
-30.1,1711685670109375
-17.12,1711685670125000
-3.88,1711685670140625
8.5,1711685670156250
19.23,1711685670171875
27.82,1711685670187500
33.95,1711685670203125
37.41,1711685670218750
38.15,1711685670234375
36.42,1711685670250000
32.76,1711685670265625
27.95,1711685670281250
22.79,1711685670296875
17.81,1711685670312500
13.3,1711685670328125
9.28,1711685670343750
5.72,1711685670359375
2.7,1711685670375000
0.4,1711685670390625
-0.94,1711685670406250
-1.3,1711685670421875
-0.92,1711685670437500
-0.25,1711685670453125
0.2,1711685670468750
0.08,1711685670484375
-0.72,1711685670500000
-2.06,1711685670515625
-3.83,1711685670531250
-5.94,1711685670546875
-8.44,1711685670562500
-11.41,1711685670578125
-14.99,1711685670593750
-19.21,1711685670609375
-24.16,1711685670625000
-29.96,1711685670640625
-36.81,1711685670656250
-44.88,1711685670671875
-54.11,1711685670687500
-64.02,1711685670703125
-73.56,1711685670718750
-81.27,1711685670734375
-85.47,1711685670750000
-84.88,1711685670765625
-78.87,1711685670781250
-67.77,1711685670796875
-52.7,1711685670812500
-35.33,1711685670828125
-17.36,1711685670843750
-0.27,1711685670859375
14.89,1711685670875000
27.44,1711685670890625
37.07,1711685670906250
43.74,1711685670921875
47.72,1711685670937500
49.53,1711685670953125
49.87,1711685670968750
49.42,1711685670984375
48.64,1711685671000000
47.7,1711685671015625
46.49,1711685671031250
44.75,1711685671046875
42.36,1711685671062500
39.42,1711685671078125
36.28,1711685671093750
33.44,1711685671109375
31.31,1711685671125000
30.05,1711685671140625
29.42,1711685671156250
28.97,1711685671171875
28.06,1711685671187500
26.14,1711685671203125
22.86,1711685671218750
18.17,1711685671234375
12.31,1711685671250000
5.7,1711685671265625
-1.17,1711685671281250
-8.02,1711685671296875
-14.75,1711685671312500
-21.57,1711685671328125
-28.79,1711685671343750
-36.67,1711685671359375
-45.27,1711685671375000
-54.31,1711685671390625
-63.22,1711685671406250
-71.09,1711685671421875
-76.79,1711685671437500
-79.16,1711685671453125
-77.23,1711685671468750
-70.56,1711685671484375
-59.49,1711685671500000
-45.15,1711685671515625
-29.3,1711685671531250
-13.82,1711685671546875
-0.25,1711685671562500
10.45,1711685671578125
18.02,1711685671593750
22.69,1711685671609375
24.96,1711685671625000
25.39,1711685671640625
24.46,1711685671656250
22.55,1711685671671875
19.92,1711685671687500
16.76,1711685671703125
13.22,1711685671718750
9.45,1711685671734375
5.61,1711685671750000
1.94,1711685671765625
-1.21,1711685671781250
-3.51,1711685671796875
-4.7,1711685671812500
-4.75,1711685671828125
-3.81,1711685671843750
-2.35,1711685671859375
-0.93,1711685671875000
-0.15,1711685671890625
-0.44,1711685671906250
-1.96,1711685671921875
-4.53,1711685671937500
-7.69,1711685671953125
-10.8,1711685671968750
-13.32,1711685671984375
-14.99,1711685672000000
-15.99,1711685672015625
-16.86,1711685672031250
-18.33,1711685672046875
-20.97,1711685672062500
-24.9,1711685672078125
-29.73,1711685672093750
-34.54,1711685672109375
-38.21,1711685672125000
-39.62,1711685672140625
-37.85,1711685672156250
-32.47,1711685672171875
-23.55,1711685672187500
-11.81,1711685672203125
1.59,1711685672218750
15.18,1711685672234375
27.6,1711685672250000
37.85,1711685672265625
45.51,1711685672281250
50.62,1711685672296875
53.53,1711685672312500
54.53,1711685672328125
53.74,1711685672343750
51.15,1711685672359375
46.8,1711685672375000
40.98,1711685672390625
34.31,1711685672406250
27.6,1711685672421875
21.66,1711685672437500
17.01,1711685672453125
13.84,1711685672468750
12.08,1711685672484375
11.52,1711685672500000
11.97,1711685672515625
13.3,1711685672531250
15.39,1711685672546875
17.93,1711685672562500
20.38,1711685672578125
22.07,1711685672593750
22.37,1711685672609375
20.99,1711685672625000
18.05,1711685672640625
14.05,1711685672656250
9.71,1711685672671875
5.58,1711685672687500
1.87,1711685672703125
-1.55,1711685672718750
-5.12,1711685672734375
-9.26,1711685672750000
-14.3,1711685672765625
-20.25,1711685672781250
-26.89,1711685672796875
-33.69,1711685672812500
-39.79,1711685672828125
-44.12,1711685672843750
-45.58,1711685672859375
-43.31,1711685672875000
-37.04,1711685672890625
-27.24,1711685672906250
-15.09,1711685672921875
-2.1,1711685672937500
10.19,1711685672953125
20.57,1711685672968750
28.3,1711685672984375
33.11,1711685673000000
35.12,1711685673015625
34.7,1711685673031250
32.37,1711685673046875
28.75,1711685673062500
24.46,1711685673078125
20.0,1711685673093750
15.67,1711685673109375
11.58,1711685673125000
7.8,1711685673140625
4.43,1711685673156250
1.69,1711685673171875
-0.15,1711685673187500
-0.95,1711685673203125
-0.78,1711685673218750
-0.03,1711685673234375
0.78,1711685673250000
1.13,1711685673265625
0.72,1711685673281250
-0.53,1711685673296875
-2.53,1711685673312500
-5.1,1711685673328125
-8.06,1711685673343750
-11.2,1711685673359375
-14.38,1711685673375000
-17.42,1711685673390625
-20.26,1711685673406250
-23.0,1711685673421875
-25.92,1711685673437500
-29.49,1711685673453125
-34.16,1711685673468750
-40.06,1711685673484375
-46.7,1711685673500000
-52.9,1711685673515625
-56.9,1711685673531250
-56.89,1711685673546875
-51.68,1711685673562500
-41.26,1711685673578125
-26.96,1711685673593750
-11.1,1711685673609375
3.83,1711685673625000
16.01,1711685673640625
24.72,1711685673656250
30.33,1711685673671875
33.66,1711685673687500
35.43,1711685673703125
35.86,1711685673718750
34.74,1711685673734375
31.86,1711685673750000
27.3,1711685673765625
21.63,1711685673781250
15.71,1711685673796875
10.49,1711685673812500
6.67,1711685673828125
4.58,1711685673843750
4.23,1711685673859375
5.32,1711685673875000
7.43,1711685673890625
9.99,1711685673906250
12.28,1711685673921875
13.58,1711685673937500
13.29,1711685673953125
11.11,1711685673968750
7.17,1711685673984375
2.07,1711685674000000
-3.35,1711685674015625
-8.28,1711685674031250
-12.21,1711685674046875
-15.14,1711685674062500
-17.58,1711685674078125
-20.31,1711685674093750
-24.12,1711685674109375
-29.39,1711685674125000
-35.93,1711685674140625
-42.88,1711685674156250
-48.9,1711685674171875
-52.42,1711685674187500
-52.08,1711685674203125
-47.12,1711685674218750
-37.62,1711685674234375
-24.61,1711685674250000
-9.8,1711685674265625
4.92,1711685674281250
17.89,1711685674296875
28.11,1711685674312500
35.26,1711685674328125
39.61,1711685674343750
41.68,1711685674359375
41.99,1711685674375000
40.99,1711685674390625
38.96,1711685674406250
36.16,1711685674421875
32.82,1711685674437500
29.18,1711685674453125
25.45,1711685674468750
21.79,1711685674484375
18.39,1711685674500000
15.46,1711685674515625
13.2,1711685674531250
11.72,1711685674546875
10.91,1711685674562500
10.47,1711685674578125
9.93,1711685674593750
8.89,1711685674609375
7.09,1711685674625000
4.48,1711685674640625
1.13,1711685674656250
-2.85,1711685674671875
-7.38,1711685674687500
-12.38,1711685674703125
-17.7,1711685674718750
-23.11,1711685674734375
-28.43,1711685674750000
-33.67,1711685674765625
-38.99,1711685674781250
-44.64,1711685674796875
-50.55,1711685674812500
-56.2,1711685674828125
-60.51,1711685674843750
-62.21,1711685674859375
-60.24,1711685674875000
-54.16,1711685674890625
-44.34,1711685674906250
-31.84,1711685674921875
-18.1,1711685674937500
-4.58,1711685674953125
7.51,1711685674968750
17.36,1711685674984375
24.58,1711685675000000
29.2,1711685675015625
31.47,1711685675031250
31.79,1711685675046875
30.6,1711685675062500
28.32,1711685675078125
25.39,1711685675093750
22.25,1711685675109375
19.44,1711685675125000
17.42,1711685675140625
16.48,1711685675156250
16.67,1711685675171875
17.68,1711685675187500
19.07,1711685675203125
20.29,1711685675218750
20.98,1711685675234375
20.92,1711685675250000
20.12,1711685675265625
18.67,1711685675281250
16.76,1711685675296875
14.5,1711685675312500
11.93,1711685675328125
9.02,1711685675343750
5.69,1711685675359375
1.83,1711685675375000
-2.71,1711685675390625
-8.07,1711685675406250
-14.44,1711685675421875
-21.94,1711685675437500
-30.52,1711685675453125
-39.81,1711685675468750
-48.88,1711685675484375
-56.42,1711685675500000
-60.86,1711685675515625
-60.89,1711685675531250
-55.85,1711685675546875
-46.08,1711685675562500
-32.93,1711685675578125
-18.44,1711685675593750
-4.77,1711685675609375
6.41,1711685675625000
14.34,1711685675640625
19.21,1711685675656250
21.83,1711685675671875
23.17,1711685675687500
23.85,1711685675703125
23.98,1711685675718750
23.35,1711685675734375
21.72,1711685675750000
19.17,1711685675765625
16.13,1711685675781250
13.29,1711685675796875
11.23,1711685675812500
10.22,1711685675828125
10.15,1711685675843750
10.73,1711685675859375
11.67,1711685675875000
12.76,1711685675890625
13.86,1711685675906250
14.78,1711685675921875
15.28,1711685675937500
15.02,1711685675953125
13.81,1711685675968750
11.67,1711685675984375
8.77,1711685676000000
5.38,1711685676015625
1.66,1711685676031250
-2.36,1711685676046875
-6.89,1711685676062500
-12.16,1711685676078125
-18.44,1711685676093750
-25.73,1711685676109375
-33.69,1711685676125000
-41.44,1711685676140625
-47.62,1711685676156250
-50.64,1711685676171875
-49.09,1711685676187500
-42.4,1711685676203125
-31.1,1711685676218750
-16.89,1711685676234375
-2.14,1711685676250000
10.86,1711685676265625
20.63,1711685676281250
26.84,1711685676296875
30.13,1711685676312500
31.52,1711685676328125
31.8,1711685676343750
31.24,1711685676359375
29.64,1711685676375000
26.83,1711685676390625
22.98,1711685676406250
18.72,1711685676421875
15.0,1711685676437500
12.59,1711685676453125
11.8,1711685676468750
12.39,1711685676484375
13.75,1711685676500000
15.13,1711685676515625
15.96,1711685676531250
15.94,1711685676546875
15.07,1711685676562500
13.54,1711685676578125
11.58,1711685676593750
9.42,1711685676609375
7.23,1711685676625000
5.04,1711685676640625
2.79,1711685676656250
0.34,1711685676671875
-2.47,1711685676687500
-5.84,1711685676703125
-9.95,1711685676718750
-14.95,1711685676734375
-20.87,1711685676750000
-27.44,1711685676765625
-33.99,1711685676781250
-39.53,1711685676796875
-42.83,1711685676812500
-42.92,1711685676828125
-39.26,1711685676843750
-32.0,1711685676859375
-21.91,1711685676875000
-10.19,1711685676890625
1.81,1711685676906250
12.83,1711685676921875
21.94,1711685676937500
28.62,1711685676953125
32.74,1711685676968750
34.58,1711685676984375
34.64,1711685677000000
33.52,1711685677015625
31.73,1711685677031250
29.62,1711685677046875
27.39,1711685677062500
25.19,1711685677078125
23.26,1711685677093750
21.89,1711685677109375
21.38,1711685677125000
21.9,1711685677140625
23.31,1711685677156250
25.24,1711685677171875
27.11,1711685677187500
28.31,1711685677203125
28.33,1711685677218750
26.89,1711685677234375
23.9,1711685677250000
19.51,1711685677265625
14.11,1711685677281250
8.25,1711685677296875
2.5,1711685677312500
-2.66,1711685677328125
-7.02,1711685677343750
-10.79,1711685677359375
-14.46,1711685677375000
-18.67,1711685677390625
-23.82,1711685677406250
-29.85,1711685677421875
-36.08,1711685677437500
-41.35,1711685677453125
-44.27,1711685677468750
-43.7,1711685677484375
-39.15,1711685677500000
-30.96,1711685677515625
-20.35,1711685677531250
-9.04,1711685677546875
1.29,1711685677562500
9.47,1711685677578125
15.11,1711685677593750
18.5,1711685677609375
20.23,1711685677625000
20.84,1711685677640625
20.46,1711685677656250
18.85,1711685677671875
15.7,1711685677687500
10.85,1711685677703125
4.63,1711685677718750
-2.21,1711685677734375
-8.66,1711685677750000
-13.91,1711685677765625
-17.54,1711685677781250
-19.67,1711685677796875
-20.84,1711685677812500
-21.73,1711685677828125
-22.89,1711685677843750
-24.55,1711685677859375
-26.68,1711685677875000
-29.11,1711685677890625
-31.76,1711685677906250
-34.7,1711685677921875
-38.12,1711685677937500
-42.13,1711685677953125
-46.62,1711685677968750
-51.32,1711685677984375
-56.0,1711685678000000
-60.63,1711685678015625
-65.44,1711685678031250
-70.71,1711685678046875
-76.38,1711685678062500
-81.96,1711685678078125
-86.58,1711685678093750
-89.57,1711685678109375
-91.1,1711685678125000
-92.35,1711685678140625
-95.01,1711685678156250
-100.13,1711685678171875
-106.87,1711685678187500
-112.07,1711685678203125
-110.89,1711685678218750
-98.48,1711685678234375
-71.83,1711685678250000
-30.92,1711685678265625
21.22,1711685678281250
79.48,1711685678296875
138.0,1711685678312500
191.36,1711685678328125
235.13,1711685678343750
266.06,1711685678359375
282.22,1711685678375000
283.16,1711685678390625
270.0,1711685678406250
245.34,1711685678421875
212.63,1711685678437500
175.24,1711685678453125
135.64,1711685678468750
95.14,1711685678484375
54.15,1711685678500000
12.95,1711685678515625
-27.64,1711685678531250
-65.86,1711685678546875
-99.12,1711685678562500
-124.68,1711685678578125
-140.43,1711685678593750
-145.56,1711685678609375
-141.0,1711685678625000
-129.16,1711685678640625
-113.35,1711685678656250
-97.01,1711685678671875
-82.86,1711685678687500
-72.34,1711685678703125
-65.46,1711685678718750
-61.01,1711685678734375
-57.2,1711685678750000
-52.22,1711685678765625
-44.85,1711685678781250
-34.52,1711685678796875
-21.36,1711685678812500
-5.93,1711685678828125
10.92,1711685678843750
28.13,1711685678859375
44.6,1711685678875000
59.42,1711685678890625
72.08,1711685678906250
82.69,1711685678921875
91.76,1711685678937500
99.86,1711685678953125
107.21,1711685678968750
113.37,1711685678984375
117.42,1711685679000000
118.51,1711685679015625
116.46,1711685679031250
112.03,1711685679046875
106.71,1711685679062500
102.11,1711685679078125
99.27,1711685679093750
98.21,1711685679109375
97.97,1711685679125000
97.03,1711685679140625
93.96,1711685679156250
87.97,1711685679171875
79.22,1711685679187500
68.68,1711685679203125
57.72,1711685679218750
47.57,1711685679234375
38.97,1711685679250000
32.1,1711685679265625
26.85,1711685679281250
23.06,1711685679296875
20.61,1711685679312500
19.31,1711685679328125
18.63,1711685679343750
17.7,1711685679359375
15.51,1711685679375000
11.48,1711685679390625
5.83,1711685679406250
-0.28,1711685679421875
-5.24,1711685679437500
-7.65,1711685679453125
-6.88,1711685679468750
-3.43,1711685679484375
1.39,1711685679500000
5.89,1711685679515625
8.76,1711685679531250
9.35,1711685679546875
7.73,1711685679562500
4.44,1711685679578125
0.16,1711685679593750
-4.65,1711685679609375
-9.72,1711685679625000
-15.05,1711685679640625
-20.82,1711685679656250
-27.34,1711685679671875
-35.06,1711685679687500
-44.43,1711685679703125
-55.6,1711685679718750
-68.17,1711685679734375
-81.04,1711685679750000
-92.57,1711685679765625
-101.06,1711685679781250
-105.26,1711685679796875
-104.7,1711685679812500
-99.75,1711685679828125
-91.33,1711685679843750
-80.62,1711685679859375
-68.81,1711685679875000
-57.02,1711685679890625
-46.23,1711685679906250
-37.18,1711685679921875
-30.23,1711685679937500
-25.24,1711685679953125
-21.83,1711685679968750
-19.59,1711685679984375
-18.44,1711685680000000
-18.74,1711685680015625
-21.15,1711685680031250
-26.29,1711685680046875
-34.56,1711685680062500
-45.96,1711685680078125
-59.91,1711685680093750
-75.34,1711685680109375
-90.56,1711685680125000
-103.42,1711685680140625
-111.75,1711685680156250
-113.98,1711685680171875
-109.75,1711685680187500
-100.25,1711685680203125
-87.95,1711685680218750
-75.86,1711685680234375
-66.55,1711685680250000
-61.34,1711685680265625
-60.14,1711685680281250
-61.83,1711685680296875
-65.05,1711685680312500
-68.84,1711685680328125
-72.77,1711685680343750
-76.78,1711685680359375
-80.73,1711685680375000
-84.15,1711685680390625
-86.31,1711685680406250
-86.44,1711685680421875
-83.81,1711685680437500
-77.62,1711685680453125
-66.83,1711685680468750
-50.09,1711685680484375
-26.31,1711685680500000
4.63,1711685680515625
41.07,1711685680531250
79.6,1711685680546875
115.67,1711685680562500
144.98,1711685680578125
164.82,1711685680593750
174.59,1711685680609375
175.47,1711685680625000
169.62,1711685680640625
159.23,1711685680656250
146.12,1711685680671875
131.71,1711685680687500
117.32,1711685680703125
104.11,1711685680718750
92.97,1711685680734375
83.98,1711685680750000
76.52,1711685680765625
69.45,1711685680781250
61.99,1711685680796875
54.07,1711685680812500
46.62,1711685680828125
41.06,1711685680843750
38.52,1711685680859375
39.22,1711685680875000
42.35,1711685680890625
46.51,1711685680906250
50.4,1711685680921875
53.37,1711685680937500
55.61,1711685680953125
57.63,1711685680968750
59.77,1711685680984375
61.71,1711685681000000
62.69,1711685681015625
61.92,1711685681031250
59.28,1711685681046875
55.5,1711685681062500
51.59,1711685681078125
48.11,1711685681093750
44.41,1711685681109375
38.83,1711685681125000
29.54,1711685681140625
15.98,1711685681156250
-0.46,1711685681171875
-16.55,1711685681187500
-28.49,1711685681203125
-33.39,1711685681218750
-30.18,1711685681234375
-19.49,1711685681250000
-2.72,1711685681265625
18.7,1711685681281250
43.65,1711685681296875
70.66,1711685681312500
97.29,1711685681328125
120.1,1711685681343750
135.61,1711685681359375
141.76,1711685681375000
139.04,1711685681390625
130.42,1711685681406250
119.98,1711685681421875
111.11,1711685681437500
105.05,1711685681453125
100.78,1711685681468750
96.02,1711685681484375
88.65,1711685681500000
77.87,1711685681515625
64.28,1711685681531250
49.23,1711685681546875
33.99,1711685681562500
19.19,1711685681578125
4.88,1711685681593750
-9.05,1711685681609375
-22.6,1711685681625000
-35.57,1711685681640625
-47.83,1711685681656250
-59.53,1711685681671875
-71.13,1711685681687500
-83.16,1711685681703125
-95.74,1711685681718750
-108.45,1711685681734375
-120.31,1711685681750000
-130.18,1711685681765625
-137.12,1711685681781250
-140.78,1711685681796875
-141.49,1711685681812500
-140.02,1711685681828125
-137.28,1711685681843750
-133.92,1711685681859375
-130.15,1711685681875000
-125.86,1711685681890625
-120.77,1711685681906250
-114.78,1711685681921875
-108.05,1711685681937500
-100.98,1711685681953125
-94.08,1711685681968750
-87.69,1711685681984375
-82.04,1711685682000000
-77.23,1711685682015625
-73.37,1711685682031250
-70.55,1711685682046875
-68.81,1711685682062500
-68.01,1711685682078125
-67.83,1711685682093750
-67.87,1711685682109375
-67.94,1711685682125000
-68.17,1711685682140625
-68.94,1711685682156250
-70.59,1711685682171875
-73.08,1711685682187500
-75.76,1711685682203125
-77.62,1711685682218750
-77.53,1711685682234375
-74.76,1711685682250000
-69.09,1711685682265625
-60.8,1711685682281250
-50.58,1711685682296875
-39.24,1711685682312500
-27.69,1711685682328125
-16.89,1711685682343750
-7.8,1711685682359375
-1.16,1711685682375000
2.63,1711685682390625
3.63,1711685682406250
2.35,1711685682421875
-0.4,1711685682437500
-3.73,1711685682453125
-6.83,1711685682468750
-9.07,1711685682484375
-10.06,1711685682500000
-9.78,1711685682515625
-8.55,1711685682531250
-6.92,1711685682546875
-5.51,1711685682562500
-4.68,1711685682578125
-4.45,1711685682593750
-4.53,1711685682609375
-4.53,1711685682625000
-4.23,1711685682640625
-3.69,1711685682656250
-3.14,1711685682671875
-2.84,1711685682687500
-2.92,1711685682703125
-3.49,1711685682718750
-4.61,1711685682734375
-6.46,1711685682750000
-9.14,1711685682765625
-12.63,1711685682781250
-16.66,1711685682796875
-20.85,1711685682812500
-24.91,1711685682828125
-28.89,1711685682843750
-33.16,1711685682859375
-38.05,1711685682875000
-43.5,1711685682890625
-48.76,1711685682906250
-52.57,1711685682921875
-53.58,1711685682937500
-50.99,1711685682953125
-44.84,1711685682968750
-35.95,1711685682984375
-25.54,1711685683000000
-14.8,1711685683015625
-4.65,1711685683031250
4.35,1711685683046875
11.83,1711685683062500
17.49,1711685683078125
21.16,1711685683093750
22.76,1711685683109375
22.52,1711685683125000
20.88,1711685683140625
18.46,1711685683156250
15.84,1711685683171875
13.52,1711685683187500
11.86,1711685683203125
11.12,1711685683218750
11.37,1711685683234375
12.56,1711685683250000
14.57,1711685683265625
17.22,1711685683281250
20.37,1711685683296875
23.77,1711685683312500
27.05,1711685683328125
29.68,1711685683343750
31.06,1711685683359375
30.75,1711685683375000
28.67,1711685683390625
25.16,1711685683406250
20.9,1711685683421875
16.62,1711685683437500
12.76,1711685683453125
9.4,1711685683468750
6.19,1711685683484375
2.49,1711685683500000
-2.35,1711685683515625
-8.84,1711685683531250
-17.1,1711685683546875
-26.74,1711685683562500
-36.76,1711685683578125
-45.64,1711685683593750
-51.61,1711685683609375
-53.14,1711685683625000
-49.44,1711685683640625
-40.77,1711685683656250
-28.36,1711685683671875
-14.11,1711685683687500
0.05,1711685683703125
12.55,1711685683718750
22.54,1711685683734375
29.86,1711685683750000
34.8,1711685683765625
37.85,1711685683781250
39.42,1711685683796875
39.75,1711685683812500
38.95,1711685683828125
37.17,1711685683843750
34.68,1711685683859375
31.94,1711685683875000
29.46,1711685683890625
27.64,1711685683906250
26.66,1711685683921875
26.38,1711685683937500
26.53,1711685683953125
26.88,1711685683968750
27.3,1711685683984375
27.81,1711685684000000
28.37,1711685684015625
28.74,1711685684031250
28.49,1711685684046875
27.13,1711685684062500
24.44,1711685684078125
20.55,1711685684093750
16.01,1711685684109375
11.47,1711685684125000
7.41,1711685684140625
3.94,1711685684156250
0.68,1711685684171875
-3.01,1711685684187500
-7.81,1711685684203125
-14.09,1711685684218750
-21.83,1711685684234375
-30.37,1711685684250000
-38.63,1711685684265625
-45.24,1711685684281250
-48.84,1711685684296875
-48.4,1711685684312500
-43.55,1711685684328125
-34.63,1711685684343750
-22.67,1711685684359375
-9.1,1711685684375000
4.54,1711685684390625
16.93,1711685684406250
27.21,1711685684421875
35.0,1711685684437500
40.42,1711685684453125
43.8,1711685684468750
45.57,1711685684484375
46.03,1711685684500000
45.37,1711685684515625
43.76,1711685684531250
41.47,1711685684546875
38.91,1711685684562500
36.61,1711685684578125
35.0,1711685684593750
34.28,1711685684609375
34.42,1711685684625000
35.14,1711685684640625
36.14,1711685684656250
37.2,1711685684671875
38.19,1711685684687500
39.04,1711685684703125
39.57,1711685684718750
39.48,1711685684734375
38.35,1711685684750000
35.84,1711685684765625
31.86,1711685684781250
26.69,1711685684796875
20.93,1711685684812500
15.27,1711685684828125
10.27,1711685684843750
6.06,1711685684859375
2.32,1711685684875000
-1.61,1711685684890625
-6.44,1711685684906250
-12.63,1711685684921875
-20.08,1711685684937500
-28.05,1711685684953125
-35.29,1711685684968750
-40.33,1711685684984375
-41.89,1711685685000000
-39.27,1711685685015625
-32.58,1711685685031250
-22.67,1711685685046875
-10.93,1711685685062500
1.12,1711685685078125
12.24,1711685685093750
21.61,1711685685109375
28.88,1711685685125000
33.98,1711685685140625
37.04,1711685685156250
38.21,1711685685171875
37.7,1711685685187500
35.81,1711685685203125
32.96,1711685685218750
29.65,1711685685234375
26.38,1711685685250000
23.58,1711685685265625
21.53,1711685685281250
20.33,1711685685296875
19.87,1711685685312500
19.92,1711685685328125
20.2,1711685685343750
20.54,1711685685359375
20.93,1711685685375000
21.45,1711685685390625
22.11,1711685685406250
22.75,1711685685421875
22.94,1711685685437500
22.2,1711685685453125
20.21,1711685685468750
17.06,1711685685484375
13.25,1711685685500000
9.43,1711685685515625
6.13,1711685685531250
3.5,1711685685546875
1.27,1711685685562500
-1.05,1711685685578125
-3.98,1711685685593750
-7.94,1711685685609375
-13.12,1711685685625000
-19.38,1711685685640625
-26.1,1711685685656250
-32.26,1711685685671875
-36.52,1711685685687500
-37.72,1711685685703125
-35.26,1711685685718750
-29.36,1711685685734375
-20.94,1711685685750000
-11.26,1711685685765625
-1.45,1711685685781250
7.7,1711685685796875
15.77,1711685685812500
22.48,1711685685828125
27.54,1711685685843750
30.68,1711685685859375
31.78,1711685685875000
30.96,1711685685890625
28.55,1711685685906250
24.91,1711685685921875
20.32,1711685685937500
14.96,1711685685953125
9.01,1711685685968750
2.9,1711685685984375
-2.7,1711685686000000
-6.94,1711685686015625
-9.02,1711685686031250
-8.36,1711685686046875
-4.75,1711685686062500
1.57,1711685686078125
10.02,1711685686093750
19.68,1711685686109375
29.51,1711685686125000
38.38,1711685686140625
45.36,1711685686156250
49.8,1711685686171875
51.55,1711685686187500
50.9,1711685686203125
48.5,1711685686218750
45.15,1711685686234375
41.42,1711685686250000
37.44,1711685686265625
32.81,1711685686281250
26.71,1711685686296875
18.24,1711685686312500
6.91,1711685686328125
-7.02,1711685686343750
-22.33,1711685686359375
-37.07,1711685686375000
-49.03,1711685686390625
-56.31,1711685686406250
-57.88,1711685686421875
-53.8,1711685686437500
-45.19,1711685686453125
-33.78,1711685686468750
-21.47,1711685686484375
-9.94,1711685686500000
-0.39,1711685686515625
6.4,1711685686531250
10.07,1711685686546875
10.59,1711685686562500
8.32,1711685686578125
4.03,1711685686593750
-1.25,1711685686609375
-6.5,1711685686625000
-11.07,1711685686640625
-14.84,1711685686656250
-18.19,1711685686671875
-21.6,1711685686687500
-25.34,1711685686703125
-29.31,1711685686718750
-33.17,1711685686734375
-36.63,1711685686750000
-39.78,1711685686765625
-43.09,1711685686781250
-47.26,1711685686796875
-52.83,1711685686812500
-59.89,1711685686828125
-68.07,1711685686843750
-76.71,1711685686859375
-85.18,1711685686875000
-93.11,1711685686890625
-100.48,1711685686906250
-107.44,1711685686921875
-114.35,1711685686937500
-121.67,1711685686953125
-129.97,1711685686968750
-139.94,1711685686984375
-151.95,1711685687000000
-165.69,1711685687015625
-179.71,1711685687031250
-191.43,1711685687046875
-197.67,1711685687062500
-195.61,1711685687078125
-183.75,1711685687093750
-162.35,1711685687109375
-133.25,1711685687125000
-98.89,1711685687140625
-61.46,1711685687156250
-22.46,1711685687171875
17.17,1711685687187500
56.42,1711685687203125
93.73,1711685687218750
126.96,1711685687234375
153.76,1711685687250000
172.41,1711685687265625
182.38,1711685687281250
184.61,1711685687296875
181.26,1711685687312500
174.96,1711685687328125
167.88,1711685687343750
160.9,1711685687359375
153.4,1711685687375000
143.48,1711685687390625
128.86,1711685687406250
107.8,1711685687421875
79.77,1711685687437500
45.61,1711685687453125
7.19,1711685687468750
-32.84,1711685687484375
-71.3,1711685687500000
-104.44,1711685687515625
-128.27,1711685687531250
-139.2,1711685687546875
-135.15,1711685687562500
-116.49,1711685687578125
-86.13,1711685687593750
-48.75,1711685687609375
-9.2,1711685687625000
29.13,1711685687640625
65.17,1711685687656250
99.94,1711685687671875
135.36,1711685687687500
172.58,1711685687703125
210.99,1711685687718750
248.06,1711685687734375
280.43,1711685687750000
305.26,1711685687765625
321.19,1711685687781250
328.28,1711685687796875
327.09,1711685687812500
317.74,1711685687828125
299.79,1711685687843750
273.15,1711685687859375
239.49,1711685687875000
203.04,1711685687890625
169.94,1711685687906250
146.23,1711685687921875
135.48,1711685687937500
137.28,1711685687953125
147.43,1711685687968750
159.58,1711685687984375
167.48,1711685688000000
166.63,1711685688015625
154.86,1711685688031250
132.09,1711685688046875
99.58,1711685688062500
59.61,1711685688078125
15.28,1711685688093750
-29.43,1711685688109375
-70.32,1711685688125000
-103.97,1711685688140625
-129.19,1711685688156250
-147.6,1711685688171875
-162.93,1711685688187500
-179.45,1711685688203125
-199.63,1711685688218750
-222.84,1711685688234375
-245.63,1711685688250000
-263.33,1711685688265625
-272.1,1711685688281250
-270.39,1711685688296875
-258.96,1711685688312500
-239.81,1711685688328125
-215.22,1711685688343750
-187.31,1711685688359375
-158.4,1711685688375000
-131.47,1711685688390625
-109.75,1711685688406250
-95.22,1711685688421875
-87.05,1711685688437500
-81.5,1711685688453125
-73.75,1711685688468750
-60.49,1711685688484375
-41.86,1711685688500000
-21.12,1711685688515625
-2.61,1711685688531250
10.77,1711685688546875
18.75,1711685688562500
23.14,1711685688578125
26.14,1711685688593750
28.95,1711685688609375
31.49,1711685688625000
33.31,1711685688640625
34.31,1711685688656250
34.88,1711685688671875
35.26,1711685688687500
34.89,1711685688703125
32.55,1711685688718750
27.35,1711685688734375
19.45,1711685688750000
9.9,1711685688765625
-0.36,1711685688781250
-11.76,1711685688796875
-26.09,1711685688812500
-45.15,1711685688828125
-69.12,1711685688843750
-95.77,1711685688859375
-121.05,1711685688875000
-140.9,1711685688890625
-153.08,1711685688906250
-157.96,1711685688921875
-157.61,1711685688937500
-154.16,1711685688953125
-148.29,1711685688968750
-138.71,1711685688984375
-122.96,1711685689000000
-98.83,1711685689015625
-65.45,1711685689031250
-23.35,1711685689046875
26.17,1711685689062500
81.59,1711685689078125
140.97,1711685689093750
200.98,1711685689109375
256.21,1711685689125000
299.6,1711685689140625
324.31,1711685689156250
326.05,1711685689171875
304.88,1711685689187500
264.86,1711685689203125
212.1,1711685689218750
152.24,1711685689234375
89.01,1711685689250000
24.4,1711685689265625
-39.9,1711685689281250
-100.91,1711685689296875
-154.11,1711685689312500
-194.52,1711685689328125
-218.66,1711685689343750
-226.13,1711685689359375
-219.89,1711685689375000
-205.14,1711685689390625
-187.37,1711685689406250
-170.62,1711685689421875
-156.4,1711685689437500
-143.95,1711685689453125
-131.47,1711685689468750
-117.48,1711685689484375
-101.82,1711685689500000
-85.66,1711685689515625
-70.7,1711685689531250
-57.96,1711685689546875
-46.96,1711685689562500
-35.67,1711685689578125
-21.46,1711685689593750
-2.57,1711685689609375
20.65,1711685689625000
45.65,1711685689640625
68.53,1711685689656250
85.86,1711685689671875
96.26,1711685689687500
101.13,1711685689703125
103.83,1711685689718750
108.06,1711685689734375
116.02,1711685689750000
127.66,1711685689765625
141.06,1711685689781250
153.99,1711685689796875
165.43,1711685689812500
176.16,1711685689828125
188.27,1711685689843750
203.94,1711685689859375
224.28,1711685689875000
248.74,1711685689890625
275.14,1711685689906250
300.19,1711685689921875
320.1,1711685689937500
331.23,1711685689953125
330.88,1711685689968750
317.99,1711685689984375
293.57,1711685690000000
260.48,1711685690015625
222.58,1711685690031250
183.47,1711685690046875
145.39,1711685690062500
108.83,1711685690078125
72.85,1711685690093750
36.08,1711685690109375
-2.18,1711685690125000
-41.35,1711685690140625
-79.58,1711685690156250
-114.32,1711685690171875
-143.19,1711685690187500
-164.67,1711685690203125
-178.44,1711685690218750
-185.34,1711685690234375
-187.14,1711685690250000
-186.25,1711685690265625
-185.35,1711685690281250
-187.05,1711685690296875
-193.29,1711685690312500
-204.55,1711685690328125
-219.38,1711685690343750
-234.48,1711685690359375
-245.62,1711685690375000
-249.19,1711685690390625
-243.63,1711685690406250
-229.94,1711685690421875
-211.24,1711685690437500
-191.32,1711685690453125
-173.17,1711685690468750
-158.23,1711685690484375
-146.45,1711685690500000
-137.02,1711685690515625
-129.14,1711685690531250
-122.28,1711685690546875
-115.96,1711685690562500
-109.39,1711685690578125
-101.46,1711685690593750
-91.14,1711685690609375
-78.19,1711685690625000
-63.65,1711685690640625
-49.57,1711685690656250
-38.13,1711685690671875
-30.51,1711685690687500
-26.3,1711685690703125
-23.77,1711685690718750
-20.84,1711685690734375
-16.23,1711685690750000
-10.1,1711685690765625
-3.7,1711685690781250
1.45,1711685690796875
4.46,1711685690812500
5.48,1711685690828125
5.44,1711685690843750
5.31,1711685690859375
5.52,1711685690875000
5.71,1711685690890625
5.02,1711685690906250
2.66,1711685690921875
-1.61,1711685690937500
-7.27,1711685690953125
-13.07,1711685690968750
-17.3,1711685690984375
-18.3,1711685691000000
-14.88,1711685691015625
-6.8,1711685691031250
5.12,1711685691046875
19.03,1711685691062500
32.64,1711685691078125
43.76,1711685691093750
51.1,1711685691109375
54.56,1711685691125000
55.13,1711685691140625
54.3,1711685691156250
53.29,1711685691171875
52.44,1711685691187500
51.17,1711685691203125
48.4,1711685691218750
43.36,1711685691234375
36.16,1711685691250000
27.91,1711685691265625
20.22,1711685691281250
14.5,1711685691296875
11.21,1711685691312500
9.75,1711685691328125
8.69,1711685691343750
6.45,1711685691359375
1.95,1711685691375000
-4.95,1711685691390625
-13.48,1711685691406250
-22.37,1711685691421875
-30.41,1711685691437500
-36.87,1711685691453125
-41.87,1711685691468750
-46.27,1711685691484375
-51.62,1711685691500000
-60.11,1711685691515625
-74.7,1711685691531250
-98.68,1711685691546875
-134.72,1711685691562500
-183.14,1711685691578125
-240.42,1711685691593750
-298.92,1711685691609375
-348.45,1711685691625000
-379.4,1711685691640625
-385.99,1711685691656250
-368.0,1711685691671875
-330.04,1711685691687500
-279.05,1711685691703125
-221.45,1711685691718750
-161.67,1711685691734375
-102.47,1711685691750000
-46.4,1711685691765625
3.21,1711685691781250
42.58,1711685691796875
69.03,1711685691812500
82.56,1711685691828125
86.35,1711685691843750
85.65,1711685691859375
85.84,1711685691875000
90.65,1711685691890625
101.35,1711685691906250
117.1,1711685691921875
136.0,1711685691937500
156.13,1711685691953125
176.18,1711685691968750
195.47,1711685691984375
213.59,1711685692000000
230.04,1711685692015625
243.93,1711685692031250
254.15,1711685692046875
259.68,1711685692062500
260.03,1711685692078125
255.57,1711685692093750
247.45,1711685692109375
237.26,1711685692125000
226.37,1711685692140625
215.52,1711685692156250
204.6,1711685692171875
192.98,1711685692187500
179.93,1711685692203125
165.17,1711685692218750
149.04,1711685692234375
132.34,1711685692250000
116.04,1711685692265625
100.87,1711685692281250
87.13,1711685692296875
74.68,1711685692312500
63.24,1711685692328125
52.62,1711685692343750
42.96,1711685692359375
34.65,1711685692375000
28.16,1711685692390625
23.74,1711685692406250
21.29,1711685692421875
20.28,1711685692437500
19.85,1711685692453125
18.81,1711685692468750
15.84,1711685692484375
9.86,1711685692500000
0.46,1711685692515625
-11.55,1711685692531250
-23.99,1711685692546875
-33.66,1711685692562500
-37.13,1711685692578125
-31.98,1711685692593750
-17.71,1711685692609375
3.82,1711685692625000
28.6,1711685692640625
51.35,1711685692656250
66.62,1711685692671875
70.13,1711685692687500
59.82,1711685692703125
36.63,1711685692718750
4.55,1711685692734375
-30.2,1711685692750000
-60.69,1711685692765625
-81.2,1711685692781250
-88.71,1711685692796875
-83.47,1711685692812500
-68.36,1711685692828125
-47.6,1711685692843750
-25.26,1711685692859375
-4.43,1711685692875000
12.96,1711685692890625
25.79,1711685692906250
33.47,1711685692921875
35.91,1711685692937500
33.8,1711685692953125
28.65,1711685692968750
22.56,1711685692984375
17.45,1711685693000000
14.37,1711685693015625
13.13,1711685693031250
12.65,1711685693046875
11.64,1711685693062500
9.32,1711685693078125
5.72,1711685693093750
1.49,1711685693109375
-2.64,1711685693125000
-6.35,1711685693140625
-9.83,1711685693156250
-13.55,1711685693171875
-17.85,1711685693187500
-22.73,1711685693203125
-27.92,1711685693218750
-33.17,1711685693234375
-38.48,1711685693250000
-43.96,1711685693265625
-49.69,1711685693281250
-55.35,1711685693296875
-60.28,1711685693312500
-63.85,1711685693328125
-65.85,1711685693343750
-66.75,1711685693359375
-67.55,1711685693375000
-69.13,1711685693390625
-71.67,1711685693406250
-74.28,1711685693421875
-75.23,1711685693437500
-72.6,1711685693453125
-65.12,1711685693468750
-52.67,1711685693484375
-36.44,1711685693500000
-18.5,1711685693515625
-1.16,1711685693531250
14.06,1711685693546875
27.08,1711685693562500
39.5,1711685693578125
53.87,1711685693593750
72.42,1711685693609375
95.66,1711685693625000
121.63,1711685693640625
146.59,1711685693656250
166.44,1711685693671875
178.63,1711685693687500
182.97,1711685693703125
181.23,1711685693718750
175.73,1711685693734375
167.82,1711685693750000
157.54,1711685693765625
144.32,1711685693781250
128.37,1711685693796875
111.15,1711685693812500
94.83,1711685693828125
80.74,1711685693843750
68.32,1711685693859375
55.39,1711685693875000
39.54,1711685693890625
19.81,1711685693906250
-2.63,1711685693921875
-25.27,1711685693937500
-46.11,1711685693953125
-65.01,1711685693968750
-83.87,1711685693984375
-105.37,1711685694000000
-131.2,1711685694015625
-160.87,1711685694031250
-191.77,1711685694046875
-220.4,1711685694062500
-243.77,1711685694078125
-260.36,1711685694093750
-270.11,1711685694109375
-274.0,1711685694125000
-273.34,1711685694140625
-269.35,1711685694156250
-262.98,1711685694171875
-254.62,1711685694187500
-244.09,1711685694203125
-230.61,1711685694218750
-213.05,1711685694234375
-190.47,1711685694250000
-162.66,1711685694265625
-130.51,1711685694281250
-95.91,1711685694296875
-61.29,1711685694312500
-28.89,1711685694328125
-0.41,1711685694343750
23.17,1711685694359375
41.32,1711685694375000
53.67,1711685694390625
59.96,1711685694406250
60.26,1711685694421875
55.27,1711685694437500
46.39,1711685694453125
35.58,1711685694468750
24.83,1711685694484375
15.79,1711685694500000
9.69,1711685694515625
7.49,1711685694531250
10.15,1711685694546875
18.53,1711685694562500
33.06,1711685694578125
53.06,1711685694593750
76.45,1711685694609375
99.94,1711685694625000
119.79,1711685694640625
132.91,1711685694656250
137.64,1711685694671875
134.09,1711685694687500
123.78,1711685694703125
108.87,1711685694718750
91.56,1711685694734375
73.77,1711685694750000
57.2,1711685694765625
43.65,1711685694781250
34.96,1711685694796875
32.72,1711685694812500
37.65,1711685694828125
49.22,1711685694843750
65.72,1711685694859375
84.84,1711685694875000
104.43,1711685694890625
122.98,1711685694906250
139.71,1711685694921875
154.14,1711685694937500
165.64,1711685694953125
173.4,1711685694968750
176.65,1711685694984375
175.44,1711685695000000
170.96,1711685695015625
165.42,1711685695031250
161.18,1711685695046875
159.78,1711685695062500
161.01,1711685695078125
162.84,1711685695093750
162.07,1711685695109375
155.52,1711685695125000
141.09,1711685695140625
118.51,1711685695156250
89.18,1711685695171875
55.45,1711685695187500
19.64,1711685695203125
-16.87,1711685695218750
-53.86,1711685695234375
-92.08,1711685695250000
-132.54,1711685695265625
-175.94,1711685695281250
-222.28,1711685695296875
-270.84,1711685695312500
-320.33,1711685695328125
-368.85,1711685695343750
-413.95,1711685695359375
-452.73,1711685695375000
-482.0,1711685695390625
-499.0,1711685695406250
-502.07,1711685695421875
-491.17,1711685695437500
-467.92,1711685695453125
-435.13,1711685695468750
-396.0,1711685695484375
-353.42,1711685695500000
-309.5,1711685695515625
-265.49,1711685695531250
-221.91,1711685695546875
-178.75,1711685695562500
-135.52,1711685695578125
-91.39,1711685695593750
-45.09,1711685695609375
4.84,1711685695625000
59.3,1711685695640625
117.73,1711685695656250
177.31,1711685695671875
232.93,1711685695687500
278.42,1711685695703125
308.64,1711685695718750
321.56,1711685695734375
319.12,1711685695750000
306.45,1711685695765625
289.83,1711685695781250
274.38,1711685695796875
262.65,1711685695812500
254.61,1711685695828125
248.68,1711685695843750
243.04,1711685695859375
236.39,1711685695875000
228.17,1711685695890625
218.29,1711685695906250
207.1,1711685695921875
195.22,1711685695937500
183.66,1711685695953125
173.51,1711685695968750
165.61,1711685695984375
160.09,1711685696000000
156.31,1711685696015625
153.19,1711685696031250
149.59,1711685696046875
144.9,1711685696062500
139.44,1711685696078125
134.6,1711685696093750
132.44,1711685696109375
134.99,1711685696125000
143.24,1711685696140625
156.35,1711685696156250
171.57,1711685696171875
184.88,1711685696187500
192.23,1711685696203125
190.82,1711685696218750
179.85,1711685696234375
160.39,1711685696250000
134.7,1711685696265625
105.32,1711685696281250
74.45,1711685696296875
43.71,1711685696312500
14.15,1711685696328125
-13.76,1711685696343750
-40.21,1711685696359375
-66.09,1711685696375000
-92.74,1711685696390625
-121.25,1711685696406250
-151.82,1711685696421875
-183.36,1711685696437500
-213.72,1711685696453125
-240.39,1711685696468750
-261.4,1711685696484375
-275.88,1711685696500000
-284.21,1711685696515625
-287.62,1711685696531250
-287.51,1711685696546875
-285.11,1711685696562500
-281.25,1711685696578125
-276.43,1711685696593750
-270.93,1711685696609375
-264.85,1711685696625000
-258.2,1711685696640625
-250.9,1711685696656250
-243.0,1711685696671875
-234.82,1711685696687500
-226.86,1711685696703125
-219.44,1711685696718750
-212.41,1711685696734375
-204.85,1711685696750000
-195.39,1711685696765625
-182.69,1711685696781250
-166.08,1711685696796875
-146.0,1711685696812500
-123.9,1711685696828125
-101.85,1711685696843750
-81.8,1711685696859375
-64.99,1711685696875000
-51.77,1711685696890625
-41.71,1711685696906250
-34.22,1711685696921875
-28.92,1711685696937500
-25.86,1711685696953125
-25.19,1711685696968750
-26.78,1711685696984375
-29.65,1711685697000000
-32.15,1711685697015625
-32.44,1711685697031250
-29.24,1711685697046875
-22.39,1711685697062500
-12.91,1711685697078125
-2.45,1711685697093750
7.34,1711685697109375
15.24,1711685697125000
20.62,1711685697140625
23.23,1711685697156250
23.07,1711685697171875
20.28,1711685697187500
15.28,1711685697203125
8.83,1711685697218750
1.77,1711685697234375
-5.35,1711685697250000
-12.46,1711685697265625
-20.2,1711685697281250
-29.57,1711685697296875
-41.41,1711685697312500
-55.92,1711685697328125
-72.3,1711685697343750
-88.62,1711685697359375
-102.33,1711685697375000
-110.84,1711685697390625
-112.35,1711685697406250
-106.33,1711685697421875
-93.67,1711685697437500
-76.24,1711685697453125
-56.21,1711685697468750
-35.46,1711685697484375
-15.33,1711685697500000
3.15,1711685697515625
18.93,1711685697531250
30.91,1711685697546875
38.23,1711685697562500
40.76,1711685697578125
39.42,1711685697593750
35.96,1711685697609375
32.29,1711685697625000
29.69,1711685697640625
28.5,1711685697656250
28.35,1711685697671875
28.78,1711685697687500
29.67,1711685697703125
31.23,1711685697718750
33.65,1711685697734375
36.63,1711685697750000
39.39,1711685697765625
40.93,1711685697781250
40.61,1711685697796875
38.47,1711685697812500
35.06,1711685697828125
31.06,1711685697843750
26.82,1711685697859375
22.27,1711685697875000
17.06,1711685697890625
10.76,1711685697906250
3.04,1711685697921875
-6.46,1711685697937500
-18.0,1711685697953125
-31.53,1711685697968750
-46.26,1711685697984375
-60.38,1711685698000000
-71.26,1711685698015625
-76.08,1711685698031250
-72.8,1711685698046875
-60.9,1711685698062500
-41.68,1711685698078125
-17.91,1711685698093750
6.94,1711685698109375
29.67,1711685698125000
48.08,1711685698140625
61.35,1711685698156250
70.01,1711685698171875
75.34,1711685698187500
78.78,1711685698203125
81.19,1711685698218750
82.74,1711685698234375
83.08,1711685698250000
82.01,1711685698265625
79.89,1711685698281250
77.79,1711685698296875
77.03,1711685698312500
78.51,1711685698328125
82.14,1711685698343750
86.91,1711685698359375
91.41,1711685698375000
94.42,1711685698390625
95.47,1711685698406250
94.76,1711685698421875
92.79,1711685698437500
89.94,1711685698453125
86.19,1711685698468750
81.3,1711685698484375
75.0,1711685698500000
67.23,1711685698515625
58.12,1711685698531250
47.78,1711685698546875
36.04,1711685698562500
22.49,1711685698578125
6.78,1711685698593750
-10.82,1711685698609375
-28.92,1711685698625000
-44.93,1711685698640625
-55.54,1711685698656250
-57.73,1711685698671875
-49.9,1711685698687500
-32.54,1711685698703125
-8.2,1711685698718750
19.29,1711685698734375
46.12,1711685698750000
69.39,1711685698765625
87.58,1711685698781250
100.34,1711685698796875
107.9,1711685698812500
110.7,1711685698828125
109.26,1711685698843750
104.39,1711685698859375
97.29,1711685698875000
89.44,1711685698890625
82.18,1711685698906250
76.23,1711685698921875
71.57,1711685698937500
67.75,1711685698953125
64.28,1711685698968750
61.07,1711685698984375
58.48,1711685699000000
56.99,1711685699015625
56.73,1711685699031250
57.24,1711685699046875
57.51,1711685699062500
56.37,1711685699078125
52.94,1711685699093750
46.97,1711685699109375
38.77,1711685699125000
28.98,1711685699140625
18.25,1711685699156250
6.97,1711685699171875
-4.83,1711685699187500
-17.36,1711685699203125
-30.76,1711685699218750
-44.77,1711685699234375
-58.39,1711685699250000
-69.93,1711685699265625
-77.22,1711685699281250
-78.31,1711685699296875
-72.05,1711685699312500
-58.57,1711685699328125
-39.37,1711685699343750
-16.86,1711685699359375
6.16,1711685699375000
27.31,1711685699390625
44.92,1711685699406250
58.24,1711685699421875
67.23,1711685699437500
72.31,1711685699453125
74.16,1711685699468750
73.56,1711685699484375
71.34,1711685699500000
68.24,1711685699515625
64.84,1711685699531250
61.49,1711685699546875
58.38,1711685699562500
55.66,1711685699578125
53.54,1711685699593750
52.34,1711685699609375
52.28,1711685699625000
53.37,1711685699640625
55.16,1711685699656250
56.9,1711685699671875
57.68,1711685699687500
56.78,1711685699703125
53.93,1711685699718750
49.24,1711685699734375
43.21,1711685699750000
36.42,1711685699765625
29.41,1711685699781250
22.6,1711685699796875
16.1,1711685699812500
9.72,1711685699828125
2.92,1711685699843750
-4.88,1711685699859375
-13.89,1711685699875000
-23.53,1711685699890625
-32.31,1711685699906250
-38.19,1711685699921875
-39.31,1711685699937500
-34.69,1711685699953125
-24.62,1711685699968750
-10.49,1711685699984375
5.78,1711685700000000
22.35,1711685700015625
37.88,1711685700031250
51.57,1711685700046875
63.04,1711685700062500
72.15,1711685700078125
78.9,1711685700093750
83.41,1711685700109375
85.87,1711685700125000
86.39,1711685700140625
84.93,1711685700156250
81.38,1711685700171875
75.81,1711685700187500
68.75,1711685700203125
61.25,1711685700218750
54.63,1711685700234375
50.0,1711685700250000
47.73,1711685700265625
47.31,1711685700281250
47.57,1711685700296875
47.2,1711685700312500
45.24,1711685700328125
41.25,1711685700343750
35.3,1711685700359375
27.69,1711685700375000
18.79,1711685700390625
9.06,1711685700406250
-0.9,1711685700421875
-10.4,1711685700437500
-18.77,1711685700453125
-25.72,1711685700468750
-31.58,1711685700484375
-37.33,1711685700500000
-44.12,1711685700515625
-52.76,1711685700531250
-63.11,1711685700546875
-73.92,1711685700562500
-83.14,1711685700578125
-88.42,1711685700593750
-87.98,1711685700609375
-81.08,1711685700625000
-68.28,1711685700640625
-51.31,1711685700656250
-32.66,1711685700671875
-14.84,1711685700687500
0.15,1711685700703125
11.29,1711685700718750
18.66,1711685700734375
23.07,1711685700750000
25.67,1711685700765625
27.39,1711685700781250
28.76,1711685700796875
29.83,1711685700812500
30.49,1711685700828125
30.68,1711685700843750
30.47,1711685700859375
30.14,1711685700875000
29.96,1711685700890625
30.14,1711685700906250
30.75,1711685700921875
31.69,1711685700937500
32.74,1711685700953125
33.53,1711685700968750
33.71,1711685700984375
32.96,1711685701000000
31.16,1711685701015625
28.29,1711685701031250
24.44,1711685701046875
19.69,1711685701062500
14.13,1711685701078125
7.94,1711685701093750
1.45,1711685701109375
-4.98,1711685701125000
-11.08,1711685701140625
-16.79,1711685701156250
-22.42,1711685701171875
-28.51,1711685701187500
-35.63,1711685701203125
-44.2,1711685701218750
-54.13,1711685701234375
-64.76,1711685701250000
-74.73,1711685701265625
-82.22,1711685701281250
-85.32,1711685701296875
-82.6,1711685701312500
-73.69,1711685701328125
-59.51,1711685701343750
-42.05,1711685701359375
-23.77,1711685701375000
-6.89,1711685701390625
7.15,1711685701406250
17.87,1711685701421875
25.55,1711685701437500
30.82,1711685701453125
34.32,1711685701468750
36.46,1711685701484375
37.39,1711685701500000
37.14,1711685701515625
35.76,1711685701531250
33.57,1711685701546875
31.21,1711685701562500
29.46,1711685701578125
28.98,1711685701593750
29.92,1711685701609375
31.74,1711685701625000
33.43,1711685701640625
33.99,1711685701656250
32.91,1711685701671875
30.44,1711685701687500
27.4,1711685701703125
24.67,1711685701718750
22.6,1711685701734375
20.89,1711685701750000
18.7,1711685701765625
15.26,1711685701781250
10.32,1711685701796875
4.32,1711685701812500
-1.85,1711685701828125
-7.33,1711685701843750
-11.72,1711685701859375
-15.26,1711685701875000
-18.73,1711685701890625
-23.13,1711685701906250
-29.32,1711685701921875
-37.76,1711685701937500
-48.27,1711685701953125
-59.98,1711685701968750
-71.34,1711685701984375
-80.41,1711685702000000
-85.31,1711685702015625
-84.74,1711685702031250
-78.33,1711685702046875
-66.76,1711685702062500
-51.55,1711685702078125
-34.6,1711685702093750
-17.83,1711685702109375
-2.85,1711685702125000
9.11,1711685702140625
17.29,1711685702156250
21.42,1711685702171875
21.86,1711685702187500
19.57,1711685702203125
15.93,1711685702218750
12.42,1711685702234375
10.17,1711685702250000
9.59,1711685702265625
10.32,1711685702281250
11.63,1711685702296875
12.73,1711685702312500
13.27,1711685702328125
13.46,1711685702343750
13.86,1711685702359375
15.02,1711685702375000
17.05,1711685702390625
19.49,1711685702406250
21.47,1711685702421875
21.98,1711685702437500
20.44,1711685702453125
16.81,1711685702468750
11.66,1711685702484375
5.87,1711685702500000
0.27,1711685702515625
-4.62,1711685702531250
-8.78,1711685702546875
-12.6,1711685702562500
-16.69,1711685702578125
-21.65,1711685702593750
-27.85,1711685702609375
-35.36,1711685702625000
-43.94,1711685702640625
-53.13,1711685702656250
-62.29,1711685702671875
-70.6,1711685702687500
-77.08,1711685702703125
-80.7,1711685702718750
-80.57,1711685702734375
-76.25,1711685702750000
-67.84,1711685702765625
-56.19,1711685702781250
-42.59,1711685702796875
-28.55,1711685702812500
-15.42,1711685702828125
-4.12,1711685702843750
4.92,1711685702859375
11.57,1711685702875000
15.95,1711685702890625
18.18,1711685702906250
18.51,1711685702921875
17.24,1711685702937500
14.92,1711685702953125
12.21,1711685702968750
9.85,1711685702984375
8.35,1711685703000000
7.88,1711685703015625
8.21,1711685703031250
8.85,1711685703046875
9.34,1711685703062500
9.33,1711685703078125
8.75,1711685703093750
7.65,1711685703109375
6.07,1711685703125000
3.87,1711685703140625
0.86,1711685703156250
-3.15,1711685703171875
-8.08,1711685703187500
-13.58,1711685703203125
-19.11,1711685703218750
-24.08,1711685703234375
-28.11,1711685703250000
-31.18,1711685703265625
-33.67,1711685703281250
-36.27,1711685703296875
-39.87,1711685703312500
-45.31,1711685703328125
-52.99,1711685703343750
-62.58,1711685703359375
-72.92,1711685703375000
-82.15,1711685703390625
-88.24,1711685703406250
-89.6,1711685703421875
-85.56,1711685703437500
-76.49,1711685703453125
-63.54,1711685703468750
-48.26,1711685703484375
-32.19,1711685703500000
-16.61,1711685703515625
-2.57,1711685703531250
9.16,1711685703546875
18.05,1711685703562500
23.93,1711685703578125
26.99,1711685703593750
27.85,1711685703609375
27.34,1711685703625000
26.34,1711685703640625
25.56,1711685703656250
25.34,1711685703671875
25.74,1711685703687500
26.53,1711685703703125
27.37,1711685703718750
28.04,1711685703734375
28.45,1711685703750000
28.71,1711685703765625
28.94,1711685703781250
29.17,1711685703796875
29.2,1711685703812500
28.67,1711685703828125
27.23,1711685703843750
24.62,1711685703859375
20.85,1711685703875000
16.1,1711685703890625
10.71,1711685703906250
5.08,1711685703921875
-0.42,1711685703937500
-5.54,1711685703953125
-10.27,1711685703968750
-14.9,1711685703984375
-19.91,1711685704000000
-25.77,1711685704015625
-32.59,1711685704031250
-39.92,1711685704046875
-46.61,1711685704062500
-51.08,1711685704078125
-51.82,1711685704093750
-47.75,1711685704109375
-38.67,1711685704125000
-25.28,1711685704140625
-9.0,1711685704156250
8.3,1711685704171875
24.73,1711685704187500
38.68,1711685704203125
49.08,1711685704218750
55.53,1711685704234375
58.29,1711685704250000
58.11,1711685704265625
55.99,1711685704281250
52.9,1711685704296875
49.51,1711685704312500
46.17,1711685704328125
42.89,1711685704343750
39.54,1711685704359375
35.98,1711685704375000
32.22,1711685704390625
28.36,1711685704406250
24.56,1711685704421875
21.02,1711685704437500
17.93,1711685704453125
15.43,1711685704468750
13.61,1711685704484375
12.32,1711685704500000
11.15,1711685704515625
9.44,1711685704531250
6.48,1711685704546875
1.85,1711685704562500
-4.37,1711685704578125
-11.54,1711685704593750
-18.7,1711685704609375
-24.96,1711685704625000
-29.88,1711685704640625
-33.61,1711685704656250
-36.81,1711685704671875
-40.31,1711685704687500
-44.8,1711685704703125
-50.53,1711685704718750
-57.25,1711685704734375
-64.16,1711685704750000
-70.06,1711685704765625
-73.5,1711685704781250
-73.19,1711685704796875
-68.29,1711685704812500
-58.81,1711685704828125
-45.63,1711685704843750
-30.34,1711685704859375
-14.78,1711685704875000
-0.65,1711685704890625
10.85,1711685704906250
19.17,1711685704921875
24.33,1711685704937500
26.79,1711685704953125
27.22,1711685704968750
26.37,1711685704984375
24.82,1711685705000000
22.98,1711685705015625
21.05,1711685705031250
19.1,1711685705046875
17.2,1711685705062500
15.45,1711685705078125
14.03,1711685705093750
13.11,1711685705109375
12.8,1711685705125000
13.08,1711685705140625
13.78,1711685705156250
14.67,1711685705171875
15.47,1711685705187500
15.89,1711685705203125
15.7,1711685705218750
14.77,1711685705234375
13.06,1711685705250000
10.63,1711685705265625
7.61,1711685705281250
4.13,1711685705296875
0.4,1711685705312500
-3.46,1711685705328125
-7.32,1711685705343750
-11.18,1711685705359375
-15.19,1711685705375000
-19.58,1711685705390625
-24.5,1711685705406250
-29.81,1711685705421875
-34.89,1711685705437500
-38.77,1711685705453125
-40.38,1711685705468750
-38.99,1711685705484375
-34.52,1711685705500000
-27.52,1711685705515625
-18.97,1711685705531250
-9.91,1711685705546875
-1.1,1711685705562500
6.97,1711685705578125
13.99,1711685705593750
19.62,1711685705609375
23.38,1711685705625000
24.84,1711685705640625
23.87,1711685705656250
20.83,1711685705671875
16.57,1711685705687500
12.09,1711685705703125
8.21,1711685705718750
5.28,1711685705734375
3.21,1711685705750000
1.72,1711685705765625
0.62,1711685705781250
0.1,1711685705796875
0.57,1711685705812500
2.38,1711685705828125
5.51,1711685705843750
9.36,1711685705859375
12.94,1711685705875000
15.24,1711685705890625
15.68,1711685705906250
14.25,1711685705921875
11.43,1711685705937500
7.93,1711685705953125
4.28,1711685705968750
0.77,1711685705984375
-2.66,1711685706000000
-6.23,1711685706015625
-10.19,1711685706031250
-14.76,1711685706046875
-20.05,1711685706062500
-26.01,1711685706078125
-32.39,1711685706093750
-38.57,1711685706109375
-43.63,1711685706125000
-46.53,1711685706140625
-46.39,1711685706156250
-42.77,1711685706171875
-35.82,1711685706187500
-26.23,1711685706203125
-15.1,1711685706218750
-3.7,1711685706234375
6.68,1711685706250000
14.97,1711685706265625
20.45,1711685706281250
22.89,1711685706296875
22.6,1711685706312500
20.24,1711685706328125
16.64,1711685706343750
12.48,1711685706359375
8.15,1711685706375000
3.84,1711685706390625
-0.33,1711685706406250
-3.99,1711685706421875
-6.58,1711685706437500
-7.56,1711685706453125
-6.72,1711685706468750
-4.43,1711685706484375
-1.55,1711685706500000
0.89,1711685706515625
2.09,1711685706531250
1.77,1711685706546875
0.15,1711685706562500
-2.21,1711685706578125
-4.72,1711685706593750
-7.0,1711685706609375
-8.93,1711685706625000
-10.61,1711685706640625
-12.23,1711685706656250
-14.02,1711685706671875
-16.24,1711685706687500
-19.21,1711685706703125
-23.19,1711685706718750
-28.19,1711685706734375
-33.79,1711685706750000
-39.04,1711685706765625
-42.63,1711685706781250
-43.22,1711685706796875
-39.85,1711685706812500
-32.27,1711685706828125
-21.15,1711685706843750
-7.85,1711685706859375
5.75,1711685706875000
17.81,1711685706890625
26.85,1711685706906250
32.2,1711685706921875
34.05,1711685706937500
33.27,1711685706953125
31.08,1711685706968750
28.5,1711685706984375
26.07,1711685707000000
23.84,1711685707015625
21.61,1711685707031250
19.22,1711685707046875
16.84,1711685707062500
14.85,1711685707078125
13.69,1711685707093750
13.53,1711685707109375
14.18,1711685707125000
15.05,1711685707140625
15.42,1711685707156250
14.6,1711685707171875
12.14,1711685707187500
7.93,1711685707203125
2.22,1711685707218750
-4.37,1711685707234375
-10.99,1711685707250000
-16.81,1711685707265625
-21.35,1711685707281250
-24.65,1711685707296875
-27.31,1711685707312500
-30.22,1711685707328125
-34.11,1711685707343750
-39.2,1711685707359375
-45.05,1711685707375000
-50.69,1711685707390625
-55.0,1711685707406250
-57.04,1711685707421875
-56.29,1711685707437500
-52.59,1711685707453125
-45.98,1711685707468750
-36.55,1711685707484375
-24.52,1711685707500000
-10.45,1711685707515625
4.63,1711685707531250
19.18,1711685707546875
31.49,1711685707562500
40.13,1711685707578125
44.4,1711685707593750
44.55,1711685707609375
41.63,1711685707625000
37.11,1711685707640625
32.36,1711685707656250
28.37,1711685707671875
25.55,1711685707687500
23.79,1711685707703125
22.72,1711685707718750
21.94,1711685707734375
21.1,1711685707750000
20.0,1711685707765625
18.48,1711685707781250
16.47,1711685707796875
13.98,1711685707812500
11.13,1711685707828125
8.19,1711685707843750
5.41,1711685707859375
2.86,1711685707875000
0.38,1711685707890625
-2.34,1711685707906250
-5.6,1711685707921875
-9.54,1711685707937500
-14.1,1711685707953125
-19.16,1711685707968750
-24.69,1711685707984375
-30.75,1711685708000000
-37.16,1711685708015625
-43.36,1711685708031250
-48.15,1711685708046875
-50.04,1711685708062500
-47.79,1711685708078125
-41.0,1711685708093750
-30.32,1711685708109375
-17.34,1711685708125000
-3.98,1711685708140625
8.15,1711685708156250
18.01,1711685708171875
25.22,1711685708187500
29.84,1711685708203125
32.1,1711685708218750
32.28,1711685708234375
30.68,1711685708250000
27.67,1711685708265625
23.67,1711685708281250
19.16,1711685708296875
14.7,1711685708312500
10.82,1711685708328125
7.99,1711685708343750
6.55,1711685708359375
6.56,1711685708375000
7.74,1711685708390625
9.59,1711685708406250
11.42,1711685708421875
12.69,1711685708437500
13.14,1711685708453125
12.86,1711685708468750
12.18,1711685708484375
11.41,1711685708500000
10.67,1711685708515625
9.76,1711685708531250
8.23,1711685708546875
5.67,1711685708562500
1.89,1711685708578125
-3.02,1711685708593750
-8.68,1711685708609375
-14.6,1711685708625000
-20.35,1711685708640625
-25.47,1711685708656250
-29.44,1711685708671875
-31.63,1711685708687500
-31.31,1711685708703125
-27.91,1711685708718750
-21.27,1711685708734375
-11.89,1711685708750000
-0.9,1711685708765625
10.17,1711685708781250
19.73,1711685708796875
26.56,1711685708812500
30.06,1711685708828125
30.37,1711685708843750
28.25,1711685708859375
24.82,1711685708875000
21.2,1711685708890625
18.21,1711685708906250
16.16,1711685708921875
14.89,1711685708937500
13.96,1711685708953125
12.89,1711685708968750
11.44,1711685708984375
9.59,1711685709000000
7.56,1711685709015625
5.65,1711685709031250
4.04,1711685709046875
2.75,1711685709062500
1.61,1711685709078125
0.33,1711685709093750
-1.43,1711685709109375
-3.9,1711685709125000
-7.14,1711685709140625
-11.03,1711685709156250
-15.3,1711685709171875
-19.69,1711685709187500
-24.09,1711685709203125
-28.58,1711685709218750
-33.4,1711685709234375
-38.63,1711685709250000
-43.98,1711685709265625
-48.6,1711685709281250
-51.25,1711685709296875
-50.68,1711685709312500
-46.1,1711685709328125
-37.6,1711685709343750
-26.14,1711685709359375
-13.32,1711685709375000
-0.85,1711685709390625
9.88,1711685709406250
18.08,1711685709421875
23.59,1711685709437500
26.64,1711685709453125
27.71,1711685709468750
27.22,1711685709484375
25.53,1711685709500000
22.96,1711685709515625
19.84,1711685709531250
16.66,1711685709546875
13.96,1711685709562500
12.2,1711685709578125
11.57,1711685709593750
11.93,1711685709609375
12.72,1711685709625000
13.31,1711685709640625
13.13,1711685709656250
11.97,1711685709671875
9.95,1711685709687500
7.45,1711685709703125
4.89,1711685709718750
2.54,1711685709734375
0.45,1711685709750000
-1.57,1711685709765625
-3.77,1711685709781250
-6.46,1711685709796875
-9.9,1711685709812500
-14.37,1711685709828125
-20.05,1711685709843750
-26.91,1711685709859375
-34.6,1711685709875000
-42.22,1711685709890625
-48.46,1711685709906250
-51.82,1711685709921875
-51.13,1711685709937500
-45.91,1711685709953125
-36.63,1711685709968750
-24.59,1711685709984375
-11.59,1711685710000000
0.65,1711685710015625
10.82,1711685710031250
18.26,1711685710046875
22.95,1711685710062500
25.27,1711685710078125
25.84,1711685710093750
25.25,1711685710109375
23.97,1711685710125000
22.4,1711685710140625
20.74,1711685710156250
19.14,1711685710171875
17.68,1711685710187500
16.46,1711685710203125
15.52,1711685710218750
14.88,1711685710234375
14.5,1711685710250000
14.28,1711685710265625
14.09,1711685710281250
13.79,1711685710296875
13.26,1711685710312500
12.37,1711685710328125
11.0,1711685710343750
9.02,1711685710359375
6.33,1711685710375000
2.98,1711685710390625
-0.9,1711685710406250
-5.09,1711685710421875
-9.41,1711685710437500
-13.81,1711685710453125
-18.42,1711685710468750
-23.4,1711685710484375
-28.85,1711685710500000
-34.46,1711685710515625
-39.49,1711685710531250
-42.83,1711685710546875
-43.34,1711685710562500
-40.21,1711685710578125
-33.29,1711685710593750
-23.3,1711685710609375
-11.61,1711685710625000
0.07,1711685710640625
10.22,1711685710656250
17.89,1711685710671875
22.86,1711685710687500
25.56,1711685710703125
26.7,1711685710718750
27.0,1711685710734375
26.89,1711685710750000
26.59,1711685710765625
26.12,1711685710781250
25.51,1711685710796875
24.86,1711685710812500
24.28,1711685710828125
23.86,1711685710843750
23.57,1711685710859375
23.32,1711685710875000
23.02,1711685710890625
22.64,1711685710906250
22.2,1711685710921875
21.69,1711685710937500
21.0,1711685710953125
19.97,1711685710968750
18.35,1711685710984375
15.98,1711685711000000
12.88,1711685711015625
9.23,1711685711031250
5.3,1711685711046875
1.38,1711685711062500
-2.36,1711685711078125
-5.89,1711685711093750
-9.42,1711685711109375
-13.23,1711685711125000
-17.62,1711685711140625
-22.68,1711685711156250
-28.18,1711685711171875
-33.44,1711685711187500
-37.44,1711685711203125
-39.11,1711685711218750
-37.54,1711685711234375
-32.44,1711685711250000
-24.2,1711685711265625
-13.91,1711685711281250
-2.98,1711685711296875
7.2,1711685711312500
15.61,1711685711328125
21.78,1711685711343750
25.72,1711685711359375
27.78,1711685711375000
28.44,1711685711390625
28.2,1711685711406250
27.48,1711685711421875
26.64,1711685711437500
25.94,1711685711453125
25.53,1711685711468750
25.43,1711685711484375
25.51,1711685711500000
25.54,1711685711515625
25.32,1711685711531250
24.73,1711685711546875
23.77,1711685711562500
22.62,1711685711578125
21.37,1711685711593750
20.11,1711685711609375
18.7,1711685711625000
16.9,1711685711640625
14.49,1711685711656250
11.37,1711685711671875
7.71,1711685711687500
3.78,1711685711703125
-0.1,1711685711718750
-3.74,1711685711734375
-7.17,1711685711750000
-10.54,1711685711765625
-14.04,1711685711781250
-17.81,1711685711796875
-21.89,1711685711812500
-26.2,1711685711828125
-30.53,1711685711843750
-34.35,1711685711859375
-36.96,1711685711875000
-37.45,1711685711890625
-34.98,1711685711906250
-29.13,1711685711921875
-20.06,1711685711937500
-8.68,1711685711953125
3.64,1711685711968750
15.4,1711685711984375
25.32,1711685712000000
32.6,1711685712015625
36.94,1711685712031250
38.42,1711685712046875
37.32,1711685712062500
34.17,1711685712078125
29.54,1711685712093750
24.16,1711685712109375
18.79,1711685712125000
14.14,1711685712140625
10.69,1711685712156250
8.63,1711685712171875
7.89,1711685712187500
8.22,1711685712203125
9.35,1711685712218750
10.99,1711685712234375
12.9,1711685712250000
14.71,1711685712265625
16.0,1711685712281250
16.32,1711685712296875
15.36,1711685712312500
13.12,1711685712328125
9.85,1711685712343750
6.06,1711685712359375
2.27,1711685712375000
-1.18,1711685712390625
-4.2,1711685712406250
-6.91,1711685712421875
-9.62,1711685712437500
-12.7,1711685712453125
-16.49,1711685712468750
-21.22,1711685712484375
-26.85,1711685712500000
-32.89,1711685712515625
-38.37,1711685712531250
-42.05,1711685712546875
-42.77,1711685712562500
-39.92,1711685712578125
-33.71,1711685712593750
-25.11,1711685712609375
-15.54,1711685712625000
-6.32,1711685712640625
1.64,1711685712656250
7.97,1711685712671875
12.71,1711685712687500
16.08,1711685712703125
18.28,1711685712718750
19.47,1711685712734375
19.77,1711685712750000
19.41,1711685712765625
18.7,1711685712781250
18.0,1711685712796875
17.63,1711685712812500
17.74,1711685712828125
18.27,1711685712843750
18.93,1711685712859375
19.36,1711685712875000
19.3,1711685712890625
18.66,1711685712906250
17.63,1711685712921875
16.5,1711685712937500
15.53,1711685712953125
14.72,1711685712968750
13.82,1711685712984375
12.41,1711685713000000
10.19,1711685713015625
7.12,1711685713031250
3.51,1711685713046875
-0.13,1711685713062500
-3.31,1711685713078125
-5.78,1711685713093750
-7.64,1711685713109375
-9.33,1711685713125000
-11.56,1711685713140625
-15.05,1711685713156250
-20.3,1711685713171875
-27.27,1711685713187500
-35.14,1711685713203125
-42.47,1711685713218750
-47.46,1711685713234375
-48.67,1711685713250000
-45.46,1711685713265625
-38.41,1711685713281250
-28.98,1711685713296875
-19.07,1711685713312500
-10.24,1711685713328125
-3.29,1711685713343750
1.8,1711685713359375
5.53,1711685713375000
8.41,1711685713390625
10.69,1711685713406250
12.22,1711685713421875
12.79,1711685713437500
12.33,1711685713453125
11.1,1711685713468750
9.7,1711685713484375
8.77,1711685713500000
8.75,1711685713515625
9.7,1711685713531250
11.3,1711685713546875
13.0,1711685713562500
14.26,1711685713578125
14.74,1711685713593750
14.38,1711685713609375
13.32,1711685713625000
11.8,1711685713640625
10.07,1711685713656250
8.36,1711685713671875
6.81,1711685713687500
5.46,1711685713703125
4.22,1711685713718750
2.88,1711685713734375
1.2,1711685713750000
-0.93,1711685713765625
-3.43,1711685713781250
-6.01,1711685713796875
-8.38,1711685713812500
-10.45,1711685713828125
-12.44,1711685713843750
-14.79,1711685713859375
-17.93,1711685713875000
-22.0,1711685713890625
-26.63,1711685713906250
-31.0,1711685713921875
-34.1,1711685713937500
-35.08,1711685713953125
-33.52,1711685713968750
-29.53,1711685713984375
-23.66,1711685714000000
-16.69,1711685714015625
-9.37,1711685714031250
-2.27,1711685714046875
4.17,1711685714062500
9.63,1711685714078125
13.88,1711685714093750
16.85,1711685714109375
18.6,1711685714125000
19.39,1711685714140625
19.65,1711685714156250
19.75,1711685714171875
19.96,1711685714187500
20.33,1711685714203125
20.76,1711685714218750
21.13,1711685714234375
21.43,1711685714250000
21.81,1711685714265625
22.42,1711685714281250
23.36,1711685714296875
24.51,1711685714312500
25.63,1711685714328125
26.36,1711685714343750
26.45,1711685714359375
25.82,1711685714375000
24.62,1711685714390625
23.07,1711685714406250
21.38,1711685714421875
19.55,1711685714437500
17.39,1711685714453125
14.65,1711685714468750
11.19,1711685714484375
7.12,1711685714500000
2.76,1711685714515625
-1.49,1711685714531250
-5.31,1711685714546875
-8.61,1711685714562500
-11.52,1711685714578125
-14.27,1711685714593750
-17.05,1711685714609375
-20.04,1711685714625000
-23.37,1711685714640625
-27.15,1711685714656250
-31.51,1711685714671875
-36.38,1711685714687500
-41.37,1711685714703125
-45.72,1711685714718750
-48.44,1711685714734375
-48.51,1711685714750000
-45.38,1711685714765625
-39.15,1711685714781250
-30.67,1711685714796875
-21.29,1711685714812500
-12.47,1711685714828125
-5.35,1711685714843750
-0.44,1711685714859375
2.38,1711685714875000
3.68,1711685714890625
4.15,1711685714906250
4.38,1711685714921875
4.66,1711685714937500
5.04,1711685714953125
5.42,1711685714968750
5.71,1711685714984375
5.97,1711685715000000
6.38,1711685715015625
7.21,1711685715031250
8.64,1711685715046875
10.69,1711685715062500
13.18,1711685715078125
15.78,1711685715093750
18.18,1711685715109375
20.18,1711685715125000
21.73,1711685715140625
22.82,1711685715156250
23.34,1711685715171875
23.08,1711685715187500
21.74,1711685715203125
19.19,1711685715218750
15.55,1711685715234375
11.25,1711685715250000
6.91,1711685715265625
3.08,1711685715281250
-0.03,1711685715296875
-2.54,1711685715312500
-4.84,1711685715328125
-7.37,1711685715343750
-10.47,1711685715359375
-14.19,1711685715375000
-18.35,1711685715390625
-22.52,1711685715406250
-26.14,1711685715421875
-28.6,1711685715437500
-29.39,1711685715453125
-28.18,1711685715468750
-24.91,1711685715484375
-19.88,1711685715500000
-13.64,1711685715515625
-6.96,1711685715531250
-0.64,1711685715546875
4.7,1711685715562500
8.71,1711685715578125
11.48,1711685715593750
13.33,1711685715609375
14.75,1711685715625000
16.15,1711685715640625
17.78,1711685715656250
19.67,1711685715671875
21.7,1711685715687500
23.71,1711685715703125
25.52,1711685715718750
26.99,1711685715734375
27.92,1711685715750000
28.06,1711685715765625
27.24,1711685715781250
25.38,1711685715796875
22.66,1711685715812500
19.4,1711685715828125
15.99,1711685715843750
12.73,1711685715859375
9.69,1711685715875000
6.71,1711685715890625
3.48,1711685715906250
-0.3,1711685715921875
-4.71,1711685715937500
-9.53,1711685715953125
-14.28,1711685715968750
-18.35,1711685715984375
-21.38,1711685716000000
-23.31,1711685716015625
-24.6,1711685716031250
-25.96,1711685716046875
-28.13,1711685716062500
-31.5,1711685716078125
-35.88,1711685716093750
-40.54,1711685716109375
-44.42,1711685716125000
-46.5,1711685716140625
-46.14,1711685716156250
-43.24,1711685716171875
-38.2,1711685716187500
-31.7,1711685716203125
-24.53,1711685716218750
-17.37,1711685716234375
-10.73,1711685716250000
-4.92,1711685716265625
-0.17,1711685716281250
3.4,1711685716296875
5.72,1711685716312500
6.84,1711685716328125
6.89,1711685716343750
6.16,1711685716359375
5.07,1711685716375000
4.02,1711685716390625
3.33,1711685716406250
3.21,1711685716421875
3.67,1711685716437500
4.58,1711685716453125
5.81,1711685716468750
7.2,1711685716484375
8.64,1711685716500000
9.98,1711685716515625
11.0,1711685716531250
11.44,1711685716546875
11.05,1711685716562500
9.65,1711685716578125
7.28,1711685716593750
4.15,1711685716609375
0.65,1711685716625000
-2.85,1711685716640625
-6.09,1711685716656250
-8.98,1711685716671875
-11.64,1711685716687500
-14.25,1711685716703125
-16.96,1711685716718750
-19.82,1711685716734375
-22.77,1711685716750000
-25.78,1711685716765625
-28.82,1711685716781250
-31.88,1711685716796875
-34.83,1711685716812500
-37.32,1711685716828125
-38.76,1711685716843750
-38.46,1711685716859375
-35.91,1711685716875000
-30.98,1711685716890625
-24.07,1711685716906250
-16.03,1711685716921875
-7.87,1711685716937500
-0.51,1711685716953125
5.4,1711685716968750
9.66,1711685716984375
12.42,1711685717000000
14.04,1711685717015625
14.87,1711685717031250
15.07,1711685717046875
14.65,1711685717062500
13.49,1711685717078125
11.63,1711685717093750
9.35,1711685717109375
7.13,1711685717125000
5.58,1711685717140625
5.06,1711685717156250
5.66,1711685717171875
7.11,1711685717187500
8.99,1711685717203125
10.86,1711685717218750
12.39,1711685717234375
13.43,1711685717250000
13.87,1711685717265625
13.72,1711685717281250
12.98,1711685717296875
11.69,1711685717312500
9.83,1711685717328125
7.29,1711685717343750
3.98,1711685717359375
-0.11,1711685717375000
-4.78,1711685717390625
-9.62,1711685717406250
-14.21,1711685717421875
-18.32,1711685717437500
-22.04,1711685717453125
-25.77,1711685717468750
-29.96,1711685717484375
-34.72,1711685717500000
-39.7,1711685717515625
-44.02,1711685717531250
-46.46,1711685717546875
-45.86,1711685717562500
-41.42,1711685717578125
-32.9,1711685717593750
-20.67,1711685717609375
-5.64,1711685717625000
10.95,1711685717640625
27.75,1711685717656250
43.51,1711685717671875
57.15,1711685717687500
67.79,1711685717703125
74.7,1711685717718750
77.38,1711685717734375
75.63,1711685717750000
69.67,1711685717765625
60.28,1711685717781250
48.64,1711685717796875
36.18,1711685717812500
24.27,1711685717828125
14.0,1711685717843750
6.05,1711685717859375
0.69,1711685717875000
-2.16,1711685717890625
-2.84,1711685717906250
-1.83,1711685717921875
0.34,1711685717937500
3.19,1711685717953125
6.35,1711685717968750
9.52,1711685717984375
12.42,1711685718000000
14.8,1711685718015625
16.35,1711685718031250
16.88,1711685718046875
16.34,1711685718062500
14.83,1711685718078125
12.61,1711685718093750
9.96,1711685718109375
7.08,1711685718125000
4.04,1711685718140625
0.79,1711685718156250
-2.78,1711685718171875
-6.8,1711685718187500
-11.36,1711685718203125
-16.54,1711685718218750
-22.4,1711685718234375
-28.87,1711685718250000
-35.62,1711685718265625
-42.0,1711685718281250
-47.06,1711685718296875
-49.75,1711685718312500
-49.28,1711685718328125
-45.41,1711685718343750
-38.55,1711685718359375
-29.61,1711685718375000
-19.69,1711685718390625
-9.72,1711685718406250
-0.36,1711685718421875
8.04,1711685718437500
15.18,1711685718453125
20.65,1711685718468750
24.0,1711685718484375
24.9,1711685718500000
23.43,1711685718515625
20.25,1711685718531250
16.48,1711685718546875
13.32,1711685718562500
11.64,1711685718578125
