phoneTimestamp,sensorTimestamp,ecg
1712241323527,599616026976271248,18061
1712241323534,599616026983938442,18262
1712241323542,599616026991605636,18170
1712241323550,599616026999272830,17912
1712241323557,599616027006940024,17468
1712241323565,599616027014607218,17132
1712241323573,599616027022274412,17109
1712241323580,599616027029941606,17107
1712241323588,599616027037608800,17036
1712241323596,599616027045275994,16981
1712241323603,599616027052943188,16881
1712241323611,599616027060610382,16830
1712241323619,599616027068277576,16814
1712241323625,599616027075944770,16650
1712241323633,599616027083611964,16554
1712241323641,599616027091279158,16551
1712241323649,599616027098946352,16393
1712241323657,599616027106613546,16297
1712241323665,599616027114280740,16345
1712241323672,599616027121947934,16384
1712241323680,599616027129615128,16382
1712241323688,599616027137282322,16057
1712241323695,599616027144949516,15616
1712241323703,599616027152616710,15572
1712241323711,599616027160283904,15646
1712241323718,599616027167951098,15490
1712241323726,599616027175618292,15346
1712241323734,599616027183285486,15303
1712241323741,599616027190952680,15147
1712241323749,599616027198619874,14994
1712241323757,599616027206287068,15008
1712241323764,599616027213954262,15056
1712241323772,599616027221621456,14964
1712241323780,599616027229288650,14720
1712241323787,599616027236955844,14562
1712241323795,599616027244623038,14505
1712241323803,599616027252290232,14299
1712241323809,599616027259957426,14152
1712241323817,599616027267624620,14118
1712241323825,599616027275291814,13887
1712241323833,599616027282959008,13672
1712241323841,599616027290626202,13572
1712241323849,599616027298293396,13393
1712241323856,599616027305960590,13286
1712241323864,599616027313627784,13254
1712241323872,599616027321294978,13075
1712241323879,599616027328962172,12865
1712241323887,599616027336629366,12780
1712241323895,599616027344296560,12723
1712241323902,599616027351963754,12668
1712241323910,599616027359630948,12634
1712241323918,599616027367298142,12483
1712241323925,599616027374965336,12264
1712241323933,599616027382632530,12163
1712241323941,599616027390299724,12115
1712241323948,599616027397966918,12060
1712241323956,599616027405634112,12049
1712241323964,599616027413301306,11927
1712241323971,599616027420968500,11680
1712241323979,599616027428635694,11559
1712241323987,599616027436302888,11529
1712241323993,599616027443970082,11459
1712241324001,599616027451637276,11438
1712241324009,599616027459304470,11360
1712241324017,599616027466971664,11125
1712241324025,599616027474638858,10987
1712241324033,599616027482306052,11033
1712241324040,599616027489973246,11008
1712241324048,599616027497640440,10832
1712241324056,599616027505307634,10640
1712241324063,599616027512974828,10464
1712241324071,599616027520642022,10329
1712241324079,599616027528309216,10276
1712241324086,599616027535961406,10228
1712241324094,599616027543628809,10208
1712241324102,599616027551296212,10178
1712241324109,599616027558963615,10004
1712241324117,599616027566631018,9824
1712241324125,599616027574298421,9764
1712241324132,599616027581965824,9707
1712241324140,599616027589633227,9670
1712241324148,599616027597300630,9695
1712241324155,599616027604968033,9533
1712241324163,599616027612635436,9186
1712241324171,599616027620302839,9099
1712241324177,599616027627970242,9186
1712241324185,599616027635637645,9073
1712241324193,599616027643305048,9051
1712241324201,599616027650972451,9256
1712241324209,599616027658639854,9142
1712241324217,599616027666307257,8639
1712241324224,599616027673974660,8310
1712241324232,599616027681642063,8314
1712241324240,599616027689309466,8301
1712241324247,599616027696976869,8175
1712241324255,599616027704644272,8079
1712241324263,599616027712311675,8003
1712241324270,599616027719979078,7946
1712241324278,599616027727646481,7967
1712241324286,599616027735313884,7951
1712241324293,599616027742981287,7749
1712241324301,599616027750648690,7548
1712241324309,599616027758316093,7484
1712241324316,599616027765983496,7445
1712241324324,599616027773650899,7406
1712241324332,599616027781318302,7361
1712241324339,599616027788985705,7287
1712241324347,599616027796653108,7228
1712241324355,599616027804320511,7148
1712241324361,599616027811987914,7063
1712241324369,599616027819655317,7054
1712241324377,599616027827322720,7047
1712241324385,599616027834990123,6915
1712241324393,599616027842657526,6762
1712241324401,599616027850324929,6677
1712241324408,599616027857992332,6597
1712241324416,599616027865659735,6549
1712241324424,599616027873327138,6515
1712241324431,599616027880994541,6375
1712241324439,599616027888661944,6252
1712241324447,599616027896329347,6197
1712241324454,599616027903996750,6046
1712241324462,599616027911664153,5909
1712241324470,599616027919331556,5867
1712241324477,599616027926998959,5780
1712241324485,599616027934666362,5700
1712241324493,599616027942333765,5675
1712241324500,599616027950001168,5600
1712241324508,599616027957668571,5524
1712241324516,599616027965335974,5485
1712241324523,599616027973003377,5433
1712241324531,599616027980670780,5394
1712241324539,599616027988338183,5305
1712241324545,599616027996005586,5161
1712241324553,599616028003672989,5106
1712241324561,599616028011340392,5099
1712241324569,599616028019007795,5037
1712241324577,599616028026675198,4996
1712241324585,599616028034342601,4998
1712241324592,599616028042010004,4955
1712241324600,599616028049677407,4873
1712241324608,599616028057344810,4815
1712241324615,599616028065012213,4772
1712241324623,599616028072679616,4742
1712241324631,599616028080347019,4745
1712241324638,599616028088014422,4731
1712241324646,599616028095651774,4665
1712241324654,599616028103319595,4582
1712241324661,599616028110987416,4534
1712241324669,599616028118655237,4516
1712241324677,599616028126323058,4516
1712241324684,599616028133990879,4532
1712241324692,599616028141658700,4459
1712241324700,599616028149326521,4244
1712241324707,599616028156994342,4134
1712241324715,599616028164662163,4182
1712241324723,599616028172329984,4193
1712241324729,599616028179997805,4200
1712241324737,599616028187665626,4168
1712241324745,599616028195333447,3969
1712241324753,599616028203001268,3834
1712241324761,599616028210669089,3882
1712241324769,599616028218336910,3910
1712241324776,599616028226004731,3882
1712241324784,599616028233672552,3814
1712241324792,599616028241340373,3672
1712241324799,599616028249008194,3578
1712241324807,599616028256676015,3608
1712241324815,599616028264343836,3784
1712241324822,599616028272011657,4100
1712241324830,599616028279679478,4269
1712241324838,599616028287347299,3981
1712241324845,599616028295015120,3510
1712241324853,599616028302682941,3384
1712241324861,599616028310350762,3485
1712241324868,599616028318018583,3475
1712241324876,599616028325686404,3439
1712241324884,599616028333354225,3434
1712241324891,599616028341022046,3366
1712241324899,599616028348689867,3322
1712241324907,599616028356357688,3350
1712241324913,599616028364025509,3356
1712241324921,599616028371693330,3345
1712241324929,599616028379361151,3320
1712241324937,599616028387028972,3242
1712241324945,599616028394696793,3196
1712241324953,599616028402364614,3210
1712241324960,599616028410032435,3215
1712241324968,599616028417700256,3215
1712241324976,599616028425368077,3199
1712241324983,599616028433035898,3100
1712241324991,599616028440703719,2993
1712241324999,599616028448371540,2986
1712241325006,599616028456039361,3004
1712241325014,599616028463707182,2991
1712241325022,599616028471375003,2952
1712241325029,599616028479042824,2785
1712241325037,599616028486710645,2529
1712241325045,599616028494378466,2423
1712241325052,599616028502046287,2414
1712241325060,599616028509714108,2355
1712241325068,599616028517381929,2309
1712241325075,599616028525049750,2275
1712241325083,599616028532717571,2195
1712241325091,599616028540385392,2138
1712241325097,599616028548053213,2140
1712241325105,599616028555721034,2138
1712241325113,599616028563388855,2094
1712241325121,599616028571056676,2060
1712241325129,599616028578724497,2037
1712241325137,599616028586392318,2012
1712241325144,599616028594060139,2019
1712241325152,599616028601727960,2039
1712241325160,599616028609395781,2019
1712241325167,599616028617063602,1989
1712241325175,599616028624731423,1982
1712241325183,599616028632399244,1971
1712241325190,599616028640067065,1925
1712241325198,599616028647734886,1817
1712241325206,599616028655392678,1740
1712241325213,599616028663060639,1751
1712241325221,599616028670728600,1765
1712241325229,599616028678396561,1740
1712241325236,599616028686064522,1740
1712241325244,599616028693732483,1769
1712241325252,599616028701400444,1765
1712241325259,599616028709068405,1747
1712241325267,599616028716736366,1756
1712241325275,599616028724404327,1721
1712241325281,599616028732072288,1664
1712241325289,599616028739740249,1683
1712241325297,599616028747408210,1708
1712241325305,599616028755076171,1692
1712241325313,599616028762744132,1705
1712241325321,599616028770412093,1696
1712241325328,599616028778080054,1589
1712241325336,599616028785748015,1545
1712241325344,599616028793415976,1596
1712241325351,599616028801083937,1614
1712241325359,599616028808751898,1628
1712241325367,599616028816419859,1653
1712241325374,599616028824087820,1628
1712241325382,599616028831755781,1593
1712241325390,599616028839423742,1584
1712241325397,599616028847091703,1555
1712241325405,599616028854759664,1555
1712241325413,599616028862427625,1589
1712241325420,599616028870095586,1525
1712241325428,599616028877763547,1383
1712241325436,599616028885431508,1410
1712241325443,599616028893099469,1708
1712241325451,599616028900767430,2037
1712241325459,599616028908435391,2085
1712241325465,599616028916103352,1763
1712241325473,599616028923771313,1394
1712241325481,599616028931439274,1335
1712241325489,599616028939107235,1420
1712241325497,599616028946775196,1422
1712241325505,599616028954443157,1433
1712241325512,599616028962111118,1477
1712241325520,599616028969779079,1431
1712241325528,599616028977447040,1342
1712241325535,599616028985115001,1346
1712241325543,599616028992782962,1406
1712241325551,599616029000450923,1431
1712241325558,599616029008118884,1452
1712241325566,599616029015786845,1447
1712241325574,599616029023454806,1385
1712241325581,599616029031122767,1328
1712241325589,599616029038790728,1310
1712241325597,599616029046458689,1294
1712241325604,599616029054126650,1308
1712241325612,599616029061794611,1289
1712241325620,599616029069462572,1168
1712241325627,599616029077130533,1086
1712241325635,599616029084798494,1104
1712241325643,599616029092466455,1115
1712241325649,599616029100134416,1090
1712241325657,599616029107802377,1040
1712241325665,599616029115470338,978
1712241325673,599616029123138299,962
1712241325681,599616029130806260,994
1712241325689,599616029138474221,1019
1712241325696,599616029146142182,985
1712241325704,599616029153810143,882
1712241325712,599616029161478104,791
1712241325719,599616029169146065,788
1712241325727,599616029176814026,830
1712241325735,599616029184481987,857
1712241325742,599616029192149948,880
1712241325750,599616029199817909,889
1712241325758,599616029207485870,852
1712241325765,599616029215173920,795
1712241325773,599616029222841602,788
1712241325781,599616029230509284,843
1712241325788,599616029238176966,898
1712241325796,599616029245844648,921
1712241325804,599616029253512330,894
1712241325811,599616029261180012,759
1712241325819,599616029268847694,644
1712241325827,599616029276515376,711
1712241325833,599616029284183058,809
1712241325841,599616029291850740,820
1712241325849,599616029299518422,823
1712241325857,599616029307186104,834
1712241325865,599616029314853786,839
1712241325873,599616029322521468,868
1712241325880,599616029330189150,921
1712241325888,599616029337856832,944
1712241325896,599616029345524514,944
1712241325903,599616029353192196,939
1712241325911,599616029360859878,937
1712241325919,599616029368527560,949
1712241325926,599616029376195242,969
1712241325934,599616029383862924,969
1712241325942,599616029391530606,960
1712241325949,599616029399198288,955
1712241325957,599616029406865970,903
1712241325965,599616029414533652,834
1712241325972,599616029422201334,878
1712241325980,599616029429869016,955
1712241325988,599616029437536698,951
1712241325995,599616029445204380,953
1712241326003,599616029452872062,992
1712241326011,599616029460539744,962
1712241326017,599616029468207426,894
1712241326025,599616029475875108,905
1712241326033,599616029483542790,937
1712241326041,599616029491210472,935
1712241326049,599616029498878154,942
1712241326057,599616029506545836,923
1712241326064,599616029514213518,928
1712241326072,599616029521881200,1157
1712241326080,599616029529548882,1513
1712241326087,599616029537216564,1651
1712241326095,599616029544884246,1426
1712241326103,599616029552551928,1019
1712241326110,599616029560219610,818
1712241326118,599616029567887292,884
1712241326126,599616029575554974,914
1712241326133,599616029583222656,887
1712241326141,599616029590890338,935
1712241326149,599616029598558020,928
1712241326156,599616029606225702,823
1712241326164,599616029613893384,800
1712241326172,599616029621561066,852
1712241326179,599616029629228748,864
1712241326187,599616029636896430,887
1712241326195,599616029644564112,935
1712241326201,599616029652231794,905
1712241326209,599616029659899476,768
1712241326217,599616029667567158,647
1712241326225,599616029675234840,667
1712241326233,599616029682902522,740
1712241326241,599616029690570204,768
1712241326248,599616029698237886,770
1712241326256,599616029705905568,706
1712241326264,599616029713573250,601
1712241326271,599616029721240932,569
1712241326279,599616029728908614,569
1712241326287,599616029736576296,544
1712241326294,599616029744243978,500
1712241326302,599616029751911660,423
1712241326310,599616029759579342,384
1712241326317,599616029767247024,429
1712241326325,599616029774914730,480
1712241326333,599616029782582412,509
1712241326340,599616029790250094,532
1712241326348,599616029797917776,509
1712241326356,599616029805585458,466
1712241326363,599616029813253140,471
1712241326371,599616029820920822,514
1712241326379,599616029828588504,551
1712241326385,599616029836256186,571
1712241326393,599616029843923868,521
1712241326401,599616029851591550,416
1712241326409,599616029859259232,420
1712241326417,599616029866926914,514
1712241326425,599616029874594596,553
1712241326432,599616029882262278,573
1712241326440,599616029889929960,592
1712241326448,599616029897597642,564
1712241326455,599616029905265324,548
1712241326463,599616029912933006,578
1712241326471,599616029920600688,601
1712241326478,599616029928268370,631
1712241326486,599616029935936052,644
1712241326494,599616029943603734,555
1712241326502,599616029951271416,429
1712241326509,599616029958939098,418
1712241326517,599616029966606780,484
1712241326525,599616029974274462,535
1712241326532,599616029981942144,560
1712241326540,599616029989609826,553
1712241326548,599616029997277508,537
1712241326555,599616030004945190,571
1712241326563,599616030012612872,628
1712241326571,599616030020280554,656
1712241326577,599616030027948236,672
1712241326585,599616030035615918,654
1712241326593,599616030043283600,612
1712241326601,599616030050951282,626
1712241326609,599616030058618964,686
1712241326617,599616030066286646,729
1712241326624,599616030073954328,747
1712241326632,599616030081622010,736
1712241326640,599616030089289692,688
1712241326647,599616030096957374,658
1712241326655,599616030104625056,686
1712241326663,599616030112292738,720
1712241326670,599616030119960420,731
1712241326678,599616030127628102,731
1712241326686,599616030135295784,665
1712241326693,599616030142963466,535
1712241326701,599616030150631148,539
1712241326709,599616030158298830,795
1712241326716,599616030165966512,1070
1712241326724,599616030173634194,1104
1712241326732,599616030181301876,864
1712241326739,599616030188969558,505
1712241326747,599616030196637240,324
1712241326755,599616030204304922,361
1712241326761,599616030211972604,395
1712241326769,599616030219640286,397
1712241326777,599616030227307968,436
1712241326785,599616030234975650,468
1712241326793,599616030242643332,480
1712241326801,599616030250311014,521
1712241326808,599616030257978696,573
1712241326816,599616030265646378,564
1712241326824,599616030273314060,537
1712241326831,599616030280981742,514
1712241326839,599616030288649424,457
1712241326847,599616030296317106,452
1712241326854,599616030303984788,523
1712241326862,599616030311652470,509
1712241326870,599616030319320152,450
1712241326877,599616030326987834,468
1712241326885,599616030334635456,491
1712241326893,599616030342303417,491
1712241326900,599616030349971378,512
1712241326908,599616030357639339,487
1712241326916,599616030365307300,423
1712241326923,599616030372975261,413
1712241326931,599616030380643222,347
1712241326939,599616030388311183,224
1712241326945,599616030395979144,233
1712241326953,599616030403647105,285
1712241326961,599616030411315066,276
1712241326969,599616030418983027,304
1712241326977,599616030426650988,331
1712241326985,599616030434318949,299
1712241326992,599616030441986910,242
1712241327000,599616030449654871,171
1712241327008,599616030457322832,153
1712241327015,599616030464990793,219
1712241327023,599616030472658754,246
1712241327031,599616030480326715,176
1712241327038,599616030487994676,141
1712241327046,599616030495662637,194
1712241327054,599616030503330598,242
1712241327061,599616030510998559,276
1712241327069,599616030518666520,329
1712241327077,599616030526334481,349
1712241327084,599616030534002442,324
1712241327092,599616030541670403,329
1712241327100,599616030549338364,375
1712241327107,599616030557006325,416
1712241327115,599616030564674286,450
1712241327123,599616030572342247,466
1712241327129,599616030580010208,452
1712241327137,599616030587678169,436
1712241327145,599616030595346130,457
1712241327153,599616030603014091,503
1712241327161,599616030610682052,544
1712241327169,599616030618350013,544
1712241327176,599616030626017974,439
1712241327184,599616030633685935,322
1712241327192,599616030641353896,354
1712241327199,599616030649021857,441
1712241327207,599616030656689818,468
1712241327215,599616030664357779,489
1712241327222,599616030672025740,452
1712241327230,599616030679693701,338
1712241327238,599616030687361662,297
1712241327245,599616030695029623,317
1712241327253,599616030702697584,320
1712241327261,599616030710365545,363
1712241327268,599616030718033506,402
1712241327276,599616030725701467,370
1712241327284,599616030733369428,375
1712241327291,599616030741037389,452
1712241327299,599616030748705350,507
1712241327307,599616030756373311,535
1712241327313,599616030764041272,551
1712241327321,599616030771709233,516
1712241327329,599616030779377194,487
1712241327337,599616030787045155,523
1712241327345,599616030794713116,569
1712241327353,599616030802381077,576
1712241327360,599616030810049038,551
1712241327368,599616030817716999,461
1712241327376,599616030825384960,448
1712241327383,599616030833052921,756
1712241327391,599616030840720882,1125
1712241327399,599616030848388843,1086
1712241327406,599616030856056804,715
1712241327414,599616030863724765,439
1712241327422,599616030871392726,420
1712241327429,599616030879060687,468
1712241327437,599616030886728648,482
1712241327445,599616030894421740,525
1712241327452,599616030902089352,564
1712241327460,599616030909756964,553
1712241327468,599616030917424576,528
1712241327475,599616030925092188,535
1712241327483,599616030932759800,546
1712241327491,599616030940427412,507
1712241327497,599616030948095024,471
1712241327505,599616030955762636,480
1712241327513,599616030963430248,436
1712241327521,599616030971097860,315
1712241327529,599616030978765472,251
1712241327537,599616030986433084,278
1712241327544,599616030994100696,315
1712241327552,599616031001768308,324
1712241327560,599616031009435920,308
1712241327567,599616031017103532,224
1712241327575,599616031024771144,134
1712241327583,599616031032438756,153
1712241327590,599616031040106368,169
1712241327598,599616031047773980,109
1712241327606,599616031055441592,98
1712241327613,599616031063109204,130
1712241327621,599616031070776816,116
1712241327629,599616031078444428,130
1712241327636,599616031086112040,173
1712241327644,599616031093779652,171
1712241327652,599616031101447264,164
1712241327659,599616031109114876,180
1712241327667,599616031116782488,166
1712241327675,599616031124450100,169
1712241327681,599616031132117712,201
1712241327689,599616031139785324,201
1712241327697,599616031147452936,201
1712241327705,599616031155120548,205
1712241327713,599616031162788160,116
1712241327721,599616031170455772,-9
1712241327728,599616031178123384,-75
1712241327736,599616031185790996,-116
1712241327744,599616031193458608,-102
1712241327751,599616031201126220,-16
1712241327759,599616031208793832,32
1712241327767,599616031216461444,36
1712241327774,599616031224129056,77
1712241327782,599616031231796668,121
1712241327790,599616031239464280,144
1712241327797,599616031247131892,192
1712241327805,599616031254799504,226
1712241327813,599616031262467116,221
1712241327820,599616031270134728,233
1712241327828,599616031277802340,256
1712241327836,599616031285469952,274
1712241327843,599616031293137564,313
1712241327851,599616031300805176,347
1712241327859,599616031308472788,347
1712241327865,599616031316140400,338
1712241327873,599616031323808012,347
1712241327881,599616031331475624,359
1712241327889,599616031339143236,365
1712241327897,599616031346810848,372
1712241327905,599616031354478460,333
1712241327912,599616031362146072,246
1712241327920,599616031369813684,226
1712241327928,599616031377481296,283
1712241327935,599616031385148908,331
1712241327943,599616031392816520,368
1712241327951,599616031400484132,388
1712241327958,599616031408151744,372
1712241327966,599616031415819356,354
1712241327974,599616031423486968,356
1712241327981,599616031431154580,336
1712241327989,599616031438822192,301
1712241327997,599616031446489804,327
1712241328004,599616031454157464,347
1712241328012,599616031461825076,311
1712241328020,599616031469492688,317
1712241328027,599616031477160300,375
1712241328035,599616031484827912,404
1712241328043,599616031492495524,423
1712241328049,599616031500163136,425
1712241328057,599616031507830748,372
1712241328065,599616031515498360,311
1712241328073,599616031523165972,343
1712241328081,599616031530833584,567
1712241328089,599616031538501196,923
1712241328096,599616031546168808,1031
1712241328104,599616031553836420,605
1712241328112,599616031561504032,105
1712241328119,599616031569171644,84
1712241328127,599616031576839256,251
1712241328135,599616031584506868,244
1712241328142,599616031592174480,233
1712241328150,599616031599842092,226
1712241328158,599616031607509704,160
1712241328165,599616031615177316,166
1712241328173,599616031622844928,237
1712241328181,599616031630512540,269
1712241328188,599616031638180152,267
1712241328196,599616031645847764,219
1712241328204,599616031653515376,153
1712241328211,599616031661182988,144
1712241328219,599616031668850600,132
1712241328227,599616031676518212,50
1712241328233,599616031684185824,-50
1712241328241,599616031691853436,-121
1712241328249,599616031699521048,-173
1712241328257,599616031707188660,-169
1712241328265,599616031714856272,-86
1712241328273,599616031722523884,-16
1712241328280,599616031730191496,11
1712241328288,599616031737859108,20
1712241328296,599616031745526720,16
1712241328303,599616031753194332,18
1712241328311,599616031760861944,59
1712241328319,599616031768529556,102
1712241328326,599616031776197168,118
1712241328334,599616031783864780,121
1712241328342,599616031791532392,112
1712241328349,599616031799200004,105
1712241328357,599616031806867616,118
1712241328365,599616031814535228,146
1712241328372,599616031822202840,153
1712241328380,599616031829870452,134
1712241328388,599616031837538064,125
1712241328395,599616031845205676,125
1712241328403,599616031852873288,134
1712241328411,599616031860540900,171
1712241328417,599616031868208512,194
1712241328425,599616031875876124,169
1712241328433,599616031883543736,157
1712241328441,599616031891211348,125
1712241328449,599616031898878960,54
1712241328457,599616031906546572,70
1712241328464,599616031914214184,132
1712241328472,599616031921881796,77
1712241328480,599616031929549408,2
1712241328487,599616031937217020,32
1712241328495,599616031944884632,66
1712241328503,599616031952552244,75
1712241328510,599616031960219856,112
1712241328518,599616031967887468,141
1712241328526,599616031975555080,153
1712241328533,599616031983222692,176
1712241328541,599616031990890304,187
1712241328549,599616031998557916,194
1712241328556,599616032006225528,221
1712241328564,599616032013868060,233
1712241328572,599616032021536021,235
1712241328579,599616032029203982,249
1712241328587,599616032036871943,244
1712241328595,599616032044539904,217
1712241328601,599616032052207865,203
1712241328609,599616032059875826,198
1712241328617,599616032067543787,210
1712241328625,599616032075211748,246
1712241328633,599616032082879709,242
1712241328641,599616032090547670,160
1712241328648,599616032098215631,118
1712241328656,599616032105883592,162
1712241328664,599616032113551553,205
1712241328671,599616032121219514,235
1712241328679,599616032128887475,246
1712241328687,599616032136555436,176
1712241328694,599616032144223397,91
1712241328702,599616032151891358,100
1712241328710,599616032159559319,144
1712241328717,599616032167227280,128
1712241328725,599616032174895241,59
1712241328733,599616032182563202,-36
1712241328740,599616032190231163,-61
1712241328748,599616032197899124,171
1712241328756,599616032205567085,560
1712241328763,599616032213235046,695
1712241328771,599616032220903007,402
1712241328779,599616032228570968,-22
1712241328785,599616032236238929,-208
1712241328793,599616032243906890,-173
1712241328801,599616032251574851,-125
1712241328809,599616032259242812,-84
1712241328817,599616032266910773,-41
1712241328825,599616032274578734,-57
1712241328832,599616032282246695,-116
1712241328840,599616032289914656,-160
1712241328848,599616032297582617,-173
1712241328855,599616032305250578,-137
1712241328863,599616032312918539,-80
1712241328871,599616032320586500,-48
1712241328878,599616032328254461,-54
1712241328886,599616032335922422,-75
1712241328894,599616032343590383,-54
1712241328901,599616032351258344,4
1712241328909,599616032358926305,52
1712241328917,599616032366594266,89
1712241328924,599616032374262227,114
1712241328932,599616032381930188,93
1712241328940,599616032389598149,86
1712241328947,599616032397266110,141
1712241328955,599616032404934071,173
1712241328963,599616032412602032,123
1712241328969,599616032420269993,45
1712241328977,599616032427937954,-41
1712241328985,599616032435605915,-102
1712241328993,599616032443273876,-50
1712241329001,599616032450941837,38
1712241329009,599616032458609798,75
1712241329017,599616032466277759,89
1712241329024,599616032473945720,64
1712241329032,599616032481613681,20
1712241329040,599616032489281642,43
1712241329047,599616032496949603,102
1712241329055,599616032504617564,134
1712241329063,599616032512285525,162
1712241329070,599616032519953486,169
1712241329078,599616032527621447,150
1712241329086,599616032535289408,171
1712241329093,599616032542957369,242
1712241329101,599616032550625330,304
1712241329109,599616032558293291,333
1712241329116,599616032565961252,343
1712241329124,599616032573649302,329
1712241329132,599616032581316984,301
1712241329139,599616032588984666,297
1712241329147,599616032596652348,311
1712241329155,599616032604320030,317
1712241329161,599616032611987712,301
1712241329169,599616032619655394,221
1712241329177,599616032627323076,73
1712241329185,599616032634990758,9
1712241329193,599616032642658440,96
1712241329201,599616032650326122,153
1712241329208,599616032657993804,100
1712241329216,599616032665661486,38
1712241329224,599616032673329168,29
1712241329231,599616032680996850,59
1712241329239,599616032688664532,41
1712241329247,599616032696332214,-45
1712241329254,599616032703999896,-68
1712241329262,599616032711667578,0
1712241329270,599616032719335260,34
1712241329277,599616032727002942,36
1712241329285,599616032734670624,86
1712241329293,599616032742338306,137
1712241329300,599616032750005988,137
1712241329308,599616032757673670,134
1712241329316,599616032765341352,116
1712241329323,599616032773009034,50
1712241329331,599616032780676716,41
1712241329339,599616032788344398,116
1712241329345,599616032796012080,146
1712241329353,599616032803679762,146
1712241329361,599616032811347444,185
1712241329369,599616032819015126,198
1712241329377,599616032826682808,189
1712241329385,599616032834350490,217
1712241329392,599616032842018172,240
1712241329400,599616032849685854,214
1712241329408,599616032857353536,162
1712241329415,599616032865021218,198
1712241329423,599616032872688900,475
1712241329431,599616032880356582,811
1712241329438,599616032888024264,818
1712241329446,599616032895691946,441
1712241329454,599616032903359628,25
1712241329461,599616032911027310,-118
1712241329469,599616032918694992,-123
1712241329477,599616032926362674,-173
1712241329484,599616032934030356,-198
1712241329492,599616032941698038,-162
1712241329500,599616032949365720,-125
1712241329507,599616032957033402,-107
1712241329515,599616032964701084,-157
1712241329523,599616032972368766,-230
1712241329529,599616032980036448,-203
1712241329537,599616032987704130,-128
1712241329545,599616032995371812,-84
1712241329553,599616033003039494,-38
1712241329561,599616033010707176,0
1712241329569,599616033018374858,-13
1712241329576,599616033026042540,-25
1712241329584,599616033033710222,9
1712241329592,599616033041377904,54
1712241329599,599616033049045586,100
1712241329607,599616033056713268,137
1712241329615,599616033064380950,130
1712241329622,599616033072048632,109
1712241329630,599616033079716314,137
1712241329638,599616033087383996,187
1712241329645,599616033095051678,224
1712241329653,599616033102719360,244
1712241329661,599616033110387042,228
1712241329668,599616033118054724,169
1712241329676,599616033125722406,153
1712241329684,599616033133390114,196
1712241329691,599616033141057796,224
1712241329699,599616033148725478,214
1712241329707,599616033156393160,105
1712241329713,599616033164060842,-54
1712241329721,599616033171728524,-54
1712241329729,599616033179396206,57
1712241329737,599616033187063888,66
1712241329745,599616033194731570,-18
1712241329753,599616033202399252,-84
1712241329760,599616033210066934,-144
1712241329768,599616033217734616,-169
1712241329776,599616033225402298,-93
1712241329783,599616033233069980,-4
1712241329791,599616033240737662,41
1712241329799,599616033248405344,80
1712241329806,599616033256073026,80
1712241329814,599616033263740708,57
1712241329822,599616033271408390,93
1712241329829,599616033279076072,155
1712241329837,599616033286743754,180
1712241329845,599616033294411436,182
1712241329852,599616033302079118,125
1712241329860,599616033309746800,27
1712241329868,599616033317414482,29
1712241329875,599616033325082164,121
1712241329883,599616033332749846,169
1712241329891,599616033340417528,185
1712241329897,599616033348085210,194
1712241329905,599616033355752892,178
1712241329913,599616033363420574,178
1712241329921,599616033371088256,226
1712241329929,599616033378755938,278
1712241329937,599616033386423620,301
1712241329944,599616033394091302,278
1712241329952,599616033401758984,212
1712241329960,599616033409426666,187
1712241329967,599616033417094348,237
1712241329975,599616033424762030,285
1712241329983,599616033432429712,301
1712241329990,599616033440097394,306
1712241329998,599616033447765076,299
1712241330006,599616033455432758,288
1712241330013,599616033463100440,306
1712241330021,599616033470768122,340
1712241330029,599616033478435804,333
1712241330036,599616033486103486,297
1712241330044,599616033493771168,246
1712241330052,599616033501438850,155
1712241330059,599616033509106532,84
1712241330067,599616033516774214,114
1712241330075,599616033524441896,150
1712241330081,599616033532109578,102
1712241330089,599616033539777260,52
1712241330097,599616033547444942,29
1712241330105,599616033555112624,-38
1712241330113,599616033562780306,-57
1712241330121,599616033570447988,187
1712241330128,599616033578115670,555
1712241330136,599616033585783352,672
1712241330144,599616033593451034,393
1712241330151,599616033601118716,4
1712241330159,599616033608786398,-107
1712241330167,599616033616454080,-29
1712241330174,599616033624121762,-34
1712241330182,599616033631789444,-50
1712241330190,599616033639457126,-6
1712241330197,599616033647124808,-32
1712241330205,599616033654792490,-93
1712241330213,599616033662460172,-68
1712241330220,599616033670127854,-22
1712241330228,599616033677795536,-4
1712241330236,599616033685463218,50
1712241330243,599616033693100830,98
1712241330251,599616033700768930,48
1712241330259,599616033708437030,-41
1712241330265,599616033716105130,-50
1712241330273,599616033723773230,13
1712241330281,599616033731441330,70
1712241330289,599616033739109430,61
1712241330297,599616033746777530,-57
1712241330305,599616033754445630,-148
1712241330312,599616033762113730,-80
1712241330320,599616033769781830,13
1712241330328,599616033777449930,54
1712241330335,599616033785118030,100
1712241330343,599616033792786130,125
1712241330351,599616033800454230,107
1712241330358,599616033808122330,114
1712241330366,599616033815790430,148
1712241330374,599616033823458530,180
1712241330381,599616033831126630,189
1712241330389,599616033838794730,144
1712241330397,599616033846462830,48
1712241330404,599616033854130930,-2
1712241330412,599616033861799030,34
1712241330420,599616033869467130,86
1712241330427,599616033877135230,125
1712241330435,599616033884803330,157
1712241330443,599616033892471430,134
1712241330449,599616033900139530,68
1712241330457,599616033907807630,80
1712241330465,599616033915475730,153
1712241330473,599616033923143830,187
1712241330481,599616033930811930,205
1712241330489,599616033938480030,214
1712241330496,599616033946148130,173
1712241330504,599616033953816230,166
1712241330512,599616033961484330,237
1712241330519,599616033969152430,285
1712241330527,599616033976820530,299
1712241330535,599616033984488630,311
1712241330542,599616033992156730,288
1712241330550,599616033999824830,251
1712241330558,599616034007492930,276
1712241330565,599616034015161030,327
1712241330573,599616034022829130,347
1712241330581,599616034030497230,313
1712241330588,599616034038165330,196
1712241330596,599616034045833430,114
1712241330604,599616034053501530,198
1712241330611,599616034061169630,294
1712241330619,599616034068837730,285
1712241330627,599616034076505830,274
1712241330633,599616034084173930,265
1712241330641,599616034091842030,228
1712241330649,599616034099510130,249
1712241330657,599616034107178230,308
1712241330665,599616034114846330,315
1712241330673,599616034122514430,313
1712241330680,599616034130182530,317
1712241330688,599616034137850630,272
1712241330696,599616034145518730,212
1712241330703,599616034153186830,221
1712241330711,599616034160854930,230
1712241330719,599616034168523030,171
1712241330726,599616034176191130,114
1712241330734,599616034183859230,86
1712241330742,599616034191527330,54
1712241330749,599616034199195430,52
1712241330757,599616034206863530,16
1712241330765,599616034214531630,-121
1712241330772,599616034222199730,-242
1712241330780,599616034229867830,-331
1712241330788,599616034237535930,-361
1712241330795,599616034245204030,-93
1712241330803,599616034252932350,329
1712241330811,599616034260599614,411
1712241330817,599616034268266878,73
1712241330825,599616034275934142,-260
1712241330833,599616034283601406,-294
1712241330841,599616034291268670,-210
1712241330849,599616034298935934,-182
1712241330857,599616034306603198,-157
1712241330864,599616034314270462,-123
1712241330872,599616034321937726,-128
1712241330880,599616034329604990,-182
1712241330888,599616034337272254,-214
1712241330895,599616034344939518,-148
1712241330903,599616034352606782,-89
1712241330911,599616034360274046,-118
1712241330918,599616034367941310,-128
1712241330926,599616034375608574,-70
1712241330934,599616034383275838,-66
1712241330941,599616034390943102,-107
1712241330949,599616034398610366,-82
1712241330957,599616034406277630,-52
1712241330964,599616034413944894,-82
1712241330972,599616034421612158,-112
1712241330980,599616034429279422,-148
1712241330987,599616034436946686,-203
1712241330995,599616034444613950,-244
1712241331003,599616034452281214,-288
1712241331009,599616034459948478,-274
1712241331017,599616034467615742,-203
1712241331025,599616034475283006,-203
1712241331033,599616034482950270,-217
1712241331041,599616034490617534,-148
1712241331049,599616034498284798,-123
1712241331056,599616034505952062,-125
1712241331064,599616034513619326,-68
1712241331072,599616034521286590,-54
1712241331079,599616034528953854,-93
1712241331087,599616034536621118,-100
1712241331095,599616034544288382,-109
1712241331102,599616034551955646,-102
1712241331110,599616034559622910,-41
1712241331118,599616034567290174,-6
1712241331125,599616034574957438,-68
1712241331133,599616034582624702,-121
1712241331141,599616034590291966,-73
1712241331148,599616034597959230,-25
1712241331156,599616034605626494,-16
1712241331164,599616034613293758,18
1712241331171,599616034620961022,45
1712241331179,599616034628628286,-27
1712241331187,599616034636295550,-146
1712241331193,599616034643962814,-139
1712241331201,599616034651630078,-43
1712241331209,599616034659297342,-18
1712241331217,599616034666964606,-43
1712241331225,599616034674631870,-36
1712241331233,599616034682299134,-13
1712241331240,599616034689966398,9
1712241331248,599616034697633662,25
1712241331256,599616034705300926,27
1712241331263,599616034712968190,16
1712241331271,599616034720635454,-70
1712241331279,599616034728302718,-148
1712241331286,599616034735969982,-84
1712241331294,599616034743637246,29
1712241331302,599616034751304510,80
1712241331309,599616034758971774,70
1712241331317,599616034766639038,6
1712241331325,599616034774306302,-61
1712241331332,599616034781973566,-6
1712241331340,599616034789640830,102
1712241331348,599616034797308094,109
1712241331355,599616034804975358,105
1712241331363,599616034812632634,150
1712241331371,599616034820300037,150
1712241331377,599616034827967440,130
1712241331385,599616034835634843,134
1712241331393,599616034843302246,187
1712241331401,599616034850969649,251
1712241331409,599616034858637052,162
1712241331417,599616034866304455,-36
1712241331424,599616034873971858,-66
1712241331432,599616034881639261,185
1712241331440,599616034889306664,532
1712241331447,599616034896974067,617
1712241331455,599616034904641470,244
1712241331463,599616034912308873,-262
1712241331470,599616034919976276,-427
1712241331478,599616034927643679,-349
1712241331486,599616034935311082,-322
1712241331493,599616034942978485,-297
1712241331501,599616034950645888,-230
1712241331509,599616034958313291,-210
1712241331516,599616034965980694,-219
1712241331524,599616034973648097,-185
1712241331532,599616034981315500,-114
1712241331539,599616034988982903,-36
1712241331547,599616034996650306,20
1712241331555,599616035004317709,34
1712241331561,599616035011985112,27
1712241331569,599616035019652515,68
1712241331577,599616035027319918,134
1712241331585,599616035034987321,176
1712241331593,599616035042654724,201
1712241331601,599616035050322127,217
1712241331608,599616035057989530,198
1712241331616,599616035065656933,155
1712241331624,599616035073324336,137
1712241331631,599616035080991739,171
1712241331639,599616035088659142,221
1712241331647,599616035096326545,235
1712241331654,599616035103993948,196
1712241331662,599616035111661351,148
1712241331670,599616035119328754,118
1712241331677,599616035126996157,109
1712241331685,599616035134663560,139
1712241331693,599616035142330963,187
1712241331700,599616035149998366,217
1712241331708,599616035157665769,228
1712241331716,599616035165333172,246
1712241331723,599616035173000575,285
1712241331731,599616035180667978,320
1712241331739,599616035188335381,311
1712241331745,599616035196002784,317
1712241331753,599616035203670187,349
1712241331761,599616035211337590,324
1712241331769,599616035219004993,251
1712241331777,599616035226672396,203
1712241331785,599616035234339799,217
1712241331792,599616035242007202,262
1712241331800,599616035249674605,272
1712241331808,599616035257342008,192
1712241331815,599616035265009411,130
1712241331823,599616035272676814,187
1712241331831,599616035280344217,242
1712241331838,599616035288011620,233
1712241331846,599616035295679023,262
1712241331854,599616035303346426,317
1712241331861,599616035311013829,320
1712241331869,599616035318681232,315
1712241331877,599616035326348635,340
1712241331884,599616035334016038,359
1712241331892,599616035341683441,388
1712241331900,599616035349350844,409
1712241331907,599616035357018247,379
1712241331915,599616035364685650,354
1712241331923,599616035372312924,331
1712241331929,599616035379980885,294
1712241331937,599616035387648846,322
1712241331945,599616035395316807,363
1712241331953,599616035402984768,359
1712241331961,599616035410652729,365
1712241331969,599616035418320690,381
1712241331976,599616035425988651,395
1712241331984,599616035433656612,404
1712241331992,599616035441324573,393
1712241331999,599616035448992534,308
1712241332007,599616035456660495,160
1712241332015,599616035464328456,96
1712241332022,599616035471996417,137
1712241332030,599616035479664378,182
1712241332038,599616035487332339,224
1712241332045,599616035495000300,249
1712241332053,599616035502668261,262
1712241332061,599616035510336222,448
1712241332068,599616035518004183,818
1712241332076,599616035525672144,971
1712241332084,599616035533340105,658
1712241332091,599616035541008066,233
1712241332099,599616035548676027,107
1712241332107,599616035556343988,160
1712241332113,599616035564011949,176
1712241332121,599616035571679910,166
1712241332129,599616035579347871,162
1712241332137,599616035587015832,146
1712241332145,599616035594683793,93
1712241332153,599616035602351754,32
1712241332160,599616035610019715,32
1712241332168,599616035617687676,22
1712241332176,599616035625355637,-22
1712241332183,599616035633023598,0
1712241332191,599616035640691559,27
1712241332199,599616035648359520,-48
1712241332206,599616035656027481,-84
1712241332214,599616035663695442,-11
1712241332222,599616035671363403,36
1712241332229,599616035679031364,64
1712241332237,599616035686699325,118
1712241332245,599616035694367286,107
1712241332252,599616035702035247,86
1712241332260,599616035709703208,150
1712241332268,599616035717371169,164
1712241332275,599616035725039130,59
1712241332283,599616035732707091,-2
1712241332291,599616035740375052,27
1712241332297,599616035748043013,38
1712241332305,599616035755710974,52
1712241332313,599616035763378935,118
1712241332321,599616035771046896,176
1712241332329,599616035778714857,182
1712241332337,599616035786382818,116
1712241332344,599616035794050779,-2
1712241332352,599616035801718740,-43
1712241332360,599616035809386701,38
1712241332367,599616035817054662,118
1712241332375,599616035824722623,139
1712241332383,599616035832390584,148
1712241332390,599616035840058545,141
1712241332398,599616035847726506,134
1712241332406,599616035855394467,162
1712241332413,599616035863062428,146
1712241332421,599616035870730389,98
1712241332429,599616035878398350,114
1712241332436,599616035886066311,137
1712241332444,599616035893734272,125
1712241332452,599616035901402233,132
1712241332459,599616035909070194,169
1712241332467,599616035916738155,210
1712241332475,599616035924406116,233
1712241332481,599616035932094166,253
1712241332489,599616035939761848,269
1712241332497,599616035947429530,265
1712241332505,599616035955097212,285
1712241332513,599616035962764894,290
1712241332521,599616035970432576,244
1712241332528,599616035978100258,221
1712241332536,599616035985767940,157
1712241332544,599616035993435622,2
1712241332551,599616036001103304,-20
1712241332559,599616036008770986,98
1712241332567,599616036016438668,132
1712241332574,599616036024106350,80
1712241332582,599616036031774032,43
1712241332590,599616036039441714,38
1712241332597,599616036047109396,68
1712241332605,599616036054777078,82
1712241332613,599616036062444760,52
1712241332620,599616036070112442,43
1712241332628,599616036077780124,82
1712241332636,599616036085447806,98
1712241332643,599616036093115488,116
1712241332651,599616036100783170,178
1712241332659,599616036108450852,171
1712241332665,599616036116118534,59
1712241332673,599616036123786216,-6
1712241332681,599616036131453898,128
1712241332689,599616036139121580,477
1712241332697,599616036146789262,791
1712241332705,599616036154456944,720
1712241332712,599616036162124626,338
1712241332720,599616036169792308,84
1712241332728,599616036177459990,75
1712241332735,599616036185127672,54
1712241332743,599616036192795354,20
1712241332751,599616036200463036,64
1712241332758,599616036208130718,77
1712241332766,599616036215798400,59
1712241332774,599616036223466082,112
1712241332781,599616036231133764,139
1712241332789,599616036238801446,45
1712241332797,599616036246469128,-16
1712241332804,599616036254136810,29
1712241332812,599616036261804492,73
1712241332820,599616036269472174,45
1712241332827,599616036277139856,4
1712241332835,599616036284807538,29
1712241332843,599616036292475220,57
1712241332849,599616036300142902,11
1712241332857,599616036307810584,4
1712241332865,599616036315478266,73
1712241332873,599616036323145948,57
1712241332881,599616036330813630,-75
1712241332889,599616036338481312,-132
1712241332896,599616036346148994,-70
1712241332904,599616036353816676,-66
1712241332912,599616036361484358,-121
1712241332919,599616036369152040,-102
1712241332927,599616036376819722,-75
1712241332935,599616036384487404,-123
1712241332942,599616036392155086,-109
1712241332950,599616036399822768,-32
1712241332958,599616036407490450,2
1712241332965,599616036415158132,25
1712241332973,599616036422825814,38
1712241332981,599616036430493496,-11
1712241332988,599616036438161178,-34
1712241332996,599616036445828860,16
1712241333004,599616036453496542,57
1712241333011,599616036461164224,89
1712241333019,599616036468831906,112
1712241333027,599616036476499588,73
1712241333033,599616036484167270,45
1712241333041,599616036491834976,112
1712241333049,599616036499502658,164
1712241333057,599616036507170340,146
1712241333065,599616036514838022,118
1712241333073,599616036522505704,11
1712241333080,599616036530173386,-134
1712241333088,599616036537841068,-105
1712241333096,599616036545508750,13
1712241333103,599616036553176432,43
1712241333111,599616036560844114,59
1712241333119,599616036568511796,66
1712241333126,599616036576179478,29
1712241333134,599616036583847160,41
1712241333142,599616036591514842,82
1712241333149,599616036599182524,64
1712241333157,599616036606850206,13
1712241333165,599616036614517888,2
1712241333172,599616036622185570,-4
1712241333180,599616036629853252,-25
1712241333188,599616036637520934,18
1712241333195,599616036645188616,121
1712241333203,599616036652856298,185
1712241333211,599616036660523980,189
1712241333217,599616036668191662,176
1712241333225,599616036675859344,173
1712241333233,599616036683527026,178
1712241333241,599616036691194708,205
1712241333249,599616036698862390,251
1712241333257,599616036706530072,281
1712241333264,599616036714197754,260
1712241333272,599616036721865436,185
1712241333280,599616036729533118,164
1712241333287,599616036737200800,182
1712241333295,599616036744868482,109
1712241333303,599616036752536164,201
1712241333310,599616036760203846,617
1712241333318,599616036767871528,855
1712241333326,599616036775539210,587
1712241333333,599616036783206892,203
1712241333341,599616036790874574,84
1712241333349,599616036798542256,137
1712241333356,599616036806209938,155
1712241333364,599616036813877620,146
1712241333372,599616036821545302,153
1712241333379,599616036829212984,187
1712241333387,599616036836880666,208
1712241333395,599616036844548348,176
1712241333401,599616036852216030,105
1712241333409,599616036859883712,13
1712241333417,599616036867551394,-61
1712241333425,599616036875219076,-52
1712241333433,599616036882886758,0
1712241333441,599616036890554440,22
1712241333448,599616036898222122,29
1712241333456,599616036905889804,6
1712241333464,599616036913557486,-34
1712241333471,599616036921225168,-11
1712241333479,599616036928892850,48
1712241333487,599616036936560532,57
1712241333494,599616036944228214,25
1712241333502,599616036951895896,-20
1712241333510,599616036959563578,-48
1712241333517,599616036967231260,-41
1712241333525,599616036974898942,-22
1712241333533,599616036982566624,2
1712241333540,599616036990234306,68
1712241333548,599616036997901988,144
1712241333556,599616037005569670,146
1712241333563,599616037013237352,148
1712241333571,599616037020905034,150
1712241333579,599616037028572716,-2
1712241333585,599616037036240398,-205
1712241333593,599616037043908080,-294
1712241333601,599616037051585870,-345
1712241333609,599616037059253412,-459
1712241333617,599616037066920954,-546
1712241333625,599616037074588496,-489
1712241333632,599616037082256038,-425
1712241333640,599616037089923580,-532
1712241333648,599616037097591122,-738
1712241333655,599616037105258664,-926
1712241333663,599616037112926206,-1093
1712241333671,599616037120593748,-1145
1712241333678,599616037128261290,-1013
1712241333686,599616037135928832,-841
1712241333694,599616037143596374,-727
1712241333701,599616037151263916,-626
1712241333709,599616037158931458,-560
1712241333717,599616037166599000,-523
1712241333724,599616037174266542,-445
1712241333732,599616037181934084,-347
1712241333740,599616037189601626,-299
1712241333747,599616037197269168,-276
1712241333755,599616037204936710,-249
1712241333763,599616037212604252,-228
1712241333771,599616037220271794,-189
1712241333777,599616037227939336,-116
1712241333785,599616037235606878,-59
1712241333793,599616037243274420,-73
1712241333801,599616037250941962,-171
1712241333809,599616037258609504,-249
1712241333817,599616037266277046,-214
1712241333824,599616037273944588,-173
1712241333832,599616037281612130,-192
1712241333840,599616037289279672,-210
1712241333847,599616037296947214,-249
1712241333855,599616037304614756,-299
1712241333863,599616037312282298,-262
1712241333870,599616037319949840,-144
1712241333878,599616037327617382,-59
1712241333886,599616037335284924,-64
1712241333893,599616037342952466,-57
1712241333901,599616037350620008,86
1712241333909,599616037358287550,336
1712241333916,599616037365955092,432
1712241333924,599616037373622634,166
1712241333932,599616037381290176,-164
1712241333939,599616037388957718,-182
1712241333947,599616037396625260,-153
1712241333955,599616037404292802,-297
1712241333961,599616037411960344,-322
1712241333969,599616037419627886,-192
1712241333977,599616037427295428,-123
1712241333985,599616037434962970,-109
1712241333993,599616037442630512,-91
1712241334001,599616037450298054,-91
1712241334008,599616037457965596,-73
1712241334016,599616037465633138,-16
1712241334024,599616037473300680,27
1712241334031,599616037480968222,43
1712241334039,599616037488635764,50
1712241334047,599616037496303306,45
1712241334054,599616037503970848,36
1712241334062,599616037511638390,43
1712241334070,599616037519305932,77
1712241334077,599616037526973474,105
1712241334085,599616037534641016,107
1712241334093,599616037542308558,96
1712241334100,599616037549976100,96
1712241334108,599616037557643642,93
1712241334116,599616037565311184,80
1712241334123,599616037572978726,29
1712241334131,599616037580646268,-73
1712241334139,599616037588313810,-192
1712241334145,599616037595981352,-290
1712241334153,599616037603648894,-345
1712241334161,599616037611311468,-352
1712241334169,599616037618979080,-363
1712241334177,599616037626646692,-407
1712241334185,599616037634314304,-436
1712241334192,599616037641981916,-489
1712241334200,599616037649649528,-541
1712241334208,599616037657317140,-491
1712241334215,599616037664984752,-441
1712241334223,599616037672652364,-468
1712241334231,599616037680319976,-434
1712241334238,599616037687987588,-372
1712241334246,599616037695655200,-441
1712241334254,599616037703322812,-498
1712241334261,599616037710990424,-402
1712241334269,599616037718658036,-322
1712241334277,599616037726325648,-313
1712241334284,599616037733993260,-269
1712241334292,599616037741660872,-235
1712241334300,599616037749328484,-274
1712241334307,599616037756996096,-370
1712241334315,599616037764663708,-443
1712241334323,599616037772331320,-404
1712241334329,599616037779998932,-301
1712241334337,599616037787666544,-292
1712241334345,599616037795334156,-384
1712241334353,599616037803001768,-413
1712241334361,599616037810669380,-356
1712241334369,599616037818336992,-304
1712241334376,599616037826004604,-278
1712241334384,599616037833672216,-311
1712241334392,599616037841339828,-363
1712241334399,599616037849007440,-331
1712241334407,599616037856675052,-251
1712241334415,599616037864342664,-212
1712241334422,599616037872010276,-169
1712241334430,599616037879677888,-123
1712241334438,599616037887345500,-132
1712241334445,599616037895013112,-148
1712241334453,599616037902680724,-118
1712241334461,599616037910348336,-80
1712241334468,599616037918015948,-41
1712241334476,599616037925683560,-13
1712241334484,599616037933351172,-73
1712241334491,599616037941018784,-214
1712241334499,599616037948686396,-226
1712241334507,599616037956354008,73
1712241334513,599616037964021620,493
1712241334521,599616037971689232,654
1712241334529,599616037979356844,411
1712241334537,599616037987024456,-4
1712241334545,599616037994692068,-182
1712241334553,599616038002359680,-98
1712241334560,599616038010027292,-45
1712241334568,599616038017694904,-36
1712241334576,599616038025362516,11
1712241334583,599616038033030128,-11
1712241334591,599616038040697740,-100
1712241334599,599616038048365352,-93
1712241334606,599616038056032964,-13
1712241334614,599616038063700576,13
1712241334622,599616038071368188,27
1712241334629,599616038079035800,22
1712241334637,599616038086703412,-66
1712241334645,599616038094371024,-109
1712241334652,599616038102038636,-57
1712241334660,599616038109706248,-22
1712241334668,599616038117373860,4
1712241334675,599616038125041472,27
1712241334683,599616038132709084,-57
1712241334691,599616038140376696,-153
1712241334697,599616038148044308,-86
1712241334705,599616038155711920,6
1712241334713,599616038163379532,25
1712241334721,599616038171057200,52
1712241334729,599616038178724673,57
1712241334737,599616038186392146,22
1712241334744,599616038194059619,52
1712241334752,599616038201727092,107
1712241334760,599616038209394565,102
1712241334767,599616038217062038,38
1712241334775,599616038224729511,-73
1712241334783,599616038232396984,-182
1712241334790,599616038240064457,-219
1712241334798,599616038247731930,-150
1712241334806,599616038255399403,-70
1712241334813,599616038263066876,-118
1712241334821,599616038270734349,-226
1712241334829,599616038278401822,-274
1712241334836,599616038286069295,-283
1712241334844,599616038293736768,-267
1712241334852,599616038301404241,-201
1712241334859,599616038309071714,-139
1712241334867,599616038316739187,-125
1712241334875,599616038324406660,-146
1712241334881,599616038332074133,-189
1712241334889,599616038339741606,-217
1712241334897,599616038347409079,-173
1712241334905,599616038355076552,-112
1712241334913,599616038362744025,-105
1712241334921,599616038370411498,-132
1712241334928,599616038378078971,-201
1712241334936,599616038385746444,-262
1712241334944,599616038393413917,-224
1712241334951,599616038401081390,-157
1712241334959,599616038408748863,-130
1712241334967,599616038416416336,-112
1712241334974,599616038424083809,-93
1712241334982,599616038431751282,-68
1712241334990,599616038439418755,-13
1712241334997,599616038447086228,-13
1712241335005,599616038454753701,-84
1712241335013,599616038462421174,-102
1712241335020,599616038470088647,-107
1712241335028,599616038477756120,-171
1712241335036,599616038485423593,-169
1712241335043,599616038493091066,-96
1712241335051,599616038500758539,-73
1712241335059,599616038508426012,-54
1712241335065,599616038516093485,4
1712241335073,599616038523760958,13
1712241335081,599616038531428431,-6
1712241335089,599616038539095904,-6
1712241335097,599616038546763377,34
1712241335105,599616038554430850,249
1712241335112,599616038562098323,589
1712241335120,599616038569765796,683
1712241335128,599616038577433269,349
1712241335135,599616038585100742,-54
1712241335143,599616038592768215,-144
1712241335151,599616038600435688,-57
1712241335158,599616038608103161,-45
1712241335166,599616038615770634,-52
1712241335174,599616038623438107,-34
1712241335181,599616038631105580,-36
1712241335189,599616038638773053,-59
1712241335197,599616038646440526,-64
1712241335204,599616038654107999,-27
1712241335212,599616038661775472,-6
1712241335220,599616038669442945,-77
1712241335227,599616038677110418,-150
1712241335235,599616038684777891,-116
1712241335243,599616038692445364,-38
1712241335249,599616038700112837,4
1712241335257,599616038707780310,36
1712241335265,599616038715447783,54
1712241335273,599616038723115256,48
1712241335281,599616038730767702,66
1712241335289,599616038738435384,118
1712241335296,599616038746103066,157
1712241335304,599616038753770748,214
1712241335312,599616038761438430,297
1712241335319,599616038769106112,272
1712241335327,599616038776773794,102
1712241335335,599616038784441476,-9
1712241335342,599616038792109158,-2
1712241335350,599616038799776840,-50
1712241335358,599616038807444522,-54
1712241335365,599616038815112204,70
1712241335373,599616038822779886,112
1712241335381,599616038830447568,100
1712241335388,599616038838115250,173
1712241335396,599616038845782932,208
1712241335404,599616038853450614,178
1712241335411,599616038861118296,128
1712241335419,599616038868785978,36
1712241335427,599616038876453660,11
1712241335433,599616038884121342,57
1712241335441,599616038891789024,36
1712241335449,599616038899456706,4
1712241335457,599616038907124388,-29
1712241335465,599616038914792070,-153
1712241335473,599616038922459752,-212
1712241335480,599616038930127434,-130
1712241335488,599616038937795116,-84
1712241335496,599616038945462798,-98
1712241335503,599616038953130480,-91
1712241335511,599616038960798162,-107
1712241335519,599616038968465844,-130
1712241335526,599616038976133526,-66
1712241335534,599616038983801208,2
1712241335542,599616038991468890,-50
1712241335549,599616038999136572,-130
1712241335557,599616039006804254,-182
1712241335565,599616039014471936,-265
1712241335572,599616039022139618,-288
1712241335580,599616039029807300,-230
1712241335588,599616039037474982,-217
1712241335595,599616039045142664,-233
1712241335603,599616039052810346,-194
1712241335611,599616039060478028,-164
1712241335617,599616039068145710,-208
1712241335625,599616039075813392,-217
1712241335633,599616039083481074,-164
1712241335641,599616039091148756,-162
1712241335649,599616039098816438,-185
1712241335657,599616039106484120,-194
1712241335664,599616039114151802,-210
1712241335672,599616039121819484,-208
1712241335680,599616039129487166,-176
1712241335687,599616039137154848,-178
1712241335695,599616039144822530,-123
1712241335703,599616039152490212,144
1712241335710,599616039160157894,468
1712241335718,599616039167825576,491
1712241335726,599616039175493258,148
1712241335733,599616039183160940,-194
1712241335741,599616039190828622,-242
1712241335749,599616039198496304,-208
1712241335756,599616039206163986,-317
1712241335764,599616039213831668,-391
1712241335772,599616039221499350,-324
1712241335779,599616039229167032,-274
1712241335787,599616039236834714,-269
1712241335795,599616039244502396,-240
1712241335801,599616039252170078,-219
1712241335809,599616039259837760,-208
1712241335817,599616039267505442,-160
1712241335825,599616039275173124,-171
1712241335833,599616039282840806,-278
1712241335841,599616039290508512,-297
1712241335848,599616039298176194,-185
1712241335856,599616039305843876,-128
1712241335864,599616039313511558,-176
1712241335871,599616039321179240,-180
1712241335879,599616039328846922,-105
1712241335887,599616039336514604,-32
1712241335894,599616039344182286,-4
1712241335902,599616039351849968,-75
1712241335910,599616039359517650,-171
1712241335917,599616039367185332,-132
1712241335925,599616039374853014,-48
1712241335933,599616039382520696,-18
1712241335940,599616039390188378,9
1712241335948,599616039397856060,-22
1712241335956,599616039405523742,-123
1712241335963,599616039413191424,-148
1712241335971,599616039420859106,-118
1712241335979,599616039428526788,-125
1712241335985,599616039436194470,-114
1712241335993,599616039443862152,-91
1712241336001,599616039451529834,-116
1712241336009,599616039459197516,-141
1712241336017,599616039466865198,-178
1712241336025,599616039474532880,-230
1712241336032,599616039482200562,-192
1712241336040,599616039489868244,-125
1712241336048,599616039497535926,-148
1712241336055,599616039505203608,-198
1712241336063,599616039512871290,-224
1712241336071,599616039520538972,-256
1712241336078,599616039528206654,-294
1712241336086,599616039535874336,-354
1712241336094,599616039543542018,-448
1712241336101,599616039551209700,-551
1712241336109,599616039558877382,-622
1712241336117,599616039566545064,-619
1712241336124,599616039574212746,-551
1712241336132,599616039581880428,-480
1712241336140,599616039589548110,-450
1712241336147,599616039597215792,-452
1712241336155,599616039604883474,-445
1712241336163,599616039612551156,-404
1712241336169,599616039620218838,-347
1712241336177,599616039627886520,-297
1712241336185,599616039635554202,-251
1712241336193,599616039643221884,-242
1712241336201,599616039650889566,-258
1712241336209,599616039658557248,-256
1712241336216,599616039666224930,-219
1712241336224,599616039673892612,-164
1712241336232,599616039681560294,-150
1712241336239,599616039689227976,-203
1712241336247,599616039696895658,-251
1712241336255,599616039704563340,-260
1712241336262,599616039712231022,-260
1712241336270,599616039719898704,-249
1712241336278,599616039727566386,-214
1712241336285,599616039735234068,-105
1712241336293,599616039742901750,109
1712241336301,599616039750569432,306
1712241336308,599616039758237114,306
1712241336316,599616039765904796,29
1712241336324,599616039773572478,-228
1712241336331,599616039781240160,-237
1712241336339,599616039788907842,-292
1712241336347,599616039796575524,-425
1712241336353,599616039804243206,-391
1712241336361,599616039811910888,-306
1712241336369,599616039819578570,-256
1712241336377,599616039827246252,-150
1712241336385,599616039834913934,-80
1712241336393,599616039842581616,-102
1712241336400,599616039850254362,-77
1712241336408,599616039857921974,18
1712241336416,599616039865589586,70
1712241336423,599616039873257198,75
1712241336431,599616039880924810,29
1712241336439,599616039888592422,-132
1712241336446,599616039896260034,-267
1712241336454,599616039903927646,-203
1712241336462,599616039911595258,-96
1712241336469,599616039919262870,-50
1712241336477,599616039926930482,-4
1712241336485,599616039934598094,13
1712241336492,599616039942265706,4
1712241336500,599616039949933318,29
1712241336508,599616039957600930,89
1712241336515,599616039965268542,118
1712241336523,599616039972936154,105
1712241336531,599616039980603766,75
1712241336539,599616039988271378,48
1712241336545,599616039995938990,64
1712241336553,599616040003606602,118
1712241336561,599616040011274214,144
1712241336569,599616040018941826,125
1712241336577,599616040026609438,102
1712241336585,599616040034277050,82
1712241336592,599616040041944662,50
1712241336600,599616040049612274,4
1712241336608,599616040057279886,-66
1712241336615,599616040064947498,-128
1712241336623,599616040072615110,-130
1712241336631,599616040080282722,-169
1712241336638,599616040087950334,-276
1712241336646,599616040095617946,-292
1712241336654,599616040103285558,-219
1712241336661,599616040110953170,-198
1712241336669,599616040118620782,-185
1712241336677,599616040126288394,-173
1712241336684,599616040133956006,-244
1712241336692,599616040141623618,-283
1712241336700,599616040149291230,-274
1712241336707,599616040156958842,-347
1712241336715,599616040164626454,-400
1712241336723,599616040172294066,-349
1712241336729,599616040179961678,-333
1712241336737,599616040187629290,-363
1712241336745,599616040195296902,-343
1712241336753,599616040202964514,-301
1712241336761,599616040210632126,-290
1712241336769,599616040218299738,-276
1712241336776,599616040225967350,-258
1712241336784,599616040233634962,-265
1712241336792,599616040241302574,-262
1712241336799,599616040248970186,-240
1712241336807,599616040256637798,-219
1712241336815,599616040264305410,-189
1712241336822,599616040271973022,-180
1712241336830,599616040279640634,-253
1712241336838,599616040287308246,-375
1712241336845,599616040294975858,-480
1712241336853,599616040302643470,-480
1712241336861,599616040310311082,-381
1712241336868,599616040317978694,-331
1712241336876,599616040325646306,-329
1712241336884,599616040333313918,-148
1712241336891,599616040340981530,235
1712241336899,599616040348649142,516
1712241336907,599616040356316754,448
1712241336913,599616040363984366,116
1712241336921,599616040371651978,-148
1712241336929,599616040379319590,-155
1712241336937,599616040386987202,-112
1712241336945,599616040394654814,-105
1712241336953,599616040402322426,-38
1712241336960,599616040409990090,18
1712241336968,599616040417657702,-11
1712241336976,599616040425325314,-114
1712241336983,599616040432992926,-187
1712241336991,599616040440660538,-144
1712241336999,599616040448328150,-59
1712241337006,599616040455995762,-11
1712241337014,599616040463663374,18
1712241337022,599616040471330986,-41
1712241337029,599616040478998598,-148
1712241337037,599616040486666210,-121
1712241337045,599616040494333822,-9
1712241337052,599616040502001434,43
1712241337060,599616040509669046,80
1712241337068,599616040517336658,109
1712241337075,599616040525004270,64
1712241337083,599616040532671882,27
1712241337091,599616040540339494,52
1712241337097,599616040548007106,43
1712241337105,599616040555674718,45
1712241337113,599616040563342330,93
1712241337121,599616040571009942,82
1712241337129,599616040578677554,52
1712241337137,599616040586345166,84
1712241337144,599616040594012778,109
1712241337152,599616040601680390,86
1712241337160,599616040609348002,48
1712241337167,599616040617015614,-48
1712241337175,599616040624683226,-164
1712241337183,599616040632350838,-148
1712241337190,599616040640018450,-64
1712241337198,599616040647686062,-45
1712241337206,599616040655353674,-54
1712241337213,599616040663021286,-54
1712241337221,599616040670688898,-73
1712241337229,599616040678356510,-96
1712241337236,599616040686024122,-123
1712241337244,599616040693691734,-139
1712241337252,599616040701359346,-118
1712241337259,599616040709026958,-128
1712241337267,599616040716694570,-180
1712241337275,599616040724362182,-219
1712241337281,599616040732029794,-249
1712241337289,599616040739697406,-258
1712241337297,599616040747365018,-230
1712241337305,599616040755032630,-258
1712241337313,599616040762700242,-347
1712241337321,599616040770367854,-363
1712241337328,599616040778035466,-304
1712241337336,599616040785703078,-304
1712241337344,599616040793370690,-375
1712241337351,599616040801038302,-384
1712241337359,599616040808705914,-343
1712241337367,599616040816373526,-372
1712241337374,599616040824041138,-363
1712241337382,599616040831708750,-246
1712241337390,599616040839376362,-185
1712241337397,599616040847043974,-212
1712241337405,599616040854711586,-221
1712241337413,599616040862379198,-214
1712241337420,599616040870046810,-221
1712241337428,599616040877714422,-198
1712241337436,599616040885382034,-160
1712241337443,599616040893049646,-150
1712241337451,599616040900717258,-150
1712241337459,599616040908384870,-169
1712241337465,599616040916052482,-157
1712241337473,599616040923720094,84
1712241337481,599616040931387706,496
1712241337489,599616040939055318,660
1712241337497,599616040946722930,400
1712241337505,599616040954390542,-34
1712241337512,599616040962058154,-267
1712241337520,599616040969740862,-244
1712241337528,599616040977408265,-198
1712241337535,599616040985075668,-205
1712241337543,599616040992743071,-169
1712241337551,599616041000410474,-98
1712241337558,599616041008077877,-77
1712241337566,599616041015745280,-61
1712241337574,599616041023412683,-13
1712241337581,599616041031080086,-38
1712241337589,599616041038747489,-137
1712241337597,599616041046414892,-148
1712241337604,599616041054082295,-160
1712241337612,599616041061749698,-278
1712241337620,599616041069417101,-306
1712241337627,599616041077084504,-212
1712241337635,599616041084751907,-150
1712241337643,599616041092419310,-109
1712241337649,599616041100086713,-80
1712241337657,599616041107754116,-80
1712241337665,599616041115421519,-80
1712241337673,599616041123088922,-73
1712241337681,599616041130756325,-75
1712241337689,599616041138423728,-70
1712241337696,599616041146091131,-48
1712241337704,599616041153758534,-93
1712241337712,599616041161425937,-212
1712241337719,599616041169093340,-246
1712241337727,599616041176760743,-187
1712241337735,599616041184428146,-150
1712241337742,599616041192095549,-146
1712241337750,599616041199762952,-144
1712241337758,599616041207430355,-173
1712241337765,599616041215097758,-214
1712241337773,599616041222765161,-205
1712241337781,599616041230432564,-148
1712241337788,599616041238099967,-121
1712241337796,599616041245767370,-123
1712241337804,599616041253434773,-105
1712241337811,599616041261102176,-102
1712241337819,599616041268769579,-116
1712241337827,599616041276436982,-98
1712241337833,599616041284104385,-125
1712241337841,599616041291771788,-256
1712241337849,599616041299439191,-379
1712241337857,599616041307106594,-397
1712241337865,599616041314773997,-361
1712241337873,599616041322441400,-313
1712241337880,599616041330108803,-276
1712241337888,599616041337776206,-304
1712241337896,599616041345443609,-372
1712241337903,599616041353111012,-443
1712241337911,599616041360778415,-466
1712241337919,599616041368445818,-400
1712241337926,599616041376113221,-336
1712241337934,599616041383780624,-299
1712241337942,599616041391448027,-269
1712241337949,599616041399115430,-297
1712241337957,599616041406782833,-333
1712241337965,599616041414450236,-269
1712241337972,599616041422117639,-194
1712241337980,599616041429785042,-187
1712241337988,599616041437452445,-182
1712241337995,599616041445119848,-187
1712241338003,599616041452787251,-217
1712241338011,599616041460454654,-205
1712241338017,599616041468122057,-162
1712241338025,599616041475789460,-130
1712241338033,599616041483456863,-112
1712241338041,599616041491124266,-178
1712241338049,599616041498791669,-320
1712241338057,599616041506459072,-242
1712241338064,599616041514126475,153
1712241338072,599616041521793878,471
1712241338080,599616041529441238,381
1712241338087,599616041537108920,-29
1712241338095,599616041544776602,-363
1712241338103,599616041552444284,-345
1712241338110,599616041560111966,-226
1712241338118,599616041567779648,-205
1712241338126,599616041575447330,-171
1712241338133,599616041583115012,-132
1712241338141,599616041590782694,-189
1712241338149,599616041598450376,-272
1712241338156,599616041606118058,-251
1712241338164,599616041613785740,-162
1712241338172,599616041621453422,-114
1712241338179,599616041629121104,-107
1712241338187,599616041636788786,-102
1712241338195,599616041644456468,-82
1712241338201,599616041652124150,-61
1712241338209,599616041659791832,-48
1712241338217,599616041667459514,-50
1712241338225,599616041675127196,-57
1712241338233,599616041682794878,-34
1712241338241,599616041690462560,-68
1712241338248,599616041698130242,-153
1712241338256,599616041705797924,-112
1712241338264,599616041713465606,-27
1712241338271,599616041721133288,-36
1712241338279,599616041728800970,-36
1712241338287,599616041736468652,4
1712241338294,599616041744136334,4
1712241338302,599616041751804016,2
1712241338310,599616041759471698,20
1712241338317,599616041767139380,-4
1712241338325,599616041774807062,-61
1712241338333,599616041782474744,-96
1712241338340,599616041790142426,-91
1712241338348,599616041797810108,-132
1712241338356,599616041805477790,-242
1712241338363,599616041813145472,-256
1712241338371,599616041820813154,-146
1712241338379,599616041828480836,-54
1712241338385,599616041836148518,-38
1712241338393,599616041843816200,-45
1712241338401,599616041851483882,-18
1712241338409,599616041859151564,4
1712241338417,599616041866819246,27
1712241338425,599616041874486928,75
1712241338432,599616041882154610,43
1712241338440,599616041889822292,-107
1712241338448,599616041897489974,-178
1712241338455,599616041905157656,-118
1712241338463,599616041912825338,-89
1712241338471,599616041920493020,-82
1712241338478,599616041928160702,-75
1712241338486,599616041935828384,-130
1712241338494,599616041943496066,-185
1712241338501,599616041951163748,-205
1712241338509,599616041958831430,-237
1712241338517,599616041966499112,-214
1712241338524,599616041974166794,-146
1712241338532,599616041981834476,-148
1712241338540,599616041989502158,-192
1712241338547,599616041997169840,-182
1712241338555,599616042004837522,-150
1712241338563,599616042012505204,-155
1712241338569,599616042020172886,-196
1712241338577,599616042027840568,-299
1712241338585,599616042035508250,-439
1712241338593,599616042043175932,-477
1712241338601,599616042050843614,-388
1712241338609,599616042058511296,-299
1712241338616,599616042066178978,-281
1712241338624,599616042073846660,-276
1712241338632,599616042081514342,-308
1712241338639,599616042089207176,-395
1712241338647,599616042096874509,-274
1712241338655,599616042104541842,157
1712241338662,599616042112209175,514
1712241338670,599616042119876508,477
1712241338678,599616042127543841,77
1712241338685,599616042135211174,-308
1712241338693,599616042142878507,-308
1712241338701,599616042150545840,-178
1712241338708,599616042158213173,-210
1712241338716,599616042165880506,-189
1712241338724,599616042173547839,-125
1712241338731,599616042181215172,-235
1712241338739,599616042188882505,-329
1712241338747,599616042196549838,-235
1712241338753,599616042204217171,-160
1712241338761,599616042211884504,-157
1712241338769,599616042219551837,-150
1712241338777,599616042227219170,-219
1712241338785,599616042234886503,-311
1712241338793,599616042242553836,-260
1712241338800,599616042250221169,-171
1712241338808,599616042257888502,-155
1712241338816,599616042265555835,-169
1712241338823,599616042273223168,-217
1712241338831,599616042280890501,-235
1712241338839,599616042288557834,-157
1712241338846,599616042296225167,-100
1712241338854,599616042303892500,-137
1712241338862,599616042311559833,-173
1712241338869,599616042319227166,-164
1712241338877,599616042326894499,-160
1712241338885,599616042334561832,-121
1712241338892,599616042342229165,-38
1712241338900,599616042349896498,16
1712241338908,599616042357563831,32
1712241338915,599616042365231164,20
1712241338923,599616042372898497,-16
1712241338931,599616042380565830,-32
1712241338937,599616042388233163,-4
1712241338945,599616042395900496,48
1712241338953,599616042403567829,82
1712241338961,599616042411235162,64
1712241338969,599616042418902495,-18
1712241338977,599616042426569828,-109
1712241338984,599616042434237161,-109
1712241338992,599616042441904494,-45
1712241339000,599616042449571827,-4
1712241339007,599616042457239160,9
1712241339015,599616042464906493,16
1712241339023,599616042472573826,20
1712241339030,599616042480241159,-2
1712241339038,599616042487908492,-43
1712241339046,599616042495575825,-48
1712241339053,599616042503243158,-29
1712241339061,599616042510910491,-70
1712241339069,599616042518577824,-150
1712241339076,599616042526245157,-189
1712241339084,599616042533912490,-189
1712241339092,599616042541579823,-214
1712241339099,599616042549247156,-272
1712241339107,599616042556914489,-306
1712241339115,599616042564581822,-311
1712241339121,599616042572249155,-331
1712241339129,599616042579916488,-324
1712241339137,599616042587583821,-258
1712241339145,599616042595251154,-221
1712241339153,599616042602918487,-217
1712241339161,599616042610585820,-185
1712241339168,599616042618253153,-166
1712241339176,599616042625920486,-173
1712241339184,599616042633587819,-166
1712241339191,599616042641255152,-160
1712241339199,599616042648902468,-155
1712241339207,599616042656570080,-128
1712241339214,599616042664237692,-137
1712241339222,599616042671905304,-182
1712241339230,599616042679572916,-50
1712241339237,599616042687240528,306
1712241339245,599616042694908140,599
1712241339253,599616042702575752,521
1712241339260,599616042710243364,77
1712241339268,599616042717910976,-329
1712241339276,599616042725578588,-347
1712241339283,599616042733246200,-253
1712241339291,599616042740913812,-294
1712241339299,599616042748581424,-276
1712241339305,599616042756249036,-228
1712241339313,599616042763916648,-327
1712241339321,599616042771584260,-402
1712241339329,599616042779251872,-336
1712241339337,599616042786919484,-253
1712241339345,599616042794587096,-203
1712241339352,599616042802254708,-146
1712241339360,599616042809922320,-146
1712241339368,599616042817589932,-217
1712241339375,599616042825257544,-217
1712241339383,599616042832925156,-93
1712241339391,599616042840592768,9
1712241339398,599616042848260380,29
1712241339406,599616042855927992,52
1712241339414,599616042863595604,80
1712241339421,599616042871263216,75
1712241339429,599616042878930828,80
1712241339437,599616042886598440,105
1712241339444,599616042894266052,84
1712241339452,599616042901933664,-48
1712241339460,599616042909601276,-294
1712241339467,599616042917268888,-493
1712241339475,599616042924936500,-459
1712241339483,599616042932604112,-274
1712241339491,599616042940271724,-98
1712241339497,599616042947939336,57
1712241339505,599616042955606948,128
1712241339513,599616042963274560,64
1712241339521,599616042970942172,75
1712241339529,599616042978609784,205
1712241339537,599616042986277396,260
1712241339544,599616042993945008,272
1712241339552,599616043001612620,313
1712241339560,599616043009280232,283
1712241339567,599616043016947844,258
1712241339575,599616043024615456,338
1712241339583,599616043032283068,409
1712241339590,599616043039950680,425
1712241339598,599616043047618292,436
1712241339606,599616043055285904,391
1712241339613,599616043062953516,322
1712241339621,599616043070621128,308
1712241339629,599616043078288740,290
1712241339636,599616043085956352,262
1712241339644,599616043093623964,240
1712241339652,599616043101291576,148
1712241339659,599616043108959188,11
1712241339667,599616043116626800,-38
1712241339675,599616043124294412,-20
1712241339681,599616043131962024,-29
1712241339689,599616043139629636,-73
1712241339697,599616043147297248,-121
1712241339705,599616043154964860,-155
1712241339713,599616043162632472,-155
1712241339721,599616043170300084,-105
1712241339728,599616043177967696,-52
1712241339736,599616043185635308,-50
1712241339744,599616043193302920,-80
1712241339751,599616043200970532,-107
1712241339759,599616043208633152,-109
1712241339767,599616043216300834,-77
1712241339774,599616043223968516,-41
1712241339782,599616043231636198,-29
1712241339790,599616043239303880,-41
1712241339797,599616043246971562,-98
1712241339805,599616043254639244,-192
1712241339813,599616043262306926,-121
1712241339820,599616043269974608,240
1712241339828,599616043277642290,585
1712241339836,599616043285309972,541
1712241339843,599616043292977654,141
1712241339851,599616043300645336,-262
1712241339859,599616043308313018,-420
1712241339865,599616043315980700,-468
1712241339873,599616043323648382,-523
1712241339881,599616043331316064,-459
1712241339889,599616043338983746,-336
1712241339897,599616043346651428,-283
1712241339905,599616043354319110,-244
1712241339912,599616043361986792,-201
1712241339920,599616043369654474,-187
1712241339928,599616043377322156,-157
1712241339935,599616043384989838,-93
1712241339943,599616043392657520,-45
1712241339951,599616043400325202,-41
1712241339958,599616043407992884,-36
1712241339966,599616043415660566,-6
1712241339974,599616043423328248,13
1712241339981,599616043430995930,22
1712241339989,599616043438663612,54
1712241339997,599616043446331294,64
1712241340004,599616043453998976,36
1712241340012,599616043461666658,41
1712241340020,599616043469334340,68
1712241340027,599616043477002022,91
1712241340035,599616043484669704,134
1712241340043,599616043492337386,153
1712241340049,599616043500005068,93
1712241340057,599616043507672750,32
1712241340065,599616043515340432,36
1712241340073,599616043523008114,66
1712241340081,599616043530675796,82
1712241340089,599616043538343478,57
1712241340096,599616043546011160,-50
1712241340104,599616043553678842,-137
1712241340112,599616043561346524,-121
1712241340119,599616043569014206,-89
1712241340127,599616043576681888,-66
1712241340135,599616043584349570,-20
1712241340142,599616043592017252,-4
1712241340150,599616043599684934,-34
1712241340158,599616043607352616,-41
1712241340165,599616043615020298,-6
1712241340173,599616043622687980,18
1712241340181,599616043630355662,20
1712241340188,599616043638023344,-22
1712241340196,599616043645691026,-114
1712241340204,599616043653358708,-155
1712241340211,599616043661026390,-107
1712241340219,599616043668694072,-98
1712241340227,599616043676361754,-155
1712241340233,599616043684029436,-166
1712241340241,599616043691697118,-162
1712241340249,599616043699364800,-212
1712241340257,599616043707032482,-237
1712241340265,599616043714700164,-240
1712241340273,599616043722367846,-260
1712241340280,599616043730035528,-269
1712241340288,599616043737703210,-327
1712241340296,599616043745370892,-420
1712241340303,599616043753038574,-411
1712241340311,599616043760706256,-361
1712241340319,599616043768384044,-381
1712241340326,599616043776051586,-381
1712241340334,599616043783719128,-361
1712241340342,599616043791386670,-391
1712241340349,599616043799054212,-407
1712241340357,599616043806721754,-379
1712241340365,599616043814389296,-416
1712241340372,599616043822056838,-496
1712241340380,599616043829724380,-532
1712241340388,599616043837391922,-516
1712241340395,599616043845059464,-274
1712241340403,599616043852727006,162
1712241340411,599616043860394548,269
1712241340417,599616043868062090,-102
1712241340425,599616043875729632,-418
1712241340433,599616043883397174,-411
1712241340441,599616043891064716,-368
1712241340449,599616043898732258,-372
1712241340457,599616043906399800,-299
1712241340464,599616043914067342,-219
1712241340472,599616043921734884,-201
1712241340480,599616043929402426,-214
1712241340487,599616043937069968,-237
1712241340495,599616043944737510,-205
1712241340503,599616043952405052,-134
1712241340510,599616043960072594,-82
1712241340518,599616043967740136,-43
1712241340526,599616043975407678,-34
1712241340533,599616043983075220,-57
1712241340541,599616043990742762,-89
1712241340549,599616043998410304,-107
1712241340556,599616044006077846,-68
1712241340564,599616044013745388,9
1712241340572,599616044021412930,27
1712241340579,599616044029080472,-73
1712241340587,599616044036748014,-171
1712241340595,599616044044415556,-125
1712241340601,599616044052083098,-22
1712241340609,599616044059750640,20
1712241340617,599616044067418182,25
1712241340625,599616044075085724,22
1712241340633,599616044082753266,6
1712241340641,599616044090420808,6
1712241340648,599616044098088350,48
1712241340656,599616044105755892,61
1712241340664,599616044113423434,16
1712241340671,599616044121090976,-16
1712241340679,599616044128758518,0
1712241340687,599616044136426060,4
1712241340694,599616044144093602,-4
1712241340702,599616044151761144,6
1712241340710,599616044159428686,0
1712241340717,599616044167096228,-22
1712241340725,599616044174763770,-50
1712241340733,599616044182431312,-109
1712241340740,599616044190098854,-128
1712241340748,599616044197766396,-86
1712241340756,599616044205433938,-77
1712241340763,599616044213101480,-80
1712241340771,599616044220769022,-54
1712241340779,599616044228436564,-59
1712241340785,599616044236104106,-107
1712241340793,599616044243771648,-148
1712241340801,599616044251439190,-164
1712241340809,599616044259106732,-192
1712241340817,599616044266774274,-210
1712241340825,599616044274441816,-194
1712241340832,599616044282109358,-185
1712241340840,599616044289776900,-178
1712241340848,599616044297444442,-189
1712241340855,599616044305111984,-246
1712241340863,599616044312779526,-304
1712241340871,599616044320447068,-368
1712241340878,599616044328109642,-427
1712241340886,599616044335777254,-429
1712241340894,599616044343444866,-413
1712241340901,599616044351112478,-395
1712241340909,599616044358780090,-349
1712241340917,599616044366447702,-329
1712241340924,599616044374115314,-384
1712241340932,599616044381782926,-429
1712241340940,599616044389450538,-386
1712241340947,599616044397118150,-331
1712241340955,599616044404785762,-333
1712241340963,599616044412453374,-343
1712241340969,599616044420120986,-322
1712241340977,599616044427788598,-146
1712241340985,599616044435456210,228
1712241340993,599616044443123822,436
1712241341001,599616044450791434,205
1712241341009,599616044458459046,-171
1712241341016,599616044466126658,-283
1712241341024,599616044473794270,-230
1712241341032,599616044481461882,-301
1712241341039,599616044489129494,-368
1712241341047,599616044496797106,-292
1712241341055,599616044504464718,-219
1712241341062,599616044512132330,-228
1712241341070,599616044519799942,-294
1712241341078,599616044527467554,-354
1712241341085,599616044535135166,-308
1712241341093,599616044542802778,-212
1712241341101,599616044550470390,-148
1712241341108,599616044558138002,-96
1712241341116,599616044565805614,-77
1712241341124,599616044573473226,-98
1712241341131,599616044581140838,-73
1712241341139,599616044588808450,2
1712241341147,599616044596476062,50
1712241341153,599616044604143674,82
1712241341161,599616044611811286,105
1712241341169,599616044619478898,82
1712241341177,599616044627146510,70
1712241341185,599616044634814122,121
1712241341193,599616044642481734,157
1712241341200,599616044650149346,164
1712241341208,599616044657816958,180
1712241341216,599616044665484570,162
1712241341223,599616044673152182,116
1712241341231,599616044680819794,130
1712241341239,599616044688487406,157
1712241341246,599616044696155018,141
1712241341254,599616044703822630,102
1712241341262,599616044711490242,11
1712241341269,599616044719157854,-118
1712241341277,599616044726825466,-173
1712241341285,599616044734493078,-162
1712241341292,599616044742160690,-132
1712241341300,599616044749828302,-86
1712241341308,599616044757495914,-100
1712241341315,599616044765163526,-146
1712241341323,599616044772831138,-105
1712241341331,599616044780498750,-25
1712241341337,599616044788166362,-16
1712241341345,599616044795833974,-34
1712241341353,599616044803501586,-11
1712241341361,599616044811169198,18
1712241341369,599616044818836810,-4
1712241341377,599616044826504422,-102
1712241341384,599616044834172034,-198
1712241341392,599616044841839646,-212
1712241341400,599616044849507258,-198
1712241341407,599616044857174870,-178
1712241341415,599616044864842482,-148
1712241341423,599616044872510094,-132
1712241341430,599616044880177706,-137
1712241341438,599616044887855374,-157
1712241341446,599616044895522847,-182
1712241341453,599616044903190320,-214
1712241341461,599616044910857793,-294
1712241341469,599616044918525266,-333
1712241341476,599616044926192739,-253
1712241341484,599616044933860212,-205
1712241341492,599616044941527685,-237
1712241341499,599616044949195158,-258
1712241341507,599616044956862631,-313
1712241341515,599616044964530104,-404
1712241341521,599616044972197577,-411
1712241341529,599616044979865050,-400
1712241341537,599616044987532523,-425
1712241341545,599616044995199996,-420
1712241341553,599616045002867469,-368
1712241341561,599616045010534942,-153
1712241341568,599616045018202415,244
1712241341576,599616045025869888,489
1712241341584,599616045033537361,297
1712241341591,599616045041204834,-139
1712241341599,599616045048872307,-379
1712241341607,599616045056539780,-393
1712241341614,599616045064207253,-429
1712241341622,599616045071874726,-388
1712241341630,599616045079542199,-251
1712241341637,599616045087209672,-224
1712241341645,599616045094877145,-230
1712241341653,599616045102544618,-173
1712241341660,599616045110212091,-144
1712241341668,599616045117879564,-125
1712241341676,599616045125547037,-93
1712241341683,599616045133214510,-77
1712241341691,599616045140881983,-38
1712241341699,599616045148549456,6
1712241341705,599616045156216929,-2
1712241341713,599616045163884402,-25
1712241341721,599616045171551875,-29
1712241341729,599616045179219348,4
1712241341737,599616045186886821,100
1712241341745,599616045194554294,176
1712241341752,599616045202221767,173
1712241341760,599616045209889240,148
1712241341768,599616045217556713,114
1712241341775,599616045225224186,41
1712241341783,599616045232891659,-4
1712241341791,599616045240559132,0
1712241341798,599616045248226605,-50
1712241341806,599616045255894078,-141
1712241341814,599616045263561551,-132
1712241341821,599616045271229024,-64
1712241341829,599616045278896497,-38
1712241341837,599616045286563970,-18
1712241341844,599616045294231443,13
1712241341852,599616045301898916,-32
1712241341860,599616045309566389,-109
1712241341867,599616045317233862,-84
1712241341875,599616045324901335,-34
1712241341883,599616045332568808,-105
1712241341889,599616045340236281,-180
1712241341897,599616045347903754,-148
1712241341905,599616045355571227,-121
1712241341913,599616045363238700,-112
1712241341921,599616045370906173,-57
1712241341929,599616045378573646,-4
1712241341936,599616045386241119,22
1712241341944,599616045393908592,48
1712241341952,599616045401576065,25
1712241341959,599616045409243538,-6
1712241341967,599616045416911011,34
1712241341975,599616045424578484,86
1712241341982,599616045432245957,32
1712241341990,599616045439913430,-75
1712241341998,599616045447591004,-128
1712241342005,599616045455258337,-107
1712241342013,599616045462925670,-57
1712241342021,599616045470593003,-98
1712241342028,599616045478260336,-201
1712241342036,599616045485927669,-240
1712241342044,599616045493595002,-297
1712241342051,599616045501262335,-384
1712241342059,599616045508929668,-356
1712241342067,599616045516597001,-272
1712241342073,599616045524264334,-226
1712241342081,599616045531931667,-194
1712241342089,599616045539599000,-205
1712241342097,599616045547266333,-251
1712241342105,599616045554933666,-237
1712241342113,599616045562600999,-182
1712241342120,599616045570268332,-132
1712241342128,599616045577935665,-107
1712241342136,599616045585602998,-164
1712241342143,599616045593270331,-276
1712241342151,599616045600937664,-212
1712241342159,599616045608604997,109
1712241342167,599616045616272330,432
1712241342174,599616045623939663,516
1712241342182,599616045631606996,244
1712241342190,599616045639274329,-155
1712241342197,599616045646941662,-219
1712241342205,599616045654608995,-93
1712241342213,599616045662276328,-89
1712241342220,599616045669943661,-75
1712241342228,599616045677610994,-6
1712241342236,599616045685278327,-4
1712241342243,599616045692945660,-18
1712241342251,599616045700612993,-2
1712241342259,599616045708280326,-9
1712241342265,599616045715947659,-57
1712241342273,599616045723614992,-93
1712241342281,599616045731282325,-75
1712241342289,599616045738949658,-34
1712241342297,599616045746616991,2
1712241342305,599616045754284324,38
1712241342312,599616045761951657,61
1712241342320,599616045769618990,43
1712241342328,599616045777286323,16
1712241342335,599616045784953656,-34
1712241342343,599616045792620989,-98
1712241342351,599616045800288322,-66
1712241342358,599616045807955655,13
1712241342366,599616045815622988,25
1712241342374,599616045823290321,27
1712241342381,599616045830957654,13
1712241342389,599616045838624987,-80
1712241342397,599616045846292320,-125
1712241342404,599616045853959653,-68
1712241342412,599616045861626986,-48
1712241342420,599616045869294319,-59
1712241342427,599616045876961652,-41
1712241342435,599616045884628985,-59
1712241342443,599616045892296318,-86
1712241342449,599616045899963651,-68
1712241342457,599616045907630984,-66
1712241342465,599616045915298317,-75
1712241342473,599616045922965650,-57
1712241342481,599616045930632983,-38
1712241342489,599616045938300316,-48
1712241342496,599616045945967649,-41
1712241342504,599616045953634982,-29
1712241342512,599616045961302315,-73
1712241342519,599616045968969648,-107
1712241342527,599616045976636981,-93
1712241342535,599616045984304314,-130
1712241342542,599616045991971647,-166
1712241342550,599616045999638980,-109
1712241342558,599616046007286296,-54
1712241342565,599616046014953908,-70
1712241342573,599616046022621520,-96
1712241342581,599616046030289132,-64
1712241342588,599616046037956744,-50
1712241342596,599616046045624356,-91
1712241342604,599616046053291968,-98
1712241342611,599616046060959580,-89
1712241342619,599616046068627192,-137
1712241342627,599616046076294804,-235
1712241342633,599616046083962416,-349
1712241342641,599616046091630028,-379
1712241342649,599616046099297640,-306
1712241342657,599616046106965252,-262
1712241342665,599616046114632864,-269
1712241342673,599616046122300476,-297
1712241342680,599616046129968088,-372
1712241342688,599616046137635700,-425
1712241342696,599616046145303312,-372
1712241342703,599616046152970924,-304
1712241342711,599616046160638536,-283
1712241342719,599616046168306148,-269
1712241342726,599616046175973760,-235
1712241342734,599616046183641372,-82
1712241342742,599616046191308984,242
1712241342749,599616046198976596,452
1712241342757,599616046206644208,198
1712241342765,599616046214311820,-269
1712241342772,599616046221979432,-413
1712241342780,599616046229647044,-320
1712241342788,599616046237314656,-306
1712241342795,599616046244982268,-290
1712241342803,599616046252649880,-192
1712241342811,599616046260317492,-139
1712241342817,599616046267985104,-153
1712241342825,599616046275652716,-185
1712241342833,599616046283320328,-194
1712241342841,599616046290987940,-137
1712241342849,599616046298655552,-80
1712241342857,599616046306323164,-73
1712241342864,599616046313990776,-70
1712241342872,599616046321658388,-123
1712241342880,599616046329326000,-203
1712241342887,599616046336993612,-235
1712241342895,599616046344661224,-262
1712241342903,599616046352328836,-272
1712241342910,599616046359996448,-224
1712241342918,599616046367664060,-205
1712241342926,599616046375331672,-228
1712241342933,599616046382999284,-173
1712241342941,599616046390666896,-82
1712241342949,599616046398334508,-54
1712241342956,599616046406002120,-61
1712241342964,599616046413669732,-54
1712241342972,599616046421337344,-66
1712241342979,599616046429004956,-86
1712241342987,599616046436672568,-64
1712241342995,599616046444340180,-32
1712241343001,599616046452007792,-73
1712241343009,599616046459675404,-178
1712241343017,599616046467343016,-242
1712241343025,599616046475010628,-249
1712241343033,599616046482678240,-228
1712241343041,599616046490345852,-176
1712241343048,599616046498013464,-132
1712241343056,599616046505681076,-130
1712241343064,599616046513348688,-157
1712241343071,599616046521016300,-192
1712241343079,599616046528683912,-192
1712241343087,599616046536351524,-132
1712241343094,599616046544019136,-75
1712241343102,599616046551686748,-61
1712241343110,599616046559354360,-52
1712241343117,599616046567047074,-22
1712241343125,599616046574714338,9
1712241343133,599616046582381602,34
1712241343140,599616046590048866,36
1712241343148,599616046597716130,-4
1712241343156,599616046605383394,-41
1712241343163,599616046613050658,-68
1712241343171,599616046620717922,-105
1712241343179,599616046628385186,-98
1712241343185,599616046636052450,-73
1712241343193,599616046643719714,-123
1712241343201,599616046651386978,-187
1712241343209,599616046659054242,-221
1712241343217,599616046666721506,-299
1712241343225,599616046674388770,-347
1712241343232,599616046682056034,-297
1712241343240,599616046689723298,-267
1712241343248,599616046697390562,-311
1712241343255,599616046705057826,-352
1712241343263,599616046712725090,-363
1712241343271,599616046720392354,-345
1712241343278,599616046728059618,-311
1712241343286,599616046735726882,-297
1712241343294,599616046743394146,-299
1712241343301,599616046751061410,-283
1712241343309,599616046758728674,-139
1712241343317,599616046766395938,217
1712241343324,599616046774063202,521
1712241343332,599616046781730466,425
1712241343340,599616046789397730,18
1712241343347,599616046797064994,-242
1712241343355,599616046804732258,-189
1712241343363,599616046812399522,-141
1712241343369,599616046820066786,-180
1712241343377,599616046827734050,-164
1712241343385,599616046835401314,-150
1712241343393,599616046843068578,-226
1712241343401,599616046850735842,-308
1712241343409,599616046858403106,-338
1712241343416,599616046866070370,-354
1712241343424,599616046873737634,-340
1712241343432,599616046881404898,-269
1712241343439,599616046889072162,-208
1712241343447,599616046896739426,-162
1712241343455,599616046904406690,-125
1712241343462,599616046912073954,-123
1712241343470,599616046919741218,-123
1712241343478,599616046927408482,-93
1712241343485,599616046935075746,-59
1712241343493,599616046942743010,-54
1712241343501,599616046950410274,-100
1712241343508,599616046958077538,-144
1712241343516,599616046965744802,-137
1712241343524,599616046973412066,-107
1712241343531,599616046981079330,-64
1712241343539,599616046988746594,-13
1712241343547,599616046996413858,6
1712241343553,599616047004081122,-32
1712241343561,599616047011748386,-91
1712241343569,599616047019415650,-84
1712241343577,599616047027082914,-27
1712241343585,599616047034750178,-29
1712241343593,599616047042417442,-59
1712241343600,599616047050084706,-98
1712241343608,599616047057751970,-201
1712241343616,599616047065419234,-244
1712241343623,599616047073086498,-141
1712241343631,599616047080753762,-48
1712241343639,599616047088421026,-16
1712241343646,599616047096088290,11
1712241343654,599616047103755554,20
1712241343662,599616047111422818,25
1712241343669,599616047119090082,73
1712241343677,599616047126737354,132
1712241343685,599616047134404896,171
1712241343692,599616047142072438,169
1712241343700,599616047149739980,73
1712241343708,599616047157407522,-41
1712241343715,599616047165075064,-32
1712241343723,599616047172742606,11
1712241343731,599616047180410148,-54
1712241343737,599616047188077690,-148
1712241343745,599616047195745232,-253
1712241343753,599616047203412774,-363
1712241343761,599616047211080316,-340
1712241343769,599616047218747858,-260
1712241343777,599616047226415400,-272
1712241343784,599616047234082942,-288
1712241343792,599616047241750484,-306
1712241343800,599616047249418026,-365
1712241343807,599616047257085568,-336
1712241343815,599616047264753110,-235
1712241343823,599616047272420652,-203
1712241343830,599616047280088194,-226
1712241343838,599616047287755736,-251
1712241343846,599616047295423278,-276
1712241343853,599616047303090820,-292
1712241343861,599616047310758362,-256
1712241343869,599616047318425904,-182
1712241343876,599616047326093446,-164
1712241343884,599616047333760988,-212
1712241343892,599616047341428530,-205
1712241343899,599616047349096072,-54
1712241343907,599616047356763614,208
1712241343915,599616047364431156,409
1712241343921,599616047372098698,306
1712241343929,599616047379766240,-82
1712241343937,599616047387433782,-391
1712241343945,599616047395101324,-455
1712241343953,599616047402768866,-452
1712241343961,599616047410436408,-402
1712241343968,599616047418103950,-304
1712241343976,599616047425771492,-258
1712241343984,599616047433439034,-269
1712241343991,599616047441106576,-340
1712241343999,599616047448774118,-386
1712241344007,599616047456441660,-306
1712241344014,599616047464109202,-221
1712241344022,599616047471776744,-217
1712241344030,599616047479444286,-194
1712241344037,599616047487111828,-144
1712241344045,599616047494779370,-139
1712241344053,599616047502446912,-128
1712241344060,599616047510114454,-91
1712241344068,599616047517781996,-93
1712241344076,599616047525449538,-84
1712241344083,599616047533117080,-27
1712241344091,599616047540784622,-16
1712241344099,599616047548452164,-52
1712241344105,599616047556119706,-45
1712241344113,599616047563787248,-18
1712241344121,599616047571454790,-4
1712241344129,599616047579122332,13
1712241344137,599616047586789874,0
1712241344145,599616047594457416,-68
1712241344152,599616047602124958,-112
1712241344160,599616047609792500,-84
1712241344168,599616047617460042,-18
1712241344175,599616047625127584,36
1712241344183,599616047632795126,13
1712241344191,599616047640462668,-38
1712241344198,599616047648130210,-32
1712241344206,599616047655797752,-4
1712241344214,599616047663465294,11
1712241344221,599616047671132836,64
1712241344229,599616047678800378,102
1712241344237,599616047686493048,36
1712241344244,599616047694160242,-16
1712241344252,599616047701827436,61
1712241344260,599616047709494630,141
1712241344267,599616047717161824,144
1712241344275,599616047724829018,141
1712241344283,599616047732496212,112
1712241344289,599616047740163406,0
1712241344297,599616047747830600,-77
1712241344305,599616047755497794,-48
1712241344313,599616047763164988,-32
1712241344321,599616047770832182,-54
1712241344329,599616047778499376,-70
1712241344336,599616047786166570,-160
1712241344344,599616047793833764,-258
1712241344352,599616047801500958,-235
1712241344359,599616047809168152,-203
1712241344367,599616047816835346,-224
1712241344375,599616047824502540,-233
1712241344382,599616047832169734,-278
1712241344390,599616047839836928,-333
1712241344398,599616047847504122,-329
1712241344405,599616047855171316,-356
1712241344413,599616047862838510,-379
1712241344421,599616047870505704,-329
1712241344428,599616047878172898,-336
1712241344436,599616047885840092,-400
1712241344444,599616047893507286,-368
1712241344451,599616047901174480,-294
1712241344459,599616047908841674,-274
1712241344467,599616047916508868,-265
1712241344473,599616047924176062,-244
1712241344481,599616047931843256,-96
1712241344489,599616047939510450,258
1712241344497,599616047947177644,514
1712241344505,599616047954844838,320
1712241344513,599616047962512032,-109
1712241344520,599616047970179226,-304
1712241344528,599616047977846420,-308
1712241344536,599616047985513614,-365
1712241344543,599616047993180808,-331
1712241344551,599616048000848002,-205
1712241344559,599616048008515196,-187
1712241344566,599616048016182390,-196
1712241344574,599616048023849584,-162
1712241344582,599616048031516778,-178
1712241344589,599616048039183972,-194
1712241344597,599616048046851166,-128
1712241344605,599616048054518360,-73
1712241344612,599616048062185554,-68
1712241344620,599616048069852748,-84
1712241344628,599616048077519942,-121
1712241344635,599616048085187136,-132
1712241344643,599616048092854330,-80
1712241344651,599616048100521524,-20
1712241344657,599616048108188718,6
1712241344665,599616048115855912,27
1712241344673,599616048123523106,-4
1712241344681,599616048131190300,-89
1712241344689,599616048138857494,-84
1712241344697,599616048146524688,34
1712241344704,599616048154191882,107
1712241344712,599616048161859076,82
1712241344720,599616048169526270,57
1712241344727,599616048177193464,64
1712241344735,599616048184860658,45
1712241344743,599616048192527852,41
1712241344750,599616048200195046,96
1712241344758,599616048207862240,141
1712241344766,599616048215529434,134
1712241344773,599616048223196628,116
1712241344781,599616048230863822,105
1712241344789,599616048238531016,91
1712241344796,599616048246178166,77
1712241344804,599616048253845639,80
1712241344812,599616048261513112,77
1712241344819,599616048269180585,29
1712241344827,599616048276848058,-54
1712241344835,599616048284515531,-70
1712241344841,599616048292183004,-6
1712241344849,599616048299850477,11
1712241344857,599616048307517950,2
1712241344865,599616048315185423,36
1712241344873,599616048322852896,-13
1712241344881,599616048330520369,-116
1712241344888,599616048338187842,-89
1712241344896,599616048345855315,-93
1712241344904,599616048353522788,-226
1712241344911,599616048361190261,-311
1712241344919,599616048368857734,-313
1712241344927,599616048376525207,-292
1712241344934,599616048384192680,-258
1712241344942,599616048391860153,-274
1712241344950,599616048399527626,-317
1712241344957,599616048407195099,-304
1712241344965,599616048414862572,-304
1712241344973,599616048422530045,-352
1712241344980,599616048430197518,-386
1712241344988,599616048437864991,-370
1712241344996,599616048445532464,-322
1712241345003,599616048453199937,-269
1712241345011,599616048460867410,-267
1712241345019,599616048468534883,-347
1712241345025,599616048476202356,-407
1712241345033,599616048483869829,-368
1712241345041,599616048491537302,-340
1712241345049,599616048499204775,-340
1712241345057,599616048506872248,-306
1712241345065,599616048514539721,-228
1712241345072,599616048522207194,20
1712241345080,599616048529874667,391
1712241345088,599616048537542140,519
1712241345095,599616048545209613,240
1712241345103,599616048552877086,-118
1712241345111,599616048560544559,-196
1712241345118,599616048568212032,-144
1712241345126,599616048575879505,-182
1712241345134,599616048583546978,-187
1712241345141,599616048591214451,-118
1712241345149,599616048598881924,-89
1712241345157,599616048606549397,-105
1712241345164,599616048614216870,-176
1712241345172,599616048621884343,-258
1712241345180,599616048629551816,-196
1712241345187,599616048637219289,-61
1712241345195,599616048644886762,-11
1712241345203,599616048652554235,20
1712241345209,599616048660221708,70
1712241345217,599616048667889181,57
1712241345225,599616048675556654,13
1712241345233,599616048683224127,59
1712241345241,599616048690891600,146
1712241345249,599616048698559073,210
1712241345256,599616048706226546,260
1712241345264,599616048713894019,267
1712241345272,599616048721561492,251
1712241345279,599616048729228965,290
1712241345287,599616048736896438,347
1712241345295,599616048744563911,391
1712241345302,599616048752231384,432
1712241345310,599616048759898857,423
1712241345318,599616048767566330,397
1712241345325,599616048775233803,432
1712241345333,599616048782901276,457
1712241345341,599616048790568749,429
1712241345348,599616048798236222,400
1712241345356,599616048805913796,331
1712241345364,599616048813581129,208
1712241345371,599616048821248462,178
1712241345379,599616048828915795,253
1712241345387,599616048836583128,292
1712241345393,599616048844250461,292
1712241345401,599616048851917794,276
1712241345409,599616048859585127,185
1712241345417,599616048867252460,41
1712241345425,599616048874919793,-45
1712241345433,599616048882587126,-2
1712241345440,599616048890254459,84
1712241345448,599616048897921792,105
1712241345456,599616048905589125,102
1712241345463,599616048913256458,114
1712241345471,599616048920923791,77
1712241345479,599616048928591124,61
1712241345486,599616048936258457,91
1712241345494,599616048943925790,54
1712241345502,599616048951593123,-11
1712241345509,599616048959260456,-4
1712241345517,599616048966927789,16
1712241345525,599616048974595122,-6
1712241345532,599616048982262455,-48
1712241345540,599616048989929788,-100
1712241345548,599616048997597121,-153
1712241345555,599616049005264454,-235
1712241345563,599616049012931787,-315
1712241345571,599616049020599120,-311
1712241345577,599616049028266453,-292
1712241345585,599616049035933786,-311
1712241345593,599616049043601119,-308
1712241345601,599616049051268452,-320
1712241345609,599616049058935785,-359
1712241345617,599616049066603118,-349
1712241345624,599616049074270451,-322
1712241345632,599616049081937784,-361
1712241345640,599616049089605117,-393
1712241345648,599616049097272450,-278
1712241345655,599616049104939783,16
1712241345663,599616049112607116,285
1712241345671,599616049120274449,219
1712241345678,599616049127941782,-182
1712241345686,599616049135609115,-452
1712241345694,599616049143276448,-397
1712241345701,599616049150943781,-418
1712241345709,599616049158611114,-562
1712241345717,599616049166278447,-553
1712241345724,599616049173945780,-480
1712241345732,599616049181613113,-466
1712241345740,599616049189280446,-416
1712241345747,599616049196947779,-324
1712241345755,599616049204615112,-281
1712241345763,599616049212282445,-240
1712241345769,599616049219949778,-173
1712241345777,599616049227617111,-100
1712241345785,599616049235284444,-48
1712241345793,599616049242951777,-27
1712241345801,599616049250619110,-13
1712241345809,599616049258286443,6
1712241345816,599616049265953776,6
1712241345824,599616049273621109,20
1712241345832,599616049281288442,64
1712241345839,599616049288955775,80
1712241345847,599616049296623108,61
1712241345855,599616049304290441,48
1712241345862,599616049311957774,43
1712241345870,599616049319625107,48
1712241345878,599616049327292440,64
1712241345885,599616049334959773,68
1712241345893,599616049342627106,20
1712241345901,599616049350294439,-93
1712241345908,599616049357961772,-169
1712241345916,599616049365639184,-201
1712241345924,599616049373306378,-276
1712241345931,599616049380973572,-292
1712241345939,599616049388640766,-233
1712241345947,599616049396307960,-267
1712241345953,599616049403975154,-345
1712241345961,599616049411642348,-338
1712241345969,599616049419309542,-276
1712241345977,599616049426976736,-235
1712241345985,599616049434643930,-233
1712241345993,599616049442311124,-285
1712241346000,599616049449978318,-349
1712241346008,599616049457645512,-343
1712241346016,599616049465312706,-290
1712241346023,599616049472979900,-249
1712241346031,599616049480647094,-208
1712241346039,599616049488314288,-173
1712241346046,599616049495981482,-194
1712241346054,599616049503648676,-228
1712241346062,599616049511315870,-226
1712241346069,599616049518983064,-244
1712241346077,599616049526650258,-253
1712241346085,599616049534317452,-244
1712241346092,599616049541984646,-313
1712241346100,599616049549651840,-379
1712241346108,599616049557319034,-349
1712241346115,599616049564986228,-356
1712241346123,599616049572653422,-391
1712241346131,599616049580320616,-407
1712241346137,599616049587987810,-471
1712241346145,599616049595655004,-500
1712241346153,599616049603322198,-425
1712241346161,599616049610989392,-365
1712241346169,599616049618656586,-338
1712241346177,599616049626323780,-297
1712241346184,599616049633990974,-315
1712241346192,599616049641658168,-388
1712241346200,599616049649325362,-423
1712241346207,599616049656992556,-441
1712241346215,599616049664659750,-441
1712241346223,599616049672326944,-409
1712241346230,599616049679994138,-482
1712241346238,599616049687661332,-516
1712241346246,599616049695328526,-150
1712241346253,599616049702995720,368
1712241346261,599616049710662914,400
1712241346269,599616049718330108,-70
1712241346276,599616049725997302,-457
1712241346284,599616049733664496,-425
1712241346292,599616049741331690,-285
1712241346299,599616049748998884,-285
1712241346307,599616049756666078,-281
1712241346315,599616049764333272,-210
1712241346321,599616049772000466,-164
1712241346329,599616049779667660,-153
1712241346337,599616049787334854,-118
1712241346345,599616049795002048,-66
1712241346353,599616049802669242,-64
1712241346361,599616049810336436,-82
1712241346368,599616049818003630,-34
1712241346376,599616049825670824,16
1712241346384,599616049833338018,20
1712241346391,599616049841005212,25
1712241346399,599616049848672406,50
1712241346407,599616049856339600,59
1712241346414,599616049864006794,43
1712241346422,599616049871673988,-22
1712241346430,599616049879341182,-171
1712241346437,599616049887008376,-276
1712241346445,599616049894675570,-233
1712241346453,599616049902342764,-212
1712241346460,599616049910009958,-260
1712241346468,599616049917677152,-235
1712241346476,599616049925314294,-164
1712241346483,599616049932981906,-150
1712241346491,599616049940649518,-139
1712241346499,599616049948317130,-98
1712241346505,599616049955984742,-84
1712241346513,599616049963652354,-75
1712241346521,599616049971319966,-59
1712241346529,599616049978987578,-105
1712241346537,599616049986655190,-173
1712241346545,599616049994322802,-148
1712241346552,599616050001990414,-82
1712241346560,599616050009658026,-27
1712241346568,599616050017325638,25
1712241346575,599616050024993250,25
1712241346583,599616050032660862,-11
1712241346591,599616050040328474,-32
1712241346598,599616050047996086,-43
1712241346606,599616050055663698,-45
1712241346614,599616050063331310,-11
1712241346621,599616050070998922,-50
1712241346629,599616050078666534,-251
1712241346637,599616050086334146,-432
1712241346644,599616050094001758,-452
1712241346652,599616050101669370,-420
1712241346660,599616050109336982,-397
1712241346667,599616050117004594,-340
1712241346675,599616050124672206,-269
1712241346683,599616050132339818,-226
1712241346689,599616050140007430,-244
1712241346697,599616050147675042,-317
1712241346705,599616050155342654,-359
1712241346713,599616050163010266,-361
1712241346721,599616050170677878,-404
1712241346729,599616050178345490,-436
1712241346736,599616050186013102,-407
1712241346744,599616050193680714,-349
1712241346752,599616050201348326,-304
1712241346759,599616050209015938,-297
1712241346767,599616050216683550,-299
1712241346775,599616050224351162,-311
1712241346782,599616050232018774,-333
1712241346790,599616050239686386,-299
1712241346798,599616050247353998,-288
1712241346805,599616050255021610,-409
1712241346813,599616050262689222,-530
1712241346821,599616050270356834,-443
1712241346828,599616050278024446,-68
1712241346836,599616050285692058,407
1712241346844,599616050293359670,610
1712241346851,599616050301027282,375
1712241346859,599616050308694894,13
1712241346867,599616050316362506,-64
1712241346873,599616050324030118,22
1712241346881,599616050331697730,16
1712241346889,599616050339365342,36
1712241346897,599616050347032954,137
1712241346905,599616050354700566,180
1712241346913,599616050362368178,214
1712241346920,599616050370035790,258
1712241346928,599616050377703402,160
1712241346936,599616050385371014,6
1712241346943,599616050393038626,-18
1712241346951,599616050400706238,9
1712241346959,599616050408373850,-2
1712241346966,599616050416041462,-68
1712241346974,599616050423709074,-171
1712241346982,599616050431376686,-173
1712241346989,599616050439044298,-75
1712241346997,599616050446711910,-4
1712241347005,599616050454379522,36
1712241347012,599616050462047134,32
1712241347020,599616050469714746,-2
1712241347028,599616050477382358,11
1712241347035,599616050485080116,50
1712241347043,599616050492747310,68
1712241347051,599616050500414504,57
1712241347057,599616050508081698,13
1712241347065,599616050515748892,-48
1712241347073,599616050523416086,-98
1712241347081,599616050531083280,-73
1712241347089,599616050538750474,-4
1712241347097,599616050546417668,41
1712241347104,599616050554084862,32
1712241347112,599616050561752056,-38
1712241347120,599616050569419250,-109
1712241347127,599616050577086444,-75
1712241347135,599616050584753638,0
1712241347143,599616050592420832,4
1712241347150,599616050600088026,-2
1712241347158,599616050607755220,-16
1712241347166,599616050615422414,-116
1712241347173,599616050623089608,-185
1712241347181,599616050630756802,-118
1712241347189,599616050638423996,-112
1712241347196,599616050646091190,-208
1712241347204,599616050653758384,-217
1712241347212,599616050661425578,-182
1712241347219,599616050669092772,-150
1712241347227,599616050676759966,-68
1712241347235,599616050684427160,-61
1712241347241,599616050692094354,-173
1712241347249,599616050699761548,-212
1712241347257,599616050707428742,-185
1712241347265,599616050715095936,-226
1712241347273,599616050722763130,-281
1712241347281,599616050730430324,-315
1712241347288,599616050738097518,-349
1712241347296,599616050745764712,-311
1712241347304,599616050753431906,-304
1712241347311,599616050761099100,-429
1712241347319,599616050768766294,-475
1712241347327,599616050776433488,-416
1712241347334,599616050784100682,-423
1712241347342,599616050791767876,-441
1712241347350,599616050799435070,-423
1712241347357,599616050807102264,-448
1712241347365,599616050814769458,-459
1712241347373,599616050822436652,-391
1712241347380,599616050830103846,-352
1712241347388,599616050837771040,-368
1712241347396,599616050845438234,-370
1712241347403,599616050853105428,-315
1712241347411,599616050860772622,-73
1712241347419,599616050868439816,290
1712241347425,599616050876107010,336
1712241347433,599616050883774204,-125
1712241347441,599616050891441398,-580
1712241347449,599616050899108592,-603
1712241347457,599616050906775786,-496
1712241347465,599616050914442980,-519
1712241347472,599616050922110174,-514
1712241347480,599616050929777368,-455
1712241347488,599616050937444562,-416
1712241347495,599616050945111756,-375
1712241347503,599616050952778950,-391
1712241347511,599616050960446144,-459
1712241347518,599616050968113338,-445
1712241347526,599616050975780532,-363
1712241347534,599616050983447726,-301
1712241347541,599616050991114920,-260
1712241347549,599616050998782114,-244
1712241347557,599616051006449308,-246
1712241347564,599616051014116502,-221
1712241347572,599616051021783696,-173
1712241347580,599616051029450890,-123
1712241347587,599616051037118084,-70
1712241347595,599616051044785322,-27
1712241347603,599616051052452516,-25
1712241347609,599616051060119710,-64
1712241347617,599616051067786904,-64
1712241347625,599616051075454098,-20
1712241347633,599616051083121292,-2
1712241347641,599616051090788486,-11
1712241347649,599616051098455680,-54
1712241347656,599616051106122874,-130
1712241347664,599616051113790068,-148
1712241347672,599616051121457262,-100
1712241347679,599616051129124456,-105
1712241347687,599616051136791650,-180
1712241347695,599616051144458844,-262
1712241347702,599616051152126038,-370
1712241347710,599616051159793232,-423
1712241347718,599616051167460426,-340
1712241347725,599616051175127620,-269
1712241347733,599616051182794814,-251
1712241347741,599616051190462008,-210
1712241347748,599616051198129202,-203
1712241347756,599616051205796396,-224
1712241347764,599616051213463590,-169
1712241347771,599616051221130784,-98
1712241347779,599616051228797978,-70
1712241347787,599616051236465172,-43
1712241347793,599616051244132366,-25
1712241347801,599616051251799560,-41
1712241347809,599616051259466754,-43
1712241347817,599616051267133948,-20
1712241347825,599616051274801142,-34
1712241347833,599616051282468336,-75
1712241347840,599616051290135530,-123
1712241347848,599616051297802724,-201
1712241347856,599616051305469918,-253
1712241347863,599616051313137112,-249
1712241347871,599616051320804306,-237
1712241347879,599616051328471500,-235
1712241347886,599616051336138694,-253
1712241347894,599616051343805888,-285
1712241347902,599616051351473082,-269
1712241347909,599616051359140276,-219
1712241347917,599616051366807470,-201
1712241347925,599616051374474664,-240
1712241347932,599616051382141858,-381
1712241347940,599616051389809052,-537
1712241347948,599616051397476246,-525
1712241347955,599616051405143440,-429
1712241347963,599616051412810634,-397
1712241347971,599616051420477828,-381
1712241347977,599616051428145022,-386
1712241347985,599616051435812216,-375
1712241347993,599616051443479410,-169
1712241348001,599616051451146604,226
1712241348009,599616051458813798,471
1712241348017,599616051466480992,301
1712241348024,599616051474148186,-130
1712241348032,599616051481815380,-345
1712241348040,599616051489482574,-306
1712241348047,599616051497149768,-361
1712241348055,599616051504816962,-377
1712241348063,599616051512484156,-246
1712241348070,599616051520151350,-210
1712241348078,599616051527818544,-217
1712241348086,599616051535485738,-162
1712241348093,599616051543152932,-132
1712241348101,599616051550820126,-116
1712241348109,599616051558487320,-82
1712241348116,599616051566154514,-86
1712241348124,599616051573821708,-82
1712241348132,599616051581488902,-6
1712241348139,599616051589156096,34
1712241348147,599616051596823290,0
1712241348155,599616051604470440,-2
1712241348161,599616051612137913,25
1712241348169,599616051619805386,0
