phoneTimestamp,sensorTimestamp,ecg
1712846317973,599616096548610242,12539
1712846317980,599616096556274092,12563
1712846317988,599616096563937942,12624
1712846317995,599616096571601792,12678
1712846318003,599616096579265642,12542
1712846318011,599616096586929492,12443
1712846318017,599616096594593342,12499
1712846318025,599616096602257192,12509
1712846318033,599616096609921042,12490
1712846318041,599616096617584892,12483
1712846318049,599616096625248742,12405
1712846318057,599616096632912592,12344
1712846318064,599616096640576442,12394
1712846318072,599616096648240292,12403
1712846318080,599616096655904142,12267
1712846318087,599616096663567992,12112
1712846318095,599616096671231842,11948
1712846318103,599616096678895692,11764
1712846318110,599616096686559542,11734
1712846318118,599616096694223392,11764
1712846318126,599616096701887242,11584
1712846318133,599616096709551092,11293
1712846318141,599616096717214942,11138
1712846318149,599616096724878792,11077
1712846318156,599616096732542642,10997
1712846318164,599616096740206492,10952
1712846318172,599616096747870342,10959
1712846318179,599616096755534192,10851
1712846318187,599616096763198042,10633
1712846318195,599616096770861892,10534
1712846318201,599616096778525742,10520
1712846318209,599616096786189592,10447
1712846318217,599616096793853442,10407
1712846318225,599616096801517292,10344
1712846318233,599616096809181142,10154
1712846318241,599616096816844992,10022
1712846318248,599616096824508842,9987
1712846318256,599616096832172692,9914
1712846318264,599616096839836542,9867
1712846318271,599616096847500392,9804
1712846318279,599616096855164242,9604
1712846318287,599616096862828092,9440
1712846318294,599616096870491942,9398
1712846318302,599616096878155792,9334
1712846318310,599616096885819642,9280
1712846318317,599616096893483492,9238
1712846318325,599616096901147342,9090
1712846318333,599616096908811192,8926
1712846318340,599616096916475042,8917
1712846318348,599616096924138892,8855
1712846318356,599616096931802742,8597
1712846318363,599616096939466592,8414
1712846318371,599616096947130442,8259
1712846318379,599616096954794292,8013
1712846318385,599616096962458142,7909
1712846318393,599616096970121992,7905
1712846318401,599616096977785842,7839
1712846318409,599616096985449692,7780
1712846318417,599616096993113542,7752
1712846318425,599616097000777392,7768
1712846318432,599616097008441242,7893
1712846318440,599616097016105092,8013
1712846318448,599616097023768942,7893
1712846318455,599616097031432792,7372
1712846318463,599616097039096642,6742
1712846318471,599616097046760492,6646
1712846318478,599616097054424342,6902
1712846318486,599616097062088192,6897
1712846318494,599616097069752042,6778
1712846318501,599616097077415892,6761
1712846318509,599616097085079742,6649
1712846318517,599616097092743592,6454
1712846318524,599616097100407442,6332
1712846318532,599616097108056256,6268
1712846318540,599616097115720315,6209
1712846318547,599616097123384374,6130
1712846318555,599616097131048433,6038
1712846318563,599616097138712492,5968
1712846318569,599616097146376551,5878
1712846318577,599616097154040610,5792
1712846318585,599616097161704669,5756
1712846318593,599616097169368728,5700
1712846318601,599616097177032787,5608
1712846318609,599616097184696846,5554
1712846318616,599616097192360905,5456
1712846318624,599616097200024964,5315
1712846318632,599616097207689023,5230
1712846318639,599616097215353082,5118
1712846318647,599616097223017141,4958
1712846318655,599616097230681200,4848
1712846318662,599616097238345259,4712
1712846318670,599616097246009318,4503
1712846318678,599616097253673377,4385
1712846318685,599616097261337436,4345
1712846318693,599616097269001495,4251
1712846318701,599616097276665554,4172
1712846318708,599616097284329613,4136
1712846318716,599616097291993672,4061
1712846318724,599616097299657731,3974
1712846318731,599616097307321790,3923
1712846318739,599616097314985849,3864
1712846318747,599616097322649908,3824
1712846318753,599616097330313967,3805
1712846318761,599616097337978026,3756
1712846318769,599616097345642085,3693
1712846318777,599616097353306144,3653
1712846318785,599616097360970203,3608
1712846318793,599616097368634262,3573
1712846318800,599616097376298321,3554
1712846318808,599616097383962380,3514
1712846318816,599616097391626439,3441
1712846318823,599616097399290498,3376
1712846318831,599616097406954557,3329
1712846318839,599616097414618616,3301
1712846318846,599616097422282675,3291
1712846318854,599616097429946734,3214
1712846318862,599616097437610793,3016
1712846318869,599616097445274852,2861
1712846318877,599616097452938911,2843
1712846318884,599616097460602970,2838
1712846318892,599616097468267029,2824
1712846318900,599616097475931088,2840
1712846318907,599616097483595147,2824
1712846318915,599616097491259206,2758
1712846318923,599616097498923265,2723
1712846318929,599616097506587324,2702
1712846318937,599616097514251383,2660
1712846318945,599616097521915442,2638
1712846318953,599616097529579501,2620
1712846318961,599616097537243560,2540
1712846318969,599616097544907619,2467
1712846318976,599616097552571678,2465
1712846318984,599616097560235737,2474
1712846318992,599616097567899796,2455
1712846318999,599616097575563855,2432
1712846319007,599616097583227914,2390
1712846319015,599616097590891973,2418
1712846319022,599616097598556032,2608
1712846319030,599616097606220091,2829
1712846319038,599616097613884150,2861
1712846319045,599616097621548209,2594
1712846319053,599616097629212268,2019
1712846319061,599616097636876327,1636
1712846319068,599616097644540386,1868
1712846319076,599616097652204445,2098
1712846319084,599616097659868504,1953
1712846319091,599616097667502482,1873
1712846319099,599616097675166959,1894
1712846319107,599616097682831436,1781
1712846319113,599616097690495913,1681
1712846319121,599616097698160390,1704
1712846319129,599616097705824867,1718
1712846319137,599616097713489344,1688
1712846319145,599616097721153821,1627
1712846319153,599616097728818298,1504
1712846319160,599616097736482775,1415
1712846319168,599616097744147252,1441
1712846319176,599616097751811729,1479
1712846319183,599616097759476206,1469
1712846319191,599616097767140683,1450
1712846319199,599616097774805160,1411
1712846319206,599616097782469637,1338
1712846319214,599616097790134114,1291
1712846319222,599616097797798591,1253
1712846319229,599616097805463068,1190
1712846319237,599616097813127545,1141
1712846319245,599616097820792022,1096
1712846319252,599616097828456499,1044
1712846319260,599616097836120976,1030
1712846319268,599616097843785453,1047
1712846319275,599616097851449930,1037
1712846319283,599616097859114407,1002
1712846319291,599616097866778884,971
1712846319297,599616097874443361,941
1712846319305,599616097882107838,917
1712846319313,599616097889772315,915
1712846319321,599616097897436792,915
1712846319329,599616097905101269,892
1712846319337,599616097912765746,873
1712846319344,599616097920430223,878
1712846319352,599616097928094700,824
1712846319360,599616097935759177,694
1712846319367,599616097943423654,601
1712846319375,599616097951088131,596
1712846319383,599616097958752608,608
1712846319390,599616097966417085,577
1712846319398,599616097974081562,481
1712846319406,599616097981746039,408
1712846319413,599616097989410516,422
1712846319421,599616097997074993,436
1712846319429,599616098004739470,422
1712846319436,599616098012403947,420
1712846319444,599616098020068424,401
1712846319452,599616098027732901,373
1712846319459,599616098035397378,370
1712846319467,599616098043061855,368
1712846319475,599616098050726332,368
1712846319481,599616098058390809,380
1712846319489,599616098066055286,373
1712846319497,599616098073719763,342
1712846319505,599616098081384240,335
1712846319513,599616098089048717,342
1712846319521,599616098096713194,356
1712846319528,599616098104377671,396
1712846319536,599616098112042148,415
1712846319544,599616098119706625,392
1712846319551,599616098127371102,370
1712846319559,599616098135035579,349
1712846319567,599616098142700056,335
1712846319574,599616098150364533,345
1712846319582,599616098158029010,354
1712846319590,599616098165693487,338
1712846319597,599616098173357964,284
1712846319605,599616098181022441,225
1712846319613,599616098188686918,232
1712846319620,599616098196351395,258
1712846319628,599616098204015872,227
1712846319636,599616098211680349,225
1712846319643,599616098219344826,352
1712846319651,599616098227024368,556
1712846319659,599616098234688636,690
1712846319665,599616098242352904,605
1712846319673,599616098250017172,201
1712846319681,599616098257681440,-253
1712846319689,599616098265345708,-223
1712846319697,599616098273009976,98
1712846319705,599616098280674244,159
1712846319712,599616098288338512,100
1712846319720,599616098296002780,161
1712846319728,599616098303667048,180
1712846319735,599616098311331316,79
1712846319743,599616098318995584,-11
1712846319751,599616098326659852,-46
1712846319758,599616098334324120,-82
1712846319766,599616098341988388,-115
1712846319774,599616098349652656,-138
1712846319781,599616098357316924,-227
1712846319789,599616098364981192,-335
1712846319797,599616098372645460,-331
1712846319804,599616098380309728,-253
1712846319812,599616098387973996,-208
1712846319820,599616098395638264,-173
1712846319827,599616098403302532,-150
1712846319835,599616098410966800,-185
1712846319843,599616098418631068,-241
1712846319849,599616098426295336,-251
1712846319857,599616098433959604,-260
1712846319865,599616098441623872,-338
1712846319873,599616098449288140,-406
1712846319881,599616098456952408,-410
1712846319889,599616098464616676,-392
1712846319896,599616098472280944,-347
1712846319904,599616098479945212,-284
1712846319911,599616098487609480,-241
1712846319919,599616098495273748,-230
1712846319927,599616098502938016,-262
1712846319934,599616098510602284,-295
1712846319942,599616098518266552,-272
1712846319950,599616098525930820,-218
1712846319957,599616098533595088,-173
1712846319965,599616098541259356,-150
1712846319973,599616098548923624,-180
1712846319980,599616098556587892,-248
1712846319988,599616098564252160,-260
1712846319996,599616098571916428,-190
1712846320003,599616098579580696,-131
1712846320011,599616098587244964,-112
1712846320019,599616098594909232,-98
1712846320025,599616098602573500,-89
1712846320033,599616098610237768,-82
1712846320041,599616098617902036,-46
1712846320049,599616098625566304,2
1712846320057,599616098633230572,28
1712846320065,599616098640894840,25
1712846320072,599616098648559108,11
1712846320080,599616098656223376,-2
1712846320088,599616098663887644,-35
1712846320095,599616098671551912,-70
1712846320103,599616098679216180,-63
1712846320111,599616098686880448,-58
1712846320118,599616098694544716,-105
1712846320126,599616098702208984,-185
1712846320134,599616098709873252,-225
1712846320141,599616098717537520,-180
1712846320149,599616098725201788,-133
1712846320157,599616098732866056,-133
1712846320164,599616098740530324,-110
1712846320172,599616098748194592,-65
1712846320180,599616098755858860,-75
1712846320187,599616098763523128,-105
1712846320195,599616098771187396,-98
1712846320203,599616098778851664,-103
1712846320209,599616098786485852,-122
1712846320217,599616098794150538,-112
1712846320225,599616098801815224,-103
1712846320233,599616098809479910,-96
1712846320241,599616098817144596,-84
1712846320249,599616098824809282,-89
1712846320256,599616098832473968,-79
1712846320264,599616098840138654,-70
1712846320272,599616098847803340,-126
1712846320279,599616098855468026,-166
1712846320287,599616098863132712,-86
1712846320295,599616098870797398,79
1712846320302,599616098878462084,260
1712846320310,599616098886126770,312
1712846320318,599616098893791456,11
1712846320325,599616098901456142,-631
1712846320333,599616098909120828,-1025
1712846320341,599616098916785514,-795
1712846320348,599616098924450200,-490
1712846320356,599616098932114886,-493
1712846320364,599616098939779572,-521
1712846320371,599616098947444258,-521
1712846320379,599616098955108944,-572
1712846320387,599616098962773630,-568
1712846320393,599616098970438316,-504
1712846320401,599616098978103002,-453
1712846320409,599616098985767688,-415
1712846320417,599616098993432374,-385
1712846320425,599616099001097060,-366
1712846320433,599616099008761746,-335
1712846320440,599616099016426432,-286
1712846320448,599616099024091118,-237
1712846320456,599616099031755804,-204
1712846320463,599616099039420490,-194
1712846320471,599616099047085176,-204
1712846320479,599616099054749862,-199
1712846320486,599616099062414548,-157
1712846320494,599616099070079234,-100
1712846320502,599616099077743920,-53
1712846320509,599616099085408606,-68
1712846320517,599616099093073292,-171
1712846320525,599616099100737978,-241
1712846320532,599616099108402664,-197
1712846320540,599616099116067350,-140
1712846320548,599616099123732036,-110
1712846320555,599616099131396722,-70
1712846320563,599616099139061408,-65
1712846320571,599616099146726094,-105
1712846320577,599616099154390780,-150
1712846320585,599616099162055466,-183
1712846320593,599616099169720152,-178
1712846320601,599616099177384838,-133
1712846320609,599616099185049524,-115
1712846320617,599616099192714210,-140
1712846320624,599616099200378896,-136
1712846320632,599616099208043582,-84
1712846320640,599616099215708268,-46
1712846320647,599616099223372954,-37
1712846320655,599616099231037640,-56
1712846320663,599616099238702326,-124
1712846320670,599616099246367012,-164
1712846320678,599616099254031698,-124
1712846320686,599616099261696384,-70
1712846320693,599616099269361070,-30
1712846320701,599616099277025756,-4
1712846320709,599616099284690442,-18
1712846320716,599616099292355128,-39
1712846320724,599616099300019814,-14
1712846320732,599616099307684500,30
1712846320739,599616099315349186,63
1712846320747,599616099323013872,58
1712846320755,599616099330678558,-2
1712846320761,599616099338343244,-58
1712846320769,599616099346038046,-44
1712846320777,599616099353702314,-9
1712846320785,599616099361366582,4
1712846320793,599616099369030850,0
1712846320801,599616099376695118,-37
1712846320808,599616099384359386,-126
1712846320816,599616099392023654,-190
1712846320824,599616099399687922,-201
1712846320831,599616099407352190,-251
1712846320839,599616099415016458,-286
1712846320847,599616099422680726,-262
1712846320854,599616099430344994,-284
1712846320862,599616099438009262,-328
1712846320870,599616099445673530,-328
1712846320877,599616099453337798,-401
1712846320885,599616099461002066,-521
1712846320893,599616099468666334,-542
1712846320900,599616099476330602,-556
1712846320908,599616099483994870,-598
1712846320916,599616099491659138,-568
1712846320923,599616099499323406,-500
1712846320931,599616099506987674,-464
1712846320939,599616099514651942,-455
1712846320945,599616099522316210,-441
1712846320953,599616099529980478,-413
1712846320961,599616099537644746,-338
1712846320969,599616099545309014,-143
1712846320977,599616099552973282,115
1712846320985,599616099560637550,246
1712846320992,599616099568301818,105
1712846321000,599616099575966086,-387
1712846321008,599616099583630354,-859
1712846321015,599616099591294622,-720
1712846321023,599616099598958890,-326
1712846321031,599616099606623158,-286
1712846321038,599616099614287426,-328
1712846321046,599616099621951694,-232
1712846321054,599616099629615962,-197
1712846321061,599616099637280230,-199
1712846321069,599616099644944498,-176
1712846321076,599616099652608766,-218
1712846321084,599616099660273034,-244
1712846321092,599616099667937302,-178
1712846321099,599616099675601570,-133
1712846321107,599616099683265838,-131
1712846321115,599616099690930106,-89
1712846321121,599616099698594374,-44
1712846321129,599616099706258642,-16
1712846321137,599616099713922910,30
1712846321145,599616099721587178,65
1712846321153,599616099729251446,75
1712846321161,599616099736915714,96
1712846321168,599616099744579982,112
1712846321176,599616099752244250,105
1712846321184,599616099759908518,103
1712846321191,599616099767572786,82
1712846321199,599616099775237054,0
1712846321207,599616099782901322,-61
1712846321214,599616099790565590,-46
1712846321222,599616099798229858,-9
1712846321230,599616099805894126,23
1712846321237,599616099813558394,53
1712846321245,599616099821222662,53
1712846321253,599616099828886930,25
1712846321260,599616099836551198,7
1712846321268,599616099844215466,18
1712846321276,599616099851879734,49
1712846321283,599616099859544002,75
1712846321291,599616099867208270,86
1712846321299,599616099874872538,86
1712846321305,599616099882536806,86
1712846321313,599616099890201074,75
1712846321321,599616099897865342,35
1712846321329,599616099905529628,-11
1712846321337,599616099913193896,-49
1712846321345,599616099920858164,-84
1712846321352,599616099928522432,-119
1712846321360,599616099936186700,-129
1712846321368,599616099943850968,-112
1712846321375,599616099951515236,-107
1712846321383,599616099959179504,-194
1712846321391,599616099966843772,-396
1712846321398,599616099974508040,-542
1712846321406,599616099982172308,-497
1712846321414,599616099989836576,-415
1712846321421,599616099997500844,-389
1712846321429,599616100005165112,-342
1712846321437,599616100012829380,-302
1712846321444,599616100020493648,-326
1712846321452,599616100028157916,-342
1712846321460,599616100035822184,-338
1712846321467,599616100043486452,-340
1712846321475,599616100051150720,-338
1712846321483,599616100058814988,-368
1712846321489,599616100066479256,-424
1712846321497,599616100074143524,-434
1712846321505,599616100081807792,-389
1712846321513,599616100089472060,-349
1712846321521,599616100097136328,-321
1712846321529,599616100104800596,-326
1712846321536,599616100112464864,-415
1712846321544,599616100120129132,-500
1712846321552,599616100127793400,-439
1712846321559,599616100135457668,-359
1712846321567,599616100143121936,-387
1712846321575,599616100150786204,-417
1712846321582,599616100158450472,-401
1712846321590,599616100166114740,-403
1712846321598,599616100173779008,-385
1712846321605,599616100181443276,-328
1712846321613,599616100189107544,-281
1712846321621,599616100196771812,-248
1712846321628,599616100204436080,-227
1712846321636,599616100212100348,-218
1712846321644,599616100219764616,-187
1712846321651,599616100227428884,-131
1712846321659,599616100235093152,-44
1712846321667,599616100242757420,122
1712846321673,599616100250421688,342
1712846321681,599616100258085956,471
1712846321689,599616100265750224,387
1712846321697,599616100273414492,18
1712846321705,599616100281078760,-394
1712846321713,599616100288743028,-349
1712846321720,599616100296407296,-18
1712846321728,599616100304071564,28
1712846321736,599616100311735832,-107
1712846321743,599616100319400100,-96
1712846321751,599616100327064368,-16
1712846321759,599616100334728636,-2
1712846321766,599616100342392904,-4
1712846321774,599616100350057172,23
1712846321782,599616100357721440,49
1712846321789,599616100365385708,58
1712846321797,599616100373049976,86
1712846321805,599616100380714244,110
1712846321812,599616100388378512,65
1712846321820,599616100396042780,16
1712846321828,599616100403707048,35
1712846321835,599616100411371316,63
1712846321843,599616100419035584,77
1712846321851,599616100426699852,117
1712846321857,599616100434364120,143
1712846321865,599616100442028388,154
1712846321873,599616100449692656,178
1712846321881,599616100457356924,159
1712846321889,599616100465006160,58
1712846321897,599616100472670637,-65
1712846321904,599616100480335114,-117
1712846321912,599616100487999591,-133
1712846321920,599616100495664068,-178
1712846321927,599616100503328545,-241
1712846321935,599616100510993022,-300
1712846321943,599616100518657499,-305
1712846321950,599616100526321976,-286
1712846321958,599616100533986453,-286
1712846321966,599616100541650930,-265
1712846321973,599616100549315407,-274
1712846321981,599616100556979884,-352
1712846321989,599616100564644361,-373
1712846321996,599616100572308838,-319
1712846322004,599616100579973315,-281
1712846322012,599616100587637792,-237
1712846322019,599616100595302269,-194
1712846322027,599616100602966746,-194
1712846322035,599616100610631223,-225
1712846322041,599616100618295700,-251
1712846322049,599616100625960177,-267
1712846322057,599616100633624654,-319
1712846322065,599616100641289131,-413
1712846322073,599616100648953608,-504
1712846322081,599616100656618085,-570
1712846322088,599616100664282562,-568
1712846322096,599616100671947039,-514
1712846322104,599616100679611516,-471
1712846322111,599616100687275993,-441
1712846322119,599616100694940470,-415
1712846322126,599616100702604947,-410
1712846322134,599616100710269424,-406
1712846322142,599616100717933901,-366
1712846322149,599616100725598378,-309
1712846322157,599616100733262855,-262
1712846322165,599616100740927332,-223
1712846322172,599616100748591809,-213
1712846322180,599616100756256286,-225
1712846322188,599616100763920763,-197
1712846322195,599616100771585240,-150
1712846322203,599616100779249717,-107
1712846322211,599616100786914194,-51
1712846322217,599616100794578671,-21
1712846322225,599616100802243148,-37
1712846322233,599616100809907625,-23
1712846322241,599616100817572102,7
1712846322249,599616100825236579,7
1712846322257,599616100832901056,14
1712846322264,599616100840565533,4
1712846322272,599616100848230010,-86
1712846322280,599616100855894487,-136
1712846322287,599616100863558964,-70
1712846322295,599616100871223441,-21
1712846322303,599616100878887918,-58
1712846322310,599616100886552395,-105
1712846322318,599616100894216872,-100
1712846322326,599616100901881349,11
1712846322333,599616100909545826,253
1712846322341,599616100917210303,471
1712846322349,599616100924874780,495
1712846322356,599616100932539257,197
1712846322364,599616100940203734,-338
1712846322372,599616100947868211,-493
1712846322379,599616100955532688,-112
1712846322387,599616100963197165,100
1712846322395,599616100970861642,14
1712846322401,599616100978526119,-46
1712846322409,599616100986190596,-96
1712846322417,599616100993855073,-133
1712846322425,599616101001519550,-110
1712846322433,599616101009184027,-70
1712846322441,599616101016848504,-25
1712846322448,599616101024513000,-2
1712846322456,599616101032177477,-25
1712846322464,599616101039841954,-105
1712846322471,599616101047506431,-178
1712846322479,599616101055170908,-136
1712846322487,599616101062835385,-44
1712846322494,599616101070499862,-25
1712846322502,599616101078164339,-46
1712846322510,599616101085828816,-119
1712846322517,599616101093493293,-223
1712846322525,599616101101157770,-218
1712846322533,599616101108822247,-136
1712846322540,599616101116486724,-117
1712846322548,599616101124151201,-176
1712846322556,599616101131815678,-255
1712846322563,599616101139480155,-286
1712846322571,599616101147144632,-258
1712846322579,599616101154809109,-218
1712846322585,599616101162473586,-187
1712846322593,599616101170138063,-187
1712846322601,599616101177802540,-220
1712846322609,599616101185467017,-295
1712846322617,599616101193131494,-366
1712846322625,599616101200795971,-356
1712846322632,599616101208460448,-349
1712846322640,599616101216124925,-401
1712846322648,599616101223789402,-424
1712846322655,599616101231453879,-439
1712846322663,599616101239118356,-455
1712846322671,599616101246782833,-417
1712846322678,599616101254447310,-380
1712846322686,599616101262111787,-380
1712846322694,599616101269776264,-347
1712846322701,599616101277440741,-298
1712846322709,599616101285105218,-286
1712846322717,599616101292769695,-279
1712846322724,599616101300434172,-251
1712846322732,599616101308098649,-232
1712846322740,599616101315763126,-211
1712846322747,599616101323427603,-176
1712846322755,599616101331092080,-166
1712846322763,599616101338756557,-169
1712846322769,599616101346421034,-140
1712846322777,599616101354085511,-119
1712846322785,599616101361749988,-122
1712846322793,599616101369414465,-147
1712846322801,599616101377078942,-230
1712846322809,599616101384743419,-326
1712846322816,599616101392407896,-342
1712846322824,599616101400072373,-300
1712846322832,599616101407736850,-258
1712846322839,599616101415401327,-208
1712846322847,599616101423065804,-143
1712846322855,599616101430730281,-110
1712846322862,599616101438394758,-117
1712846322870,599616101446059235,-100
1712846322878,599616101453723712,-42
1712846322885,599616101461388189,-2
1712846322893,599616101469052666,-14
1712846322901,599616101476717143,-56
1712846322908,599616101484381620,-129
1712846322916,599616101492046097,-169
1712846322924,599616101499710574,-122
1712846322931,599616101507375051,-49
1712846322939,599616101515039528,11
1712846322947,599616101522704005,49
1712846322953,599616101530368482,23
1712846322961,599616101538032959,28
1712846322969,599616101545697436,194
1712846322977,599616101553361913,471
1712846322985,599616101561026390,659
1712846322993,599616101568690867,615
1712846323000,599616101576355344,244
1712846323008,599616101584034886,-300
1712846323016,599616101591699154,-417
1712846323023,599616101599363422,-56
1712846323031,599616101607027690,112
1712846323039,599616101614691958,16
1712846323046,599616101622356226,-32
1712846323054,599616101630020494,-56
1712846323062,599616101637684762,-65
1712846323069,599616101645349030,-16
1712846323077,599616101653013298,28
1712846323085,599616101660677566,53
1712846323092,599616101668341834,42
1712846323100,599616101676006102,-53
1712846323108,599616101683670370,-110
1712846323115,599616101691334638,-37
1712846323123,599616101698998906,28
1712846323131,599616101706663174,-18
1712846323137,599616101714327442,-115
1712846323145,599616101721991710,-178
1712846323153,599616101729655978,-192
1712846323161,599616101737320246,-169
1712846323169,599616101744984514,-150
1712846323177,599616101752648782,-119
1712846323184,599616101760313050,-68
1712846323192,599616101767977318,-77
1712846323200,599616101775641586,-126
1712846323207,599616101783305854,-122
1712846323215,599616101790970122,-68
1712846323223,599616101798634390,-23
1712846323230,599616101806298658,-16
1712846323238,599616101813962926,-16
1712846323246,599616101821627194,-39
1712846323253,599616101829291462,-93
1712846323261,599616101836955730,-107
1712846323269,599616101844619998,-100
1712846323276,599616101852284266,-171
1712846323284,599616101859948534,-274
1712846323292,599616101867612802,-323
1712846323299,599616101875277070,-316
1712846323307,599616101882941338,-298
1712846323313,599616101890605606,-286
1712846323321,599616101898269874,-269
1712846323329,599616101905934142,-265
1712846323337,599616101913598410,-314
1712846323345,599616101921262678,-396
1712846323353,599616101928926946,-410
1712846323360,599616101936591214,-338
1712846323368,599616101944255482,-291
1712846323376,599616101951919750,-314
1712846323383,599616101959584018,-305
1712846323391,599616101967248286,-255
1712846323399,599616101974912554,-269
1712846323406,599616101982576822,-368
1712846323414,599616101990241090,-422
1712846323422,599616101997905358,-359
1712846323429,599616102005569626,-340
1712846323437,599616102013233894,-363
1712846323445,599616102020898162,-305
1712846323452,599616102028562430,-248
1712846323460,599616102036226698,-239
1712846323468,599616102043890966,-211
1712846323475,599616102051555234,-154
1712846323483,599616102059219502,-107
1712846323491,599616102066883770,-133
1712846323497,599616102074548038,-166
1712846323505,599616102082212306,-96
1712846323513,599616102089876574,-16
1712846323521,599616102097540842,-23
1712846323529,599616102105205110,-58
1712846323537,599616102112869378,-98
1712846323544,599616102120533646,-131
1712846323552,599616102128197914,-82
1712846323560,599616102135862182,-32
1712846323567,599616102143526466,-51
1712846323575,599616102151190734,-37
1712846323583,599616102158855002,-30
1712846323590,599616102166519270,-112
1712846323598,599616102174183538,-145
1712846323606,599616102181847806,-14
1712846323613,599616102189512074,237
1712846323621,599616102197176342,502
1712846323629,599616102204840610,539
1712846323636,599616102212504878,61
1712846323644,599616102220169146,-591
1712846323652,599616102227833414,-631
1712846323659,599616102235497682,-246
1712846323667,599616102243161950,-140
1712846323675,599616102250826218,-192
1712846323681,599616102258490486,-199
1712846323689,599616102266154754,-241
1712846323697,599616102273819022,-241
1712846323705,599616102281483290,-187
1712846323713,599616102289147558,-145
1712846323721,599616102296811826,-117
1712846323728,599616102304476094,-103
1712846323736,599616102312140362,-119
1712846323744,599616102319804630,-136
1712846323751,599616102327468898,-58
1712846323759,599616102335133166,39
1712846323767,599616102342797434,86
1712846323774,599616102350461702,91
1712846323782,599616102358125970,-28
1712846323790,599616102365790238,-136
1712846323797,599616102373454506,-77
1712846323805,599616102381118774,-7
1712846323813,599616102388783042,2
1712846323820,599616102396447310,35
1712846323828,599616102404111578,49
1712846323836,599616102411775846,9
1712846323843,599616102419440114,-21
1712846323851,599616102427104382,-18
1712846323859,599616102434768650,-16
1712846323865,599616102442432918,-30
1712846323873,599616102450097186,-46
1712846323881,599616102457761454,-86
1712846323889,599616102465425722,-164
1712846323897,599616102473089990,-234
1712846323905,599616102480754258,-234
1712846323912,599616102488418526,-244
1712846323920,599616102496082794,-434
1712846323928,599616102503747062,-608
1712846323935,599616102511411330,-528
1712846323943,599616102519075598,-396
1712846323951,599616102526739866,-431
1712846323958,599616102534404134,-467
1712846323966,599616102542068402,-387
1712846323974,599616102549732670,-361
1712846323981,599616102557396938,-408
1712846323989,599616102565061206,-366
1712846323997,599616102572725474,-279
1712846324004,599616102580389742,-251
1712846324012,599616102588054010,-255
1712846324020,599616102595718278,-262
1712846324027,599616102603382546,-300
1712846324035,599616102611046814,-352
1712846324043,599616102618711082,-335
1712846324049,599616102626375350,-255
1712846324057,599616102634039618,-218
1712846324065,599616102641703886,-265
1712846324073,599616102649368154,-328
1712846324081,599616102657032422,-312
1712846324089,599616102664696690,-255
1712846324096,599616102672360958,-220
1712846324104,599616102680025226,-173
1712846324112,599616102687689494,-143
1712846324119,599616102695353762,-154
1712846324127,599616102703018046,-143
1712846324135,599616102710682314,-75
1712846324142,599616102718346582,-30
1712846324150,599616102726010850,-32
1712846324158,599616102733675118,-23
1712846324165,599616102741339386,-53
1712846324173,599616102749003654,-159
1712846324181,599616102756667922,-206
1712846324188,599616102764332190,-129
1712846324196,599616102771996458,-56
1712846324204,599616102779660726,-56
1712846324211,599616102787324994,-49
1712846324219,599616102794989262,35
1712846324227,599616102802653530,204
1712846324233,599616102810317798,401
1712846324241,599616102817982066,385
1712846324249,599616102825646334,-100
1712846324257,599616102833310602,-601
1712846324265,599616102840974870,-441
1712846324273,599616102848639138,-58
1712846324280,599616102856303406,-68
1712846324288,599616102863967674,-147
1712846324296,599616102871631942,-79
1712846324303,599616102879296210,-35
1712846324311,599616102886960478,-23
1712846324319,599616102894624746,2
1712846324326,599616102902289014,30
1712846324334,599616102909953282,56
1712846324342,599616102917617550,68
1712846324349,599616102925281818,89
1712846324357,599616102932946086,129
1712846324365,599616102940610354,152
1712846324372,599616102948274622,169
1712846324380,599616102955938890,176
1712846324387,599616102963603158,157
1712846324395,599616102971267426,154
1712846324403,599616102978931694,194
1712846324409,599616102986595962,258
1712846324417,599616102994260230,281
1712846324425,599616103001924498,185
1712846324433,599616103009588766,84
1712846324441,599616103017253034,103
1712846324449,599616103024917302,110
1712846324456,599616103032581570,7
1712846324464,599616103040245838,-131
1712846324472,599616103047910106,-220
1712846324479,599616103055574374,-225
1712846324487,599616103063238642,-211
1712846324495,599616103070902910,-211
1712846324502,599616103078567178,-180
1712846324510,599616103086231446,-157
1712846324518,599616103093895714,-201
1712846324525,599616103101559982,-265
1712846324533,599616103109224250,-267
1712846324541,599616103116888518,-223
1712846324548,599616103124552786,-183
1712846324556,599616103132217054,-208
1712846324564,599616103139881322,-312
1712846324571,599616103147545590,-354
1712846324579,599616103155209858,-316
1712846324587,599616103162874126,-307
1712846324593,599616103170538394,-319
1712846324601,599616103178202662,-338
1712846324609,599616103185866930,-396
1712846324617,599616103193531198,-436
1712846324625,599616103201195466,-413
1712846324633,599616103208859734,-385
1712846324640,599616103216524002,-361
1712846324648,599616103224188270,-326
1712846324656,599616103231852538,-335
1712846324663,599616103239516806,-385
1712846324671,599616103247181074,-370
1712846324679,599616103254845342,-305
1712846324686,599616103262509628,-260
1712846324694,599616103270173896,-232
1712846324702,599616103277838164,-206
1712846324709,599616103285502432,-213
1712846324717,599616103293166700,-201
1712846324725,599616103300830968,-126
1712846324732,599616103308495236,-63
1712846324740,599616103316159504,-61
1712846324748,599616103323823772,-100
1712846324755,599616103331488040,-215
1712846324763,599616103339152308,-387
1712846324771,599616103346816576,-431
1712846324777,599616103354480844,-347
1712846324785,599616103362145112,-300
1712846324793,599616103369809380,-279
1712846324801,599616103377473648,-237
1712846324809,599616103385137916,-159
1712846324817,599616103392802184,32
1712846324824,599616103400466452,302
1712846324832,599616103408130720,509
1712846324840,599616103415794988,427
1712846324847,599616103423459256,-124
1712846324855,599616103431123524,-579
1712846324863,599616103438787792,-338
1712846324870,599616103446452060,30
1712846324878,599616103454116328,53
1712846324886,599616103461780596,82
1712846324893,599616103469444864,143
1712846324901,599616103477109132,79
1712846324909,599616103484773400,42
1712846324916,599616103492437668,89
1712846324924,599616103500101936,91
1712846324932,599616103507766204,2
1712846324939,599616103515430472,-84
1712846324947,599616103523094740,-126
1712846324955,599616103530759008,-180
1712846324961,599616103538423276,-204
1712846324969,599616103546087544,-152
1712846324977,599616103553751812,-98
1712846324985,599616103561416080,-79
1712846324993,599616103569080348,-68
1712846325001,599616103576744616,-44
1712846325008,599616103584408884,-30
1712846325016,599616103592073152,-61
1712846325024,599616103599737420,-86
1712846325031,599616103607401688,-68
1712846325039,599616103615065956,-61
1712846325047,599616103622730224,-86
1712846325054,599616103630394492,-96
1712846325062,599616103638058760,-72
1712846325070,599616103645723028,-49
1712846325077,599616103653387296,-37
1712846325085,599616103661051564,-35
1712846325093,599616103668715832,-96
1712846325100,599616103676380100,-197
1712846325108,599616103684044368,-218
1712846325116,599616103691708636,-180
1712846325123,599616103699372904,-185
1712846325131,599616103707037172,-183
1712846325139,599616103714701440,-136
1712846325145,599616103722365708,-138
1712846325153,599616103730029976,-190
1712846325161,599616103737694244,-211
1712846325169,599616103745358512,-199
1712846325177,599616103753022780,-173
1712846325185,599616103760687048,-143
1712846325192,599616103768351316,-138
1712846325200,599616103776015584,-136
1712846325208,599616103783679852,-129
1712846325215,599616103791344120,-129
1712846325223,599616103799008388,-91
1712846325231,599616103806672656,-65
1712846325238,599616103814336924,-84
1712846325246,599616103822001208,-72
1712846325254,599616103829665476,-56
1712846325261,599616103837329744,-112
1712846325269,599616103844994012,-178
1712846325277,599616103852658280,-180
1712846325284,599616103860322548,-194
1712846325292,599616103867986816,-284
1712846325300,599616103875651084,-408
1712846325307,599616103883315352,-436
1712846325315,599616103890979620,-366
1712846325323,599616103898643888,-331
1712846325329,599616103906308156,-338
1712846325337,599616103913972424,-356
1712846325345,599616103921636692,-403
1712846325353,599616103929300960,-420
1712846325361,599616103936965228,-366
1712846325369,599616103944629496,-319
1712846325376,599616103952293764,-281
1712846325384,599616103959958032,-183
1712846325392,599616103967622300,-25
1712846325399,599616103975286568,152
1712846325407,599616103982950836,328
1712846325415,599616103990615104,349
1712846325422,599616103998279372,-53
1712846325430,599616104005943640,-638
1712846325437,599616104013607908,-716
1712846325445,599616104021272176,-417
1712846325453,599616104028936444,-359
1712846325460,599616104036600712,-422
1712846325468,599616104044264980,-345
1712846325476,599616104051929248,-267
1712846325483,599616104059593516,-295
1712846325491,599616104067257784,-356
1712846325499,599616104074922052,-373
1712846325505,599616104082586320,-363
1712846325513,599616104090250588,-359
1712846325521,599616104097914856,-319
1712846325529,599616104105579124,-272
1712846325537,599616104113243392,-246
1712846325545,599616104120907660,-206
1712846325552,599616104128571928,-136
1712846325560,599616104136236196,-58
1712846325568,599616104143900464,-2
1712846325575,599616104151564732,32
1712846325583,599616104159229000,56
1712846325591,599616104166893268,72
1712846325598,599616104174557536,117
1712846325606,599616104182221804,159
1712846325614,599616104189886072,169
1712846325621,599616104197550340,185
1712846325629,599616104205214608,124
1712846325637,599616104212878876,-28
1712846325644,599616104220543144,-77
1712846325652,599616104228207412,-9
1712846325660,599616104235871680,2
1712846325667,599616104243535948,-46
1712846325675,599616104251200216,-32
1712846325683,599616104258864484,-21
1712846325689,599616104266528752,-84
1712846325697,599616104274193020,-63
1712846325705,599616104281857288,51
1712846325713,599616104289521556,61
1712846325721,599616104297185824,-2
1712846325729,599616104304850092,-21
1712846325736,599616104312514360,-9
1712846325744,599616104320178628,18
1712846325752,599616104327842896,25
1712846325759,599616104335507164,-30
1712846325767,599616104343171432,-79
1712846325775,599616104350835700,-68
1712846325782,599616104358499968,-51
1712846325790,599616104366164236,-46
1712846325798,599616104373828504,-32
1712846325805,599616104381492788,-16
1712846325813,599616104389157056,-25
1712846325821,599616104396821324,-98
1712846325828,599616104404485592,-208
1712846325836,599616104412149860,-234
1712846325844,599616104419814128,-171
1712846325851,599616104427478396,-159
1712846325859,599616104435142664,-204
1712846325867,599616104442806932,-199
1712846325873,599616104450471200,-225
1712846325881,599616104458135468,-345
1712846325889,599616104465799736,-375
1712846325897,599616104473464004,-281
1712846325905,599616104481128272,-274
1712846325913,599616104488792540,-300
1712846325920,599616104496456808,-230
1712846325928,599616104504121076,-215
1712846325936,599616104511785344,-302
1712846325943,599616104519449612,-345
1712846325951,599616104527113880,-267
1712846325959,599616104534778148,-56
1712846325966,599616104542442416,103
1712846325974,599616104550106684,-98
1712846325982,599616104557770952,-645
1712846325989,599616104565435220,-1002
1712846325997,599616104573099488,-845
1712846326005,599616104580763756,-640
1712846326012,599616104588428024,-650
1712846326020,599616104596092292,-659
1712846326028,599616104603756560,-647
1712846326035,599616104611420828,-643
1712846326043,599616104619085096,-612
1712846326051,599616104626749364,-565
1712846326057,599616104634413632,-500
1712846326065,599616104642077900,-450
1712846326073,599616104649742168,-443
1712846326081,599616104657406436,-413
1712846326089,599616104665070704,-352
1712846326097,599616104672734972,-319
1712846326104,599616104680399240,-295
1712846326112,599616104688063508,-225
1712846326120,599616104695727776,-166
1712846326127,599616104703392044,-154
1712846326135,599616104711056312,-93
1712846326143,599616104718720580,-28
1712846326150,599616104726384848,-51
1712846326158,599616104734049116,-56
1712846326166,599616104741713384,-49
1712846326173,599616104749377652,-145
1712846326181,599616104757041920,-220
1712846326189,599616104764706188,-164
1712846326196,599616104772370456,-84
1712846326204,599616104780034724,-65
1712846326212,599616104787698992,-105
1712846326219,599616104795363260,-161
1712846326227,599616104803027528,-173
1712846326235,599616104810691796,-124
1712846326241,599616104818356064,-100
1712846326249,599616104826020332,-133
1712846326257,599616104833684600,-119
1712846326265,599616104841348868,-91
1712846326273,599616104849013136,-110
1712846326281,599616104856677404,-84
1712846326288,599616104864341672,-39
1712846326296,599616104872005940,-21
1712846326304,599616104879670208,14
1712846326311,599616104887334476,61
1712846326319,599616104894998744,82
1712846326327,599616104902663012,79
1712846326334,599616104910327280,82
1712846326342,599616104917991548,93
1712846326350,599616104925655816,103
1712846326357,599616104933320084,86
1712846326365,599616104940954272,2
1712846326373,599616104948618958,-65
1712846326380,599616104956283644,-44
1712846326388,599616104963948330,-16
1712846326396,599616104971613016,11
1712846326403,599616104979277702,42
1712846326411,599616104986942388,-39
1712846326417,599616104994607074,-171
1712846326425,599616105002271760,-180
1712846326433,599616105009936446,-183
1712846326441,599616105017601132,-286
1712846326449,599616105025265818,-347
1712846326457,599616105032930504,-368
1712846326464,599616105040595190,-441
1712846326472,599616105048259876,-457
1712846326480,599616105055924562,-382
1712846326487,599616105063589248,-363
1712846326495,599616105071253934,-359
1712846326503,599616105078918620,-225
1712846326510,599616105086583306,-2
1712846326518,599616105094247992,131
1712846326526,599616105101912678,18
1712846326533,599616105109577364,-413
1712846326541,599616105117242050,-845
1712846326549,599616105124906736,-760
1712846326556,599616105132571422,-485
1712846326564,599616105140236108,-476
1712846326572,599616105147900794,-422
1712846326579,599616105155565480,-295
1712846326587,599616105163230166,-363
1712846326595,599616105170894852,-443
1712846326601,599616105178559538,-436
1712846326609,599616105186224224,-471
1712846326617,599616105193888910,-462
1712846326625,599616105201553596,-385
1712846326633,599616105209218282,-373
1712846326641,599616105216882968,-394
1712846326648,599616105224547654,-345
1712846326656,599616105232212340,-281
1712846326664,599616105239877026,-253
1712846326671,599616105247541712,-215
1712846326679,599616105255206398,-169
1712846326687,599616105262871084,-187
1712846326694,599616105270535770,-190
1712846326702,599616105278200456,-152
1712846326710,599616105285865142,-206
1712846326717,599616105293529828,-265
1712846326725,599616105301194514,-223
1712846326733,599616105308859200,-220
1712846326740,599616105316523886,-288
1712846326748,599616105324188572,-305
1712846326756,599616105331853258,-279
1712846326763,599616105339517944,-279
1712846326771,599616105347182630,-248
1712846326779,599616105354847316,-199
1712846326785,599616105362512002,-183
1712846326793,599616105370176688,-154
1712846326801,599616105377841374,-138
1712846326809,599616105385506060,-166
1712846326817,599616105393170746,-157
1712846326825,599616105400835432,-100
1712846326832,599616105408500118,-63
1712846326840,599616105416164804,-42
1712846326848,599616105423829490,-37
1712846326855,599616105431494176,-18
1712846326863,599616105439158862,35
1712846326871,599616105446823548,42
1712846326878,599616105454488234,16
1712846326886,599616105462152920,35
1712846326894,599616105469817606,44
1712846326901,599616105477482292,-18
1712846326909,599616105485146978,-100
1712846326917,599616105492811664,-100
1712846326924,599616105500506466,-49
1712846326932,599616105508170734,-16
1712846326940,599616105515835002,-39
1712846326947,599616105523499270,-107
1712846326955,599616105531163538,-143
1712846326963,599616105538827806,-154
1712846326969,599616105546492074,-159
1712846326977,599616105554156342,-138
1712846326985,599616105561820610,-159
1712846326993,599616105569484878,-237
1712846327001,599616105577149146,-323
1712846327009,599616105584813414,-356
1712846327016,599616105592477682,-295
1712846327024,599616105600141950,-232
1712846327032,599616105607806218,-201
1712846327039,599616105615470486,-131
1712846327047,599616105623134754,-28
1712846327055,599616105630799022,112
1712846327062,599616105638463290,347
1712846327070,599616105646127558,528
1712846327078,599616105653791826,361
1712846327085,599616105661456094,-227
1712846327093,599616105669120362,-720
1712846327101,599616105676784630,-622
1712846327108,599616105684448898,-312
1712846327116,599616105692113166,-220
1712846327124,599616105699777434,-194
1712846327131,599616105707441702,-124
1712846327139,599616105715105970,-105
1712846327147,599616105722770238,-150
1712846327153,599616105730434506,-154
1712846327161,599616105738098774,-93
1712846327169,599616105745763042,-58
1712846327177,599616105753427310,-39
1712846327185,599616105761091578,-7
1712846327193,599616105768755846,-14
1712846327200,599616105776420114,-39
1712846327208,599616105784084382,2
1712846327216,599616105791748650,46
1712846327223,599616105799412918,-23
1712846327231,599616105807077186,-150
1712846327239,599616105814741454,-260
1712846327246,599616105822405722,-352
1712846327254,599616105830069990,-363
1712846327262,599616105837734258,-312
1712846327269,599616105845398526,-267
1712846327277,599616105853062794,-262
1712846327285,599616105860727062,-286
1712846327292,599616105868391330,-302
1712846327300,599616105876055598,-286
1712846327308,599616105883719866,-262
1712846327315,599616105891384134,-232
1712846327323,599616105899048402,-183
1712846327331,599616105906712670,-171
1712846327337,599616105914376938,-197
1712846327345,599616105922041206,-197
1712846327353,599616105929705474,-166
1712846327361,599616105937369742,-136
1712846327369,599616105945034010,-100
1712846327377,599616105952698278,-65
1712846327384,599616105960362546,-61
1712846327392,599616105968026814,-63
1712846327400,599616105975691082,-32
1712846327407,599616105983355350,-9
1712846327415,599616105991019618,0
1712846327423,599616105998683886,9
1712846327430,599616106006348154,18
1712846327438,599616106014012422,9
1712846327446,599616106021676690,-44
1712846327453,599616106029340958,-91
1712846327461,599616106037005226,-72
1712846327469,599616106044669494,-58
1712846327476,599616106052333762,-133
1712846327484,599616106060028142,-253
1712846327492,599616106067691992,-309
1712846327499,599616106075355842,-274
1712846327507,599616106083019692,-223
1712846327515,599616106090683542,-201
1712846327521,599616106098347392,-171
1712846327529,599616106106011242,-173
1712846327537,599616106113675092,-265
1712846327545,599616106121338942,-314
1712846327553,599616106129002792,-265
1712846327561,599616106136666642,-239
1712846327568,599616106144330492,-223
1712846327576,599616106151994342,-169
1712846327584,599616106159658192,-150
1712846327591,599616106167322042,-152
1712846327599,599616106174985892,-110
1712846327607,599616106182649742,-77
1712846327614,599616106190313592,0
1712846327622,599616106197977442,220
1712846327630,599616106205641292,455
1712846327637,599616106213305142,514
1712846327645,599616106220968992,385
1712846327653,599616106228632842,-23
1712846327660,599616106236296692,-478
1712846327668,599616106243960542,-375
1712846327676,599616106251624392,2
1712846327683,599616106259288242,35
1712846327691,599616106266952092,-28
1712846327699,599616106274615942,42
1712846327705,599616106282279792,35
1712846327713,599616106289943642,-30
1712846327721,599616106297607492,-42
1712846327729,599616106305271342,-79
1712846327737,599616106312935192,-138
1712846327744,599616106320599042,-129
1712846327752,599616106328262892,-89
1712846327760,599616106335926742,-84
1712846327767,599616106343590592,-79
1712846327775,599616106351254442,-77
1712846327783,599616106358918292,-122
1712846327790,599616106366582142,-150
1712846327798,599616106374245992,-103
1712846327806,599616106381909842,-53
1712846327813,599616106389573692,-16
1712846327821,599616106397237542,42
1712846327829,599616106404901392,21
1712846327836,599616106412565242,-84
1712846327844,599616106420229092,-119
1712846327852,599616106427892942,-122
1712846327859,599616106435556792,-157
1712846327867,599616106443220642,-176
1712846327875,599616106450884492,-199
1712846327881,599616106458548342,-258
1712846327889,599616106466212192,-281
1712846327897,599616106473876042,-265
1712846327905,599616106481539892,-258
1712846327913,599616106489203742,-248
1712846327921,599616106496867592,-253
1712846327928,599616106504531442,-291
1712846327936,599616106512195292,-331
1712846327944,599616106519859142,-387
1712846327951,599616106527522992,-436
1712846327959,599616106535186842,-392
1712846327967,599616106542850692,-396
1712846327974,599616106550514542,-532
1712846327982,599616106558178392,-577
1712846327990,599616106565842242,-462
1712846327997,599616106573506092,-368
1712846328005,599616106581169942,-328
1712846328013,599616106588833792,-291
1712846328020,599616106596497642,-279
1712846328028,599616106604161492,-272
1712846328036,599616106611825342,-208
1712846328043,599616106619459110,-131
1712846328051,599616106627123378,-98
1712846328059,599616106634787646,-84
1712846328065,599616106642451914,-122
1712846328073,599616106650116182,-201
1712846328081,599616106657780450,-208
1712846328089,599616106665444718,-129
1712846328097,599616106673108986,-53
1712846328105,599616106680773254,-28
1712846328112,599616106688437522,-98
1712846328120,599616106696101790,-265
1712846328128,599616106703766058,-366
1712846328135,599616106711430326,-309
1712846328143,599616106719094594,-241
1712846328151,599616106726758862,-234
1712846328158,599616106734423130,-218
1712846328166,599616106742087398,-199
1712846328174,599616106749751666,-211
1712846328181,599616106757415934,-187
1712846328189,599616106765080202,-105
1712846328197,599616106772744470,-51
1712846328204,599616106780408738,-21
1712846328212,599616106788073006,79
1712846328220,599616106795737274,248
1712846328227,599616106803401542,424
1712846328235,599616106811065810,504
1712846328243,599616106818730078,246
1712846328249,599616106826394346,-323
1712846328257,599616106834058614,-549
1712846328265,599616106841722882,-232
1712846328273,599616106849387150,-16
1712846328281,599616106857051418,-18
1712846328289,599616106864715686,32
1712846328296,599616106872379954,46
1712846328304,599616106880044222,-30
1712846328312,599616106887708490,-107
1712846328319,599616106895372758,-166
1712846328327,599616106903037026,-159
1712846328335,599616106910701294,-103
1712846328342,599616106918365562,-68
1712846328350,599616106926029830,-61
1712846328358,599616106933694098,-49
1712846328365,599616106941358366,-21
1712846328373,599616106949022634,28
1712846328381,599616106956686902,58
1712846328388,599616106964351170,65
1712846328396,599616106972015438,107
1712846328404,599616106979679706,161
1712846328411,599616106987343974,176
1712846328419,599616106995008242,171
1712846328427,599616107002672510,157
1712846328433,599616107010336778,96
1712846328441,599616107018001046,16
1712846328449,599616107025665314,-84
1712846328457,599616107033329582,-194
1712846328465,599616107040993850,-267
1712846328473,599616107048658118,-316
1712846328480,599616107056322386,-359
1712846328488,599616107063986654,-361
1712846328496,599616107071650922,-328
1712846328503,599616107079315190,-333
1712846328511,599616107086979458,-427
1712846328519,599616107094643726,-523
1712846328526,599616107102307994,-514
1712846328534,599616107109972262,-471
1712846328542,599616107117636530,-429
1712846328549,599616107125300798,-356
1712846328557,599616107132965066,-314
1712846328565,599616107140629334,-312
1712846328572,599616107148293602,-291
1712846328580,599616107155957870,-237
1712846328588,599616107163622138,-171
1712846328595,599616107171286406,-112
1712846328603,599616107178950690,-82
1712846328611,599616107186614958,-75
1712846328617,599616107194279226,-65
1712846328625,599616107201943494,-37
1712846328633,599616107209607762,-11
1712846328641,599616107217272030,44
1712846328649,599616107224936298,103
1712846328656,599616107232600566,42
1712846328664,599616107240264834,-68
1712846328672,599616107247929102,-46
1712846328679,599616107255593370,28
1712846328687,599616107263257638,46
1712846328695,599616107270921906,105
1712846328702,599616107278586174,154
1712846328710,599616107286250442,91
1712846328718,599616107293914710,42
1712846328725,599616107301578978,91
1712846328733,599616107309243246,136
1712846328741,599616107316907514,154
1712846328748,599616107324571782,150
1712846328756,599616107332236050,68
1712846328764,599616107339900318,7
1712846328771,599616107347564586,75
1712846328779,599616107355228854,143
1712846328787,599616107362893122,124
1712846328793,599616107370557390,129
1712846328801,599616107378221658,161
1712846328809,599616107385885926,220
1712846328817,599616107393550194,408
1712846328825,599616107401214462,662
1712846328833,599616107408878730,802
1712846328840,599616107416542998,633
1712846328848,599616107424207266,30
1712846328856,599616107431871534,-455
1712846328863,599616107439535802,-253
1712846328871,599616107447200070,63
1712846328879,599616107454864338,-2
1712846328886,599616107462528606,-72
1712846328894,599616107470192874,-28
1712846328902,599616107477857142,-65
1712846328909,599616107485521410,-115
1712846328917,599616107493185678,-89
1712846328925,599616107500849946,-46
1712846328932,599616107508514214,-23
1712846328940,599616107516178482,-37
1712846328948,599616107523842750,-129
1712846328955,599616107531507018,-258
1712846328963,599616107539171286,-288
1712846328971,599616107546835554,-220
1712846328977,599616107554499822,-176
1712846328985,599616107562164090,-145
1712846328993,599616107569828358,-112
1712846329001,599616107577492626,-107
1712846329009,599616107585156894,-110
1712846329017,599616107592821162,-115
1712846329024,599616107600485430,-145
1712846329032,599616107608149698,-190
1712846329040,599616107615813966,-234
1712846329047,599616107623478234,-305
1712846329055,599616107631142502,-354
1712846329063,599616107638806770,-323
1712846329070,599616107646471038,-302
1712846329078,599616107654135306,-340
1712846329086,599616107661799574,-340
1712846329093,599616107669463842,-331
1712846329101,599616107677128110,-363
1712846329109,599616107684792378,-354
1712846329116,599616107692456646,-314
1712846329124,599616107700120914,-321
1712846329132,599616107707785182,-328
1712846329139,599616107715449450,-293
1712846329147,599616107723113718,-284
1712846329155,599616107730777986,-277
1712846329161,599616107738442270,-230
1712846329169,599616107746106538,-208
1712846329177,599616107753770806,-218
1712846329185,599616107761435074,-206
1712846329193,599616107769099342,-190
1712846329201,599616107776763610,-218
1712846329208,599616107784427878,-265
1712846329216,599616107792092146,-248
1712846329224,599616107799756414,-201
1712846329231,599616107807420682,-204
1712846329239,599616107815084950,-305
1712846329247,599616107822749218,-429
1712846329254,599616107830413486,-436
1712846329262,599616107838077754,-399
1712846329270,599616107845742022,-366
1712846329277,599616107853406290,-300
1712846329285,599616107861070558,-265
1712846329293,599616107868734826,-265
1712846329300,599616107876399094,-234
1712846329308,599616107884063362,-194
1712846329316,599616107891727630,-176
1712846329323,599616107899391898,-161
1712846329331,599616107907056166,-145
1712846329339,599616107914720434,-143
1712846329345,599616107922384702,-140
1712846329353,599616107930048970,-112
1712846329361,599616107937713238,-75
1712846329369,599616107945377506,-56
1712846329377,599616107953041774,-63
1712846329385,599616107960706042,-98
1712846329392,599616107968370310,-143
1712846329400,599616107976034578,-98
1712846329408,599616107983698846,91
1712846329415,599616107991363114,352
1712846329423,599616107999027382,537
1712846329431,599616108006691650,525
1712846329438,599616108014355918,164
1712846329446,599616108022020186,-467
1712846329454,599616108029684454,-685
1712846329461,599616108037348722,-345
1712846329469,599616108045012990,-147
1712846329477,599616108052677258,-199
1712846329484,599616108060341526,-178
1712846329492,599616108068005794,-138
1712846329500,599616108075670062,-140
1712846329507,599616108083334330,-107
1712846329515,599616108090998598,-44
1712846329523,599616108098662866,4
1712846329529,599616108106327134,-4
1712846329537,599616108113991402,-58
1712846329545,599616108121655670,-65
1712846329553,599616108129319938,-16
1712846329561,599616108136984206,-11
1712846329569,599616108144648474,-42
1712846329576,599616108152312742,-82
1712846329584,599616108159977010,-190
1712846329592,599616108167641278,-255
1712846329599,599616108175305546,-192
1712846329607,599616108182969814,-138
1712846329615,599616108190634082,-140
1712846329622,599616108198298350,-138
1712846329630,599616108205962618,-136
1712846329638,599616108213626886,-147
1712846329645,599616108221291154,-136
1712846329653,599616108228955422,-112
1712846329661,599616108236619690,-103
1712846329668,599616108244283958,-91
1712846329676,599616108251948226,-131
1712846329684,599616108259612494,-204
1712846329691,599616108267276762,-232
1712846329699,599616108274941030,-246
1712846329705,599616108282605298,-248
1712846329713,599616108290269566,-251
1712846329721,599616108297933850,-312
1712846329729,599616108305598118,-370
1712846329737,599616108313262386,-356
1712846329745,599616108320926654,-314
1712846329752,599616108328590922,-267
1712846329760,599616108336255190,-204
1712846329768,599616108343919458,-180
1712846329775,599616108351583726,-227
1712846329783,599616108359247994,-274
1712846329791,599616108366912262,-274
1712846329798,599616108374576530,-223
1712846329806,599616108382240798,-169
1712846329814,599616108389905066,-136
1712846329821,599616108397569334,-110
1712846329829,599616108405233602,-84
1712846329837,599616108412897870,-25
1712846329844,599616108420562138,23
1712846329852,599616108428226406,-25
1712846329860,599616108435890674,-56
1712846329867,599616108443554942,18
1712846329875,599616108451219210,58
1712846329883,599616108458883478,49
1712846329889,599616108466547746,61
1712846329897,599616108474212014,68
1712846329905,599616108481876282,65
1712846329913,599616108489540550,56
1712846329921,599616108497204818,-9
1712846329929,599616108504869086,-79
1712846329936,599616108512533354,-112
1712846329944,599616108520197622,-159
1712846329952,599616108527861890,-234
1712846329959,599616108535526158,-312
1712846329967,599616108543190426,-345
1712846329975,599616108550854694,-345
1712846329982,599616108558518962,-309
1712846329990,599616108566183230,-274
1712846329998,599616108573847498,-286
1712846330005,599616108581511766,-176
1712846330013,599616108589176034,98
1712846330021,599616108596840302,298
1712846330028,599616108604504570,279
1712846330036,599616108612168838,11
1712846330044,599616108619833106,-446
1712846330051,599616108627497374,-610
1712846330059,599616108635161642,-345
1712846330067,599616108642825910,-218
1712846330073,599616108650490178,-284
1712846330081,599616108658154446,-258
1712846330089,599616108665818714,-190
1712846330097,599616108673482982,-187
1712846330105,599616108681147250,-164
1712846330113,599616108688811518,-133
1712846330120,599616108696475786,-218
1712846330128,599616108704140054,-295
1712846330136,599616108711804322,-312
1712846330143,599616108719468590,-328
1712846330151,599616108727132858,-291
1712846330159,599616108734797126,-241
1712846330166,599616108742461394,-241
1712846330174,599616108750125662,-255
1712846330182,599616108757789930,-284
1712846330189,599616108765454198,-314
1712846330197,599616108773118466,-300
1712846330205,599616108780782734,-260
1712846330212,599616108788447002,-225
1712846330220,599616108796111270,-208
1712846330228,599616108803775538,-211
1712846330235,599616108811439806,-194
1712846330243,599616108819104074,-154
1712846330251,599616108826768342,-140
1712846330257,599616108834432610,-173
1712846330265,599616108842096878,-272
1712846330273,599616108849761146,-373
1712846330281,599616108857425430,-363
1712846330289,599616108865089698,-279
1712846330297,599616108872753966,-244
1712846330304,599616108880418234,-251
1712846330312,599616108888082502,-248
1712846330320,599616108895746770,-277
1712846330327,599616108903411038,-300
1712846330335,599616108911075306,-234
1712846330343,599616108918739574,-152
1712846330350,599616108926403842,-117
1712846330358,599616108934068110,-147
1712846330366,599616108941732378,-244
1712846330373,599616108949396646,-260
1712846330381,599616108957060914,-154
1712846330389,599616108964725182,-91
1712846330396,599616108972389450,-96
1712846330404,599616108980053718,-70
1712846330412,599616108987717986,-58
1712846330419,599616108995382254,-58
1712846330427,599616109003046522,-49
1712846330435,599616109010710790,-103
1712846330441,599616109018375058,-107
1712846330449,599616109026039326,-63
1712846330457,599616109033703594,-180
1712846330465,599616109041367862,-291
1712846330473,599616109049032130,-208
1712846330481,599616109056696398,-126
1712846330488,599616109064360666,-103
1712846330496,599616109072024934,-37
1712846330504,599616109079689202,-32
1712846330511,599616109087353470,-147
1712846330519,599616109095017738,-187
1712846330527,599616109102682006,-105
1712846330534,599616109110346274,-75
1712846330542,599616109118010542,-115
1712846330550,599616109125674810,-140
1712846330557,599616109133339078,-150
1712846330565,599616109141003346,-169
1712846330573,599616109148667614,-152
1712846330580,599616109156331882,-91
1712846330588,599616109163996150,-49
1712846330596,599616109171660418,-46
1712846330603,599616109179324686,-32
1712846330611,599616109186988954,-4
1712846330619,599616109194653222,44
1712846330625,599616109202317490,199
1712846330633,599616109209981758,439
1712846330641,599616109217646026,568
1712846330649,599616109225310294,410
1712846330657,599616109232974562,-84
1712846330665,599616109240638830,-570
1712846330672,599616109248303098,-561
1712846330680,599616109255967366,-349
1712846330688,599616109263631634,-380
1712846330695,599616109271295902,-427
1712846330703,599616109278960170,-373
1712846330711,599616109286624438,-363
1712846330718,599616109294288706,-349
1712846330726,599616109301952974,-300
1712846330734,599616109309617242,-286
1712846330741,599616109317281510,-284
1712846330749,599616109324945778,-258
1712846330756,599616109332610046,-230
1712846330764,599616109340274314,-192
1712846330772,599616109347938582,-154
1712846330779,599616109355602850,-140
1712846330787,599616109363267118,-122
1712846330795,599616109370931386,-107
1712846330801,599616109378595654,-161
1712846330809,599616109386259922,-187
1712846330817,599616109393924190,-105
1712846330825,599616109401588458,-46
1712846330833,599616109409252726,-49
1712846330841,599616109416922050,-25
1712846330848,599616109424586248,11
1712846330856,599616109432250446,21
1712846330864,599616109439914644,44
1712846330871,599616109447578842,77
1712846330879,599616109455243040,79
1712846330887,599616109462907238,93
1712846330894,599616109470571436,93
1712846330902,599616109478235634,21
1712846330910,599616109485899832,-32
1712846330917,599616109493564030,-44
1712846330925,599616109501228228,-98
1712846330933,599616109508892426,-119
1712846330940,599616109516556624,-56
1712846330948,599616109524220822,-25
1712846330956,599616109531885020,-77
1712846330963,599616109539549218,-161
1712846330971,599616109547213416,-208
1712846330979,599616109554877614,-150
1712846330985,599616109562541812,-86
1712846330993,599616109570206010,-143
1712846331001,599616109577870208,-232
1712846331009,599616109585534406,-213
1712846331017,599616109593198604,-147
1712846331025,599616109600862802,-112
1712846331032,599616109608527000,-65
1712846331040,599616109616191198,-37
1712846331048,599616109623855396,-89
1712846331055,599616109631519594,-136
1712846331063,599616109639183792,-84
1712846331071,599616109646847990,-2
1712846331078,599616109654512188,25
1712846331086,599616109662176386,30
1712846331094,599616109669840584,4
1712846331101,599616109677504782,-44
1712846331109,599616109685168980,-58
1712846331117,599616109692833178,-42
1712846331124,599616109700497376,-18
1712846331132,599616109708161574,0
1712846331140,599616109715825772,-28
1712846331147,599616109723489970,-86
1712846331155,599616109731154168,-89
1712846331163,599616109738818366,-51
1712846331169,599616109746482564,-75
1712846331177,599616109754146762,-117
1712846331185,599616109761810960,-131
1712846331193,599616109769475158,-190
1712846331201,599616109777139356,-234
1712846331209,599616109784803554,-169
1712846331216,599616109792467752,-96
1712846331224,599616109800131950,-72
1712846331232,599616109807796148,-35
1712846331239,599616109815460346,77
1712846331247,599616109823124544,281
1712846331255,599616109830788742,457
1712846331262,599616109838452940,408
1712846331270,599616109846117138,-58
1712846331278,599616109853781336,-622
1712846331285,599616109861445534,-601
1712846331293,599616109869109732,-260
1712846331301,599616109876773930,-208
1712846331308,599616109884438128,-251
1712846331316,599616109892102326,-180
1712846331324,599616109899766524,-164
1712846331331,599616109907430722,-246
1712846331339,599616109915094920,-326
1712846331347,599616109922759118,-345
1712846331353,599616109930423316,-298
1712846331361,599616109938087514,-241
1712846331369,599616109945751712,-223
1712846331377,599616109953415910,-211
1712846331385,599616109961080108,-197
1712846331393,599616109968744306,-185
1712846331400,599616109976428634,-150
1712846331408,599616109984092553,-96
1712846331416,599616109991756472,-105
1712846331423,599616109999420391,-166
1712846331431,599616110007084310,-208
1712846331439,599616110014748229,-251
1712846331446,599616110022412148,-251
1712846331454,599616110030076067,-190
1712846331462,599616110037739986,-187
1712846331469,599616110045403905,-288
1712846331477,599616110053067824,-368
1712846331485,599616110060731743,-361
1712846331492,599616110068395662,-352
1712846331500,599616110076059581,-352
1712846331508,599616110083723500,-326
1712846331515,599616110091387419,-312
1712846331523,599616110099051338,-309
1712846331531,599616110106715257,-342
1712846331537,599616110114379176,-394
1712846331545,599616110122043095,-354
1712846331553,599616110129707014,-281
1712846331561,599616110137370933,-265
1712846331569,599616110145034852,-223
1712846331577,599616110152698771,-166
1712846331584,599616110160362690,-152
1712846331592,599616110168026609,-119
1712846331600,599616110175690528,-58
1712846331607,599616110183354447,-25
1712846331615,599616110191018366,4
1712846331623,599616110198682285,61
1712846331630,599616110206346204,86
1712846331638,599616110214010123,91
1712846331646,599616110221674042,126
1712846331653,599616110229337961,157
1712846331661,599616110237001880,129
1712846331669,599616110244665799,70
1712846331676,599616110252329718,2
1712846331684,599616110259993637,-65
1712846331692,599616110267657556,-84
1712846331699,599616110275321475,-82
1712846331707,599616110282985394,-115
1712846331715,599616110290649313,-112
1712846331721,599616110298313232,-75
1712846331729,599616110305977151,-70
1712846331737,599616110313641070,-75
1712846331745,599616110321304989,-63
1712846331753,599616110328968908,-61
1712846331761,599616110336632827,-51
1712846331768,599616110344296746,-28
1712846331776,599616110351960665,-23
1712846331784,599616110359624584,-28
1712846331791,599616110367288503,-21
1712846331799,599616110374952422,2
1712846331807,599616110382616341,49
1712846331814,599616110390280260,86
1712846331822,599616110397944179,70
1712846331829,599616110405608098,14
1712846331837,599616110413272017,21
1712846331845,599616110420935936,178
1712846331852,599616110428599855,375
1712846331860,599616110436263774,483
1712846331868,599616110443927693,443
1712846331875,599616110451591612,14
1712846331883,599616110459255531,-622
1712846331891,599616110466919450,-657
1712846331897,599616110474583369,-244
1712846331905,599616110482247288,-183
1712846331913,599616110489911207,-319
1712846331921,599616110497575126,-295
1712846331929,599616110505239045,-262
1712846331937,599616110512902964,-239
1712846331944,599616110520566883,-147
1712846331952,599616110528230802,-82
1712846331960,599616110535869654,-63
1712846331967,599616110543533922,-49
1712846331975,599616110551198190,-79
1712846331983,599616110558862458,-147
1712846331990,599616110566526726,-136
1712846331998,599616110574190994,-53
1712846332006,599616110581855262,14
1712846332013,599616110589519530,21
1712846332021,599616110597183798,-46
1712846332029,599616110604848066,-93
1712846332036,599616110612512334,-49
1712846332044,599616110620176602,23
1712846332052,599616110627840870,72
1712846332059,599616110635505138,82
1712846332067,599616110643169406,4
1712846332075,599616110650833674,-96
1712846332081,599616110658497942,-91
1712846332089,599616110666162210,-32
1712846332097,599616110673826478,-25
1712846332105,599616110681490746,-37
1712846332113,599616110689155014,-65
1712846332121,599616110696819282,-117
1712846332128,599616110704483550,-124
1712846332136,599616110712147818,-89
1712846332144,599616110719812086,-70
1712846332151,599616110727476354,-107
1712846332159,599616110735140622,-185
1712846332167,599616110742804890,-237
1712846332174,599616110750469158,-215
1712846332182,599616110758133426,-164
1712846332190,599616110765797694,-131
1712846332197,599616110773461962,-110
1712846332205,599616110781126230,-107
1712846332213,599616110788790498,-176
1712846332220,599616110796454766,-239
1712846332228,599616110804119034,-194
1712846332236,599616110811783302,-115
1712846332243,599616110819447570,-77
1712846332251,599616110827111838,-37
1712846332259,599616110834776106,-9
1712846332265,599616110842440374,-9
1712846332273,599616110850104642,7
1712846332281,599616110857768910,56
1712846332289,599616110865433178,82
1712846332297,599616110873097446,72
1712846332305,599616110880761714,51
1712846332312,599616110888425982,16
1712846332320,599616110896090250,9
1712846332328,599616110903754518,46
1712846332335,599616110911418786,75
1712846332343,599616110919083054,72
1712846332351,599616110926747322,63
1712846332358,599616110934411590,56
1712846332366,599616110942075858,51
1712846332374,599616110949740126,61
1712846332381,599616110957404394,63
1712846332389,599616110965068662,28
1712846332397,599616110972732930,-25
1712846332404,599616110980397198,-107
1712846332412,599616110988061466,-211
1712846332420,599616110995725734,-241
1712846332427,599616111003390002,-237
1712846332435,599616111011054270,-225
1712846332443,599616111018718538,-93
1712846332449,599616111026382806,115
1712846332457,599616111034047074,223
1712846332465,599616111041711342,183
1712846332473,599616111049375610,-171
1712846332481,599616111057039878,-840
1712846332489,599616111064704146,-1058
1712846332496,599616111072368414,-633
1712846332504,599616111080032682,-422
1712846332512,599616111087696950,-537
1712846332519,599616111095361234,-500
1712846332527,599616111103025502,-410
1712846332535,599616111110689770,-415
1712846332542,599616111118354038,-370
1712846332550,599616111126018306,-302
1712846332558,599616111133682574,-316
1712846332565,599616111141346842,-331
1712846332573,599616111149011110,-288
1712846332581,599616111156675378,-237
1712846332588,599616111164339646,-171
1712846332596,599616111172003914,-122
1712846332604,599616111179668182,-194
1712846332611,599616111187332450,-326
1712846332619,599616111194996718,-305
1712846332627,599616111202660986,-190
1712846332633,599616111210325254,-140
1712846332641,599616111217989522,-103
1712846332649,599616111225653790,-86
1712846332657,599616111233318058,-143
1712846332665,599616111240982326,-161
1712846332673,599616111248646594,-100
1712846332680,599616111256310862,-49
1712846332688,599616111263975130,-18
1712846332696,599616111271639398,9
1712846332703,599616111279303666,-2
1712846332711,599616111286967934,-39
1712846332719,599616111294632202,-35
1712846332726,599616111302296470,-7
1712846332734,599616111309960738,7
1712846332742,599616111317625006,2
1712846332749,599616111325289274,-68
1712846332757,599616111332953542,-171
1712846332765,599616111340617810,-169
1712846332772,599616111348282078,-93
1712846332780,599616111355946346,-56
1712846332788,599616111363610614,-32
1712846332795,599616111371274882,-7
1712846332803,599616111378939150,-11
1712846332809,599616111386603418,-9
1712846332817,599616111394267686,37
1712846332825,599616111401931954,77
1712846332833,599616111409596222,105
1712846332841,599616111417260490,129
1712846332849,599616111424924758,115
1712846332856,599616111432589026,96
1712846332864,599616111440253294,129
1712846332872,599616111447917562,169
1712846332879,599616111455581830,192
1712846332887,599616111463246098,206
1712846332895,599616111470910366,154
1712846332902,599616111478574634,56
1712846332910,599616111486238902,39
1712846332918,599616111493903170,86
1712846332925,599616111501567438,98
1712846332933,599616111509231706,96
1712846332941,599616111516895974,56
1712846332948,599616111524560242,-53
1712846332956,599616111532224510,-98
1712846332964,599616111539888778,-37
1712846332971,599616111547553046,-4
1712846332979,599616111555217314,7
1712846332987,599616111562881582,-18
1712846332993,599616111570545850,-133
1712846333001,599616111578210118,-178
1712846333009,599616111585874386,-96
1712846333017,599616111593538654,9
1712846333025,599616111601202922,154
1712846333033,599616111608867190,382
1712846333040,599616111616531458,568
1712846333048,599616111624195726,471
1712846333056,599616111631859994,-58
1712846333063,599616111639524262,-579
1712846333071,599616111647188530,-476
1712846333079,599616111654877942,-145
1712846333086,599616111662541861,-152
1712846333094,599616111670205780,-241
1712846333102,599616111677869699,-215
1712846333109,599616111685533618,-185
1712846333117,599616111693197537,-171
1712846333125,599616111700861456,-154
1712846333132,599616111708525375,-136
1712846333140,599616111716189294,-147
1712846333148,599616111723853213,-183
1712846333155,599616111731517132,-161
1712846333163,599616111739181051,-117
1712846333171,599616111746844970,-117
1712846333177,599616111754508889,-103
1712846333185,599616111762172808,-119
1712846333193,599616111769836727,-241
1712846333201,599616111777500646,-307
1712846333209,599616111785164565,-230
1712846333217,599616111792828484,-178
1712846333224,599616111800492403,-152
1712846333232,599616111808156322,-89
1712846333240,599616111815820241,-70
1712846333247,599616111823484160,-84
1712846333255,599616111831148079,-51
1712846333263,599616111838811998,-16
1712846333270,599616111846475917,-18
1712846333278,599616111854139836,-28
1712846333286,599616111861803755,-96
1712846333293,599616111869467674,-197
1712846333301,599616111877131593,-206
1712846333309,599616111884795512,-173
1712846333316,599616111892459431,-173
1712846333324,599616111900123350,-136
1712846333332,599616111907787269,-89
1712846333339,599616111915451188,-96
1712846333347,599616111923115107,-93
1712846333355,599616111930779026,-65
1712846333361,599616111938442945,-51
1712846333369,599616111946106864,-35
1712846333377,599616111953770783,4
1712846333385,599616111961434702,16
1712846333393,599616111969098621,-32
1712846333401,599616111976762540,-61
1712846333408,599616111984426459,-23
1712846333416,599616111992090378,16
1712846333424,599616111999754297,39
1712846333431,599616112007418216,77
1712846333439,599616112015082135,49
1712846333447,599616112022746054,-39
1712846333454,599616112030409973,-46
1712846333462,599616112038073892,-28
1712846333470,599616112045737811,-30
1712846333477,599616112053401730,23
1712846333485,599616112061065649,4
1712846333493,599616112068729568,-199
1712846333500,599616112076393487,-356
1712846333508,599616112084057406,-323
1712846333516,599616112091721325,-277
1712846333523,599616112099385244,-293
1712846333531,599616112107049163,-305
1712846333539,599616112114713082,-321
1712846333545,599616112122377001,-319
1712846333553,599616112130040920,-260
1712846333561,599616112137704839,-204
1712846333569,599616112145368758,-185
1712846333577,599616112153032677,-190
1712846333585,599616112160696596,-206
1712846333592,599616112168360515,-138
1712846333600,599616112176024434,53
1712846333608,599616112183688353,291
1712846333615,599616112191352272,478
1712846333623,599616112199016191,448
1712846333631,599616112206680110,-18
1712846333638,599616112214324004,-659
1712846333646,599616112221988202,-777
1712846333654,599616112229652400,-464
1712846333661,599616112237316598,-352
1712846333669,599616112244980796,-373
1712846333677,599616112252644994,-406
1712846333684,599616112260309192,-511
1712846333692,599616112267973390,-504
1712846333700,599616112275637588,-410
1712846333707,599616112283301786,-387
1712846333715,599616112290965984,-385
1712846333723,599616112298630182,-359
1712846333729,599616112306294380,-345
1712846333737,599616112313958578,-333
1712846333745,599616112321622776,-279
1712846333753,599616112329286974,-199
1712846333761,599616112336951172,-161
1712846333769,599616112344615370,-161
1712846333776,599616112352279568,-140
1712846333784,599616112359943766,-138
1712846333791,599616112367607964,-126
1712846333799,599616112375272162,-21
1712846333807,599616112382936360,18
1712846333814,599616112390600558,-84
1712846333822,599616112398264756,-150
1712846333830,599616112405928954,-157
1712846333837,599616112413593152,-187
1712846333845,599616112421257350,-152
1712846333853,599616112428921548,-91
1712846333860,599616112436585746,-115
1712846333868,599616112444249944,-122
1712846333876,599616112451914142,-98
1712846333883,599616112459578340,-133
1712846333891,599616112467242538,-157
1712846333899,599616112474906736,-110
1712846333905,599616112482570934,-77
1712846333913,599616112490235132,-63
1712846333921,599616112497899330,-65
1712846333929,599616112505563528,-103
1712846333937,599616112513227726,-82
1712846333945,599616112520891924,7
1712846333952,599616112528556122,53
1712846333960,599616112536220320,51
1712846333968,599616112543884518,42
1712846333975,599616112551548716,49
1712846333983,599616112559212914,82
1712846333991,599616112566877112,96
1712846333998,599616112574541310,9
1712846334006,599616112582205508,-112
1712846334014,599616112589869706,-133
1712846334021,599616112597533904,-154
1712846334029,599616112605198102,-187
1712846334037,599616112612862300,-154
1712846334044,599616112620526498,-138
1712846334052,599616112628190696,-96
1712846334060,599616112635854894,4
1712846334067,599616112643519092,32
1712846334075,599616112651183290,11
1712846334083,599616112658847488,21
1712846334089,599616112666511686,0
1712846334097,599616112674175884,-4
1712846334105,599616112681840082,49
1712846334113,599616112689504280,56
1712846334121,599616112697168478,-46
1712846334129,599616112704832676,-183
1712846334136,599616112712496874,-218
1712846334144,599616112720161072,-133
1712846334152,599616112727825270,-23
1712846334159,599616112735489468,-23
1712846334167,599616112743153666,-159
1712846334175,599616112750817864,-126
1712846334182,599616112758482062,161
1712846334190,599616112766146260,413
1712846334198,599616112773805456,471
1712846334205,599616112781469724,239
1712846334213,599616112789133992,-312
1712846334221,599616112796798260,-638
1712846334228,599616112804462528,-413
1712846334236,599616112812126796,-225
1712846334244,599616112819791064,-302
1712846334251,599616112827455332,-307
1712846334259,599616112835119600,-328
1712846334267,599616112842783868,-469
1712846334273,599616112850448136,-500
1712846334281,599616112858112404,-406
1712846334289,599616112865776672,-366
1712846334297,599616112873440940,-352
1712846334305,599616112881105208,-312
1712846334313,599616112888769476,-300
1712846334320,599616112896433744,-302
1712846334328,599616112904098012,-267
1712846334336,599616112911762280,-213
1712846334343,599616112919426548,-185
1712846334351,599616112927090816,-183
1712846334359,599616112934755084,-220
1712846334366,599616112942419352,-314
1712846334374,599616112950083620,-368
1712846334382,599616112957747888,-333
1712846334389,599616112965412156,-281
1712846334397,599616112973076424,-255
1712846334405,599616112980740692,-251
1712846334412,599616112988404960,-265
1712846334420,599616112996069228,-255
1712846334428,599616113003733496,-204
1712846334435,599616113011397764,-150
1712846334443,599616113019062032,-112
1712846334451,599616113026726300,-110
1712846334457,599616113034390568,-152
1712846334465,599616113042054836,-164
1712846334473,599616113049719104,-124
1712846334481,599616113057383372,-89
1712846334489,599616113065047640,-68
1712846334497,599616113072711908,-82
1712846334504,599616113080376176,-185
1712846334512,599616113088040444,-272
1712846334520,599616113095704712,-239
1712846334527,599616113103368980,-173
1712846334535,599616113111033248,-122
1712846334543,599616113118697516,-82
1712846334550,599616113126361784,-122
1712846334558,599616113134026052,-199
1712846334566,599616113141690320,-190
1712846334573,599616113149354588,-136
1712846334581,599616113157018856,-105
1712846334589,599616113164683124,-72
1712846334596,599616113172347392,-39
1712846334604,599616113180011660,-39
1712846334612,599616113187675928,-63
1712846334619,599616113195340196,-70
1712846334627,599616113203004464,-58
1712846334635,599616113210668732,-63
1712846334641,599616113218333000,-44
1712846334649,599616113225997268,4
1712846334657,599616113233661536,14
1712846334665,599616113241325804,7
1712846334673,599616113248990072,35
1712846334681,599616113256654340,63
1712846334688,599616113264318608,65
1712846334696,599616113271982876,65
1712846334704,599616113279647144,56
1712846334711,599616113287311412,63
1712846334719,599616113294975680,105
1712846334727,599616113302639948,100
1712846334734,599616113310304216,39
1712846334742,599616113317968484,39
1712846334750,599616113325632752,93
1712846334757,599616113333297038,197
1712846334765,599616113340961306,413
1712846334773,599616113348625574,556
1712846334780,599616113356289842,328
1712846334788,599616113363954110,-220
1712846334796,599616113371618378,-542
1712846334803,599616113379282646,-342
1712846334811,599616113386946914,-100
1712846334819,599616113394611182,-107
1712846334825,599616113402275450,-110
1712846334833,599616113409939718,-35
1712846334841,599616113417603986,-4
1712846334849,599616113425268254,-37
1712846334857,599616113432932522,-98
1712846334864,599616113440596790,-173
1712846334872,599616113448261058,-258
1712846334880,599616113455925326,-309
1712846334887,599616113463589594,-305
1712846334895,599616113471253862,-335
1712846334903,599616113478918130,-396
1712846334910,599616113486582398,-382
1712846334918,599616113494246666,-333
1712846334926,599616113501910934,-307
1712846334933,599616113509575202,-265
1712846334941,599616113517239470,-260
1712846334949,599616113524903738,-319
1712846334956,599616113532568006,-323
1712846334964,599616113540232274,-269
1712846334972,599616113547896542,-237
1712846334979,599616113555560810,-215
1712846334987,599616113563225078,-192
1712846334995,599616113570889346,-197
1712846335001,599616113578553614,-211
1712846335009,599616113586217882,-265
1712846335017,599616113593882150,-356
1712846335025,599616113601546418,-370
1712846335033,599616113609210686,-312
1712846335041,599616113616874954,-293
1712846335048,599616113624539222,-302
1712846335056,599616113632203490,-298
1712846335064,599616113639867758,-274
1712846335071,599616113647532026,-237
1712846335079,599616113655196294,-197
1712846335087,599616113662860562,-194
1712846335094,599616113670524830,-239
1712846335102,599616113678189098,-258
1712846335110,599616113685853366,-234
1712846335117,599616113693517634,-227
1712846335125,599616113701181902,-180
1712846335133,599616113708846170,-105
1712846335140,599616113716510438,-93
1712846335148,599616113724174706,-103
1712846335156,599616113731838974,-53
1712846335163,599616113739503242,14
1712846335171,599616113747167510,65
1712846335179,599616113754831778,117
1712846335185,599616113762496046,147
1712846335193,599616113770160314,126
1712846335201,599616113777824582,110
1712846335209,599616113785488850,145
1712846335217,599616113793153118,204
1712846335225,599616113800817386,253
1712846335232,599616113808481654,227
1712846335240,599616113816145922,105
1712846335248,599616113823810190,14
1712846335255,599616113831474458,25
1712846335263,599616113839138726,61
1712846335271,599616113846802994,77
1712846335278,599616113854467262,91
1712846335286,599616113862131530,84
1712846335294,599616113869795798,84
1712846335301,599616113877460066,136
1712846335309,599616113885124334,190
1712846335317,599616113892818714,225
1712846335324,599616113900482564,326
1712846335332,599616113908146414,495
1712846335340,599616113915810264,633
1712846335347,599616113923474114,669
1712846335355,599616113931137964,396
1712846335363,599616113938801814,-227
1712846335369,599616113946465664,-518
1712846335377,599616113954129514,-241
1712846335385,599616113961793364,-140
1712846335393,599616113969457214,-269
1712846335401,599616113977121064,-192
1712846335409,599616113984784914,-91
1712846335416,599616113992448764,-143
1712846335424,599616114000112614,-161
1712846335432,599616114007776464,-199
1712846335439,599616114015440314,-321
1712846335447,599616114023104164,-316
1712846335455,599616114030768014,-227
1712846335462,599616114038431864,-251
1712846335470,599616114046095714,-281
1712846335478,599616114053759564,-265
1712846335485,599616114061423414,-288
1712846335493,599616114069087264,-291
1712846335501,599616114076751114,-234
1712846335508,599616114084414964,-201
1712846335516,599616114092078814,-255
1712846335524,599616114099742664,-347
1712846335531,599616114107406514,-359
1712846335539,599616114115070364,-305
1712846335547,599616114122734214,-272
1712846335553,599616114130398064,-269
1712846335561,599616114138061914,-272
1712846335569,599616114145725764,-267
1712846335577,599616114153389614,-269
1712846335585,599616114161053464,-288
1712846335593,599616114168717314,-295
1712846335600,599616114176381164,-316
1712846335608,599616114184045014,-373
1712846335616,599616114191708864,-392
1712846335623,599616114199372714,-403
1712846335631,599616114207036564,-481
1712846335639,599616114214700414,-504
1712846335646,599616114222364264,-436
1712846335654,599616114230028114,-413
1712846335662,599616114237691964,-396
1712846335669,599616114245355814,-328
1712846335677,599616114253019664,-300
1712846335685,599616114260683514,-288
1712846335692,599616114268347364,-237
1712846335700,599616114276011214,-194
1712846335708,599616114283675064,-166
1712846335715,599616114291338914,-119
1712846335723,599616114299002764,-75
1712846335731,599616114306666614,-61
1712846335737,599616114314330464,-65
1712846335745,599616114321994314,-51
1712846335753,599616114329658164,-11
1712846335761,599616114337322014,35
1712846335769,599616114344985864,37
1712846335777,599616114352649714,-28
1712846335784,599616114360313564,-72
1712846335792,599616114367977414,-44
1712846335800,599616114375641264,0
1712846335807,599616114383305114,46
1712846335815,599616114390968964,75
1712846335823,599616114398632814,70
1712846335830,599616114406296664,51
1712846335838,599616114413960514,37
1712846335846,599616114421624364,21
1712846335853,599616114429288214,-4
1712846335861,599616114436952064,-7
1712846335869,599616114444615914,30
1712846335876,599616114452249680,37
1712846335884,599616114459913948,-4
1712846335891,599616114467578216,0
1712846335899,599616114475242484,110
1712846335907,599616114482906752,305
1712846335913,599616114490571020,554
1712846335921,599616114498235288,779
1712846335929,599616114505899556,781
1712846335937,599616114513563824,333
1712846335945,599616114521228092,-312
1712846335953,599616114528892360,-403
1712846335960,599616114536556628,-32
1712846335968,599616114544220896,-35
1712846335976,599616114551885164,-291
1712846335983,599616114559549432,-251
1712846335991,599616114567213700,-124
1712846335999,599616114574877968,-143
1712846336006,599616114582542236,-122
1712846336014,599616114590206504,-68
1712846336022,599616114597870772,-140
1712846336029,599616114605535040,-248
1712846336037,599616114613199308,-251
1712846336045,599616114620863576,-199
1712846336052,599616114628527844,-180
1712846336060,599616114636192112,-201
1712846336068,599616114643856380,-239
1712846336075,599616114651520648,-272
1712846336083,599616114659184916,-286
1712846336091,599616114666849184,-293
1712846336097,599616114674513452,-323
1712846336105,599616114682177720,-347
1712846336113,599616114689841988,-349
1712846336121,599616114697506256,-359
1712846336129,599616114705170524,-354
1712846336137,599616114712834792,-309
1712846336144,599616114720499060,-279
1712846336152,599616114728163328,-284
1712846336160,599616114735827596,-340
1712846336167,599616114743491864,-450
1712846336175,599616114751156132,-490
1712846336183,599616114758820400,-413
1712846336190,599616114766484668,-328
1712846336198,599616114774148936,-302
1712846336206,599616114781813204,-319
1712846336213,599616114789477472,-333
1712846336221,599616114797141740,-295
1712846336229,599616114804806008,-227
1712846336236,599616114812470276,-171
1712846336244,599616114820134544,-117
1712846336252,599616114827798812,-84
1712846336259,599616114835463080,-77
1712846336267,599616114843127348,-53
1712846336275,599616114850791616,-4
1712846336281,599616114858455884,53
1712846336289,599616114866120152,105
1712846336297,599616114873784420,112
1712846336305,599616114881448688,68
1712846336313,599616114889112956,9
1712846336321,599616114896777224,7
1712846336328,599616114904441492,77
1712846336336,599616114912105760,100
1712846336344,599616114919770028,32
1712846336351,599616114927434296,-2
1712846336359,599616114935098564,18
1712846336367,599616114942762832,30
1712846336374,599616114950427100,51
1712846336382,599616114958091368,96
1712846336390,599616114965755636,110
1712846336397,599616114973419904,96
1712846336405,599616114981084172,75
1712846336413,599616114988748440,58
1712846336420,599616114996412708,65
1712846336428,599616115004076976,65
1712846336436,599616115011741260,51
1712846336443,599616115019405528,49
1712846336451,599616115027069796,44
1712846336459,599616115034734064,9
1712846336465,599616115042398332,-2
1712846336473,599616115050062600,14
1712846336481,599616115057726868,58
1712846336489,599616115065391136,232
1712846336497,599616115073055404,507
1712846336505,599616115080719672,596
1712846336512,599616115088383940,277
1712846336520,599616115096048208,-359
1712846336528,599616115103712476,-819
1712846336535,599616115111376744,-727
1712846336543,599616115119041012,-514
1712846336551,599616115126705280,-535
1712846336558,599616115134369548,-530
1712846336566,599616115142033816,-429
1712846336574,599616115149698084,-377
1712846336581,599616115157362352,-354
1712846336589,599616115165026620,-321
1712846336597,599616115172690888,-319
1712846336604,599616115180355156,-314
1712846336612,599616115188019424,-267
1712846336620,599616115195683692,-201
1712846336627,599616115203347960,-152
1712846336635,599616115211012228,-129
1712846336643,599616115218676496,-117
1712846336649,599616115226340764,-105
1712846336657,599616115234005032,-117
1712846336665,599616115241669300,-140
1712846336673,599616115249333568,-107
1712846336681,599616115256997836,-44
1712846336689,599616115264662104,-18
1712846336696,599616115272326372,-53
1712846336704,599616115279990640,-140
1712846336712,599616115287654908,-213
1712846336719,599616115295319176,-201
1712846336727,599616115302983444,-152
1712846336735,599616115310647712,-131
1712846336742,599616115318311980,-133
1712846336750,599616115325976248,-169
1712846336758,599616115333640516,-208
1712846336765,599616115341304784,-194
1712846336773,599616115348969052,-173
1712846336781,599616115356633320,-171
1712846336788,599616115364297588,-150
1712846336796,599616115371961856,-164
1712846336804,599616115379626124,-223
1712846336811,599616115387290392,-213
1712846336819,599616115394954660,-154
1712846336827,599616115402618928,-150
1712846336833,599616115410283196,-206
1712846336841,599616115417947464,-288
1712846336849,599616115425611732,-366
1712846336857,599616115433276000,-370
1712846336865,599616115440940268,-307
1712846336872,599616115448604536,-260
1712846336880,599616115456268804,-239
1712846336888,599616115463933072,-211
1712846336895,599616115471597340,-192
1712846336903,599616115479261608,-194
1712846336911,599616115486925876,-187
1712846336918,599616115494590144,-117
1712846336926,599616115502254412,-35
1712846336934,599616115509918680,-39
1712846336941,599616115517582948,-72
1712846336949,599616115525247216,-35
1712846336957,599616115532911484,32
1712846336964,599616115540575752,79
1712846336972,599616115548240020,103
1712846336980,599616115555904288,110
1712846336987,599616115563568556,96
1712846336995,599616115571232840,70
1712846337003,599616115578897108,86
1712846337009,599616115586561376,122
1712846337017,599616115594225644,136
1712846337025,599616115601889912,152
1712846337033,599616115609554180,157
1712846337041,599616115617218448,84
1712846337049,599616115624882716,2
1712846337056,599616115632546984,42
1712846337064,599616115640211252,215
1712846337072,599616115647875520,455
1712846337079,599616115655539788,659
1712846337087,599616115663204056,662
1712846337095,599616115670868324,279
1712846337102,599616115678532592,-361
1712846337110,599616115686196860,-577
1712846337118,599616115693861128,-230
1712846337125,599616115701525396,-53
1712846337133,599616115709189664,-166
1712846337141,599616115716853932,-230
1712846337148,599616115724518200,-232
1712846337156,599616115732182468,-208
1712846337164,599616115739846736,-169
1712846337171,599616115747511004,-166
1712846337179,599616115755175272,-157
1712846337187,599616115762839540,-178
1712846337193,599616115770503808,-260
1712846337201,599616115778168076,-248
1712846337209,599616115785832344,-169
1712846337217,599616115793496612,-190
1712846337225,599616115801160880,-223
1712846337233,599616115808825148,-248
1712846337240,599616115816489416,-347
1712846337248,599616115824153684,-380
1712846337256,599616115831817952,-302
1712846337263,599616115839482220,-255
1712846337271,599616115847146488,-218
1712846337279,599616115854810756,-157
1712846337286,599616115862475024,-169
1712846337294,599616115870139292,-190
1712846337302,599616115877803560,-140
1712846337309,599616115885467828,-100
1712846337317,599616115893132096,-112
1712846337325,599616115900796364,-143
1712846337332,599616115908460632,-192
1712846337340,599616115916124900,-213
1712846337348,599616115923789168,-201
1712846337355,599616115931453436,-211
1712846337363,599616115939117704,-208
1712846337371,599616115946781972,-190
1712846337377,599616115954446240,-213
1712846337385,599616115962110508,-267
1712846337393,599616115969774776,-277
1712846337401,599616115977439044,-239
1712846337409,599616115985103312,-201
1712846337417,599616115992767580,-154
1712846337424,599616116000431848,-115
1712846337432,599616116008096116,-112
1712846337440,599616116015760384,-115
1712846337447,599616116023424652,-93
1712846337455,599616116031088920,-65
1712846337463,599616116038753188,-32
1712846337470,599616116046417456,0
1712846337478,599616116054081724,-16
1712846337486,599616116061745992,-70
1712846337493,599616116069410260,-70
1712846337501,599616116077074528,-42
1712846337509,599616116084738796,-32
1712846337516,599616116092403064,-2
1712846337524,599616116100067332,61
1712846337532,599616116107731600,53
1712846337539,599616116115395868,-61
1712846337547,599616116123060136,-178
1712846337555,599616116130754516,-194
1712846337561,599616116138418366,-169
1712846337569,599616116146082216,-199
1712846337577,599616116153746066,-277
1712846337585,599616116161409916,-328
1712846337593,599616116169073766,-298
1712846337601,599616116176737616,-208
1712846337608,599616116184401466,-152
1712846337616,599616116192065316,-124
1712846337624,599616116199729166,-91
1712846337631,599616116207393016,-131
1712846337639,599616116215056866,-183
1712846337647,599616116222720716,-93
1712846337654,599616116230384566,39
1712846337662,599616116238048416,164
1712846337670,599616116245712266,349
1712846337677,599616116253376116,518
1712846337685,599616116261039966,530
1712846337693,599616116268703816,225
1712846337700,599616116276367666,-279
1712846337708,599616116284031516,-401
1712846337716,599616116291695366,-98
1712846337723,599616116299359216,-9
1712846337731,599616116307023066,-119
1712846337739,599616116314686916,-44
1712846337745,599616116322350766,49
1712846337753,599616116330014616,23
1712846337761,599616116337678466,37
1712846337769,599616116345342316,25
1712846337777,599616116353006166,-86
1712846337785,599616116360670016,-126
1712846337792,599616116368333866,-112
1712846337800,599616116375997716,-145
1712846337808,599616116383661566,-159
1712846337815,599616116391325416,-206
1712846337823,599616116398989266,-302
1712846337831,599616116406653116,-328
1712846337838,599616116414316966,-267
1712846337846,599616116421980816,-213
1712846337854,599616116429644666,-201
1712846337861,599616116437308516,-201
1712846337869,599616116444972366,-197
1712846337877,599616116452636216,-178
1712846337884,599616116460300066,-152
1712846337892,599616116467963916,-157
1712846337900,599616116475627766,-176
1712846337907,599616116483291616,-199
1712846337915,599616116490955466,-260
1712846337923,599616116498619316,-335
1712846337929,599616116506283166,-349
1712846337937,599616116513947016,-316
1712846337945,599616116521610866,-302
1712846337953,599616116529274716,-288
1712846337961,599616116536938566,-326
1712846337968,599616116544602416,-347
1712846337976,599616116552266266,-204
1712846337984,599616116559930116,-100
1712846337991,599616116567593966,-161
1712846337999,599616116575257816,-143
1712846338007,599616116582921666,-9
1712846338014,599616116590585516,28
1712846338022,599616116598249366,-11
1712846338030,599616116605913216,28
1712846338037,599616116613577066,93
1712846338045,599616116621240916,89
1712846338053,599616116628904766,46
1712846338060,599616116636568616,-28
1712846338068,599616116644232466,-98
1712846338076,599616116651896316,-105
1712846338083,599616116659560166,-98
1712846338091,599616116667224016,-107
1712846338099,599616116674887866,-91
1712846338105,599616116682551716,-70
1712846338113,599616116690215580,-122
1712846338121,599616116697879430,-164
1712846338129,599616116705543280,-143
1712846338137,599616116713207130,-140
1712846338145,599616116720870980,-103
1712846338152,599616116728534830,-44
1712846338160,599616116736198680,-86
1712846338168,599616116743862530,-150
1712846338175,599616116751526380,-154
1712846338183,599616116759190230,-145
1712846338191,599616116766854080,-136
1712846338198,599616116774517930,-93
1712846338206,599616116782181780,-72
1712846338214,599616116789845630,-72
1712846338221,599616116797509480,-42
1712846338229,599616116805173330,-11
1712846338237,599616116812837180,-11
1712846338244,599616116820501030,-18
1712846338252,599616116828164880,-18
1712846338260,599616116835828730,-4
1712846338267,599616116843492580,93
1712846338275,599616116851156430,316
1712846338283,599616116858820280,504
1712846338289,599616116866484130,457
1712846338297,599616116874147980,89
1712846338305,599616116881811830,-319
1712846338313,599616116889475680,-342
1712846338321,599616116897139530,-157
1712846338329,599616116904803380,-105
1712846338336,599616116912467230,-70
1712846338344,599616116920131080,2
1712846338352,599616116927794930,-4
1712846338359,599616116935458780,-96
1712846338367,599616116943122630,-197
1712846338375,599616116950786480,-213
1712846338382,599616116958450330,-190
1712846338390,599616116966114180,-215
1712846338398,599616116973778030,-192
1712846338405,599616116981441880,-133
1712846338413,599616116989105730,-178
1712846338421,599616116996769580,-213
1712846338428,599616117004433430,-152
1712846338436,599616117012097280,-105
1712846338444,599616117019761130,-100
1712846338451,599616117027424980,-152
1712846338459,599616117035088830,-246
1712846338467,599616117042752680,-251
1712846338473,599616117050416530,-211
1712846338481,599616117058080380,-192
1712846338489,599616117065744230,-122
1712846338497,599616117073408080,-79
1712846338505,599616117081071930,-138
1712846338513,599616117088735780,-199
1712846338520,599616117096399630,-187
1712846338528,599616117104063480,-138
1712846338536,599616117111727330,-122
1712846338543,599616117119391180,-119
1712846338551,599616117127055030,-91
1712846338559,599616117134718880,-143
1712846338566,599616117142382730,-267
1712846338574,599616117150046580,-277
1712846338582,599616117157710430,-213
1712846338589,599616117165374280,-199
1712846338597,599616117173038130,-213
1712846338605,599616117180701980,-227
1712846338612,599616117188365830,-185
1712846338620,599616117196029680,-93
1712846338628,599616117203693530,-49
1712846338635,599616117211357380,-49
1712846338643,599616117219021230,-63
1712846338651,599616117226685080,-117
1712846338657,599616117234348930,-140
1712846338665,599616117242012780,-77
1712846338673,599616117249646546,-9
1712846338681,599616117257310814,-14
1712846338689,599616117264975082,-7
1712846338697,599616117272639350,42
1712846338704,599616117280303618,49
1712846338712,599616117287967886,35
1712846338720,599616117295632154,65
1712846338727,599616117303296422,131
1712846338735,599616117310960690,176
1712846338743,599616117318624958,117
1712846338750,599616117326289226,0
1712846338758,599616117333953494,-32
1712846338766,599616117341617762,35
1712846338773,599616117349282030,58
1712846338781,599616117356946298,14
1712846338789,599616117364610566,16
1712846338796,599616117372274834,28
1712846338804,599616117379939102,-44
1712846338811,599616117387603370,-131
1712846338819,599616117395267638,-169
1712846338827,599616117402931906,-201
1712846338833,599616117410596174,-232
1712846338841,599616117418260442,-274
1712846338849,599616117425924710,-342
1712846338857,599616117433588978,-265
1712846338865,599616117441253246,23
1712846338873,599616117448917514,305
1712846338880,599616117456581782,394
1712846338888,599616117464246050,122
1712846338896,599616117471910318,-518
1712846338903,599616117479574586,-786
1712846338911,599616117487238854,-408
1712846338919,599616117494903122,-180
1712846338926,599616117502567390,-248
1712846338934,599616117510231658,-223
1712846338942,599616117517895926,-218
1712846338949,599616117525560194,-265
1712846338957,599616117533224462,-225
1712846338965,599616117540888730,-223
1712846338972,599616117548552998,-284
1712846338980,599616117556217266,-284
1712846338988,599616117563881534,-288
1712846338995,599616117571545802,-356
1712846339003,599616117579210070,-373
1712846339011,599616117586874338,-335
1712846339017,599616117594538606,-291
1712846339025,599616117602202874,-230
1712846339033,599616117609867142,-169
1712846339041,599616117617531410,-136
1712846339049,599616117625195678,-159
1712846339057,599616117632859946,-255
1712846339064,599616117640524214,-333
1712846339072,599616117648188482,-298
1712846339080,599616117655852750,-237
1712846339087,599616117663517018,-241
1712846339095,599616117671181286,-260
1712846339103,599616117678845554,-246
1712846339110,599616117686509822,-223
1712846339118,599616117694174090,-199
1712846339126,599616117701838358,-171
1712846339133,599616117709502626,-150
1712846339141,599616117717166894,-171
1712846339149,599616117724831162,-211
1712846339156,599616117732495430,-211
1712846339164,599616117740159698,-173
1712846339172,599616117747823966,-122
1712846339179,599616117755488234,-112
1712846339187,599616117763152502,-192
1712846339195,599616117770816770,-239
1712846339201,599616117778481038,-176
1712846339209,599616117786145306,-122
1712846339217,599616117793809574,-100
1712846339225,599616117801473842,-53
1712846339233,599616117809168222,-25
1712846339241,599616117816832072,-16
1712846339248,599616117824495922,14
1712846339256,599616117832159772,42
1712846339264,599616117839823622,77
1712846339271,599616117847487472,126
1712846339279,599616117855151322,140
1712846339287,599616117862815172,112
1712846339294,599616117870479022,84
1712846339302,599616117878142872,49
1712846339310,599616117885806722,37
1712846339317,599616117893470572,91
1712846339325,599616117901134422,96
1712846339333,599616117908798272,-63
1712846339340,599616117916462122,-190
1712846339348,599616117924125972,-129
1712846339356,599616117931789822,-39
1712846339363,599616117939453672,-21
1712846339371,599616117947117522,-21
1712846339379,599616117954781372,-21
1712846339385,599616117962445222,-25
1712846339393,599616117970109072,-30
1712846339401,599616117977772922,-25
1712846339409,599616117985436772,-7
1712846339417,599616117993100622,2
1712846339425,599616118000764472,-7
1712846339432,599616118008428322,-18
1712846339440,599616118016092172,7
1712846339448,599616118023756022,103
1712846339455,599616118031419872,286
1712846339463,599616118039083722,523
1712846339471,599616118046747572,701
1712846339478,599616118054411422,633
1712846339486,599616118062075272,166
1712846339494,599616118069739122,-359
1712846339501,599616118077402972,-309
1712846339509,599616118085066822,14
1712846339517,599616118092730672,-14
1712846339524,599616118100394522,-204
1712846339532,599616118108058372,-272
1712846339540,599616118115722222,-312
1712846339547,599616118123386072,-387
1712846339555,599616118131049922,-460
1712846339563,599616118138713772,-530
1712846339569,599616118146377622,-582
1712846339577,599616118154041472,-570
1712846339585,599616118161705322,-525
1712846339593,599616118169369172,-471
1712846339601,599616118177033022,-431
1712846339609,599616118184696872,-415
1712846339616,599616118192360722,-377
1712846339624,599616118200024572,-345
1712846339632,599616118207688422,-314
1712846339639,599616118215352272,-232
1712846339647,599616118223016122,-169
1712846339655,599616118230679972,-161
1712846339662,599616118238343822,-129
1712846339670,599616118246007672,-77
1712846339678,599616118253671522,-79
1712846339685,599616118261335372,-89
1712846339693,599616118268999222,-77
1712846339701,599616118276663072,-84
1712846339708,599616118284326922,-91
1712846339716,599616118291990772,-82
1712846339724,599616118299654622,-136
1712846339731,599616118307318472,-213
1712846339739,599616118314982322,-199
1712846339747,599616118322646172,-161
1712846339753,599616118330310022,-164
1712846339761,599616118337973872,-147
1712846339769,599616118345637722,-119
1712846339777,599616118353301572,-112
1712846339785,599616118360965422,-115
1712846339793,599616118368624316,-145
1712846339800,599616118376288235,-169
1712846339808,599616118383952154,-124
1712846339816,599616118391616073,-84
1712846339823,599616118399279992,-82
1712846339831,599616118406943911,-77
1712846339838,599616118414607830,-70
1712846339846,599616118422271749,-58
1712846339854,599616118429935668,-28
1712846339861,599616118437599587,-37
1712846339869,599616118445263506,-164
1712846339877,599616118452927425,-295
1712846339884,599616118460591344,-274
1712846339892,599616118468255263,-190
1712846339900,599616118475919182,-154
1712846339907,599616118483583101,-143
1712846339915,599616118491247020,-136
1712846339923,599616118498910939,-131
1712846339929,599616118506574858,-107
1712846339937,599616118514238777,-65
1712846339945,599616118521902696,-25
1712846339953,599616118529566615,7
1712846339961,599616118537230534,-4
1712846339969,599616118544894453,-63
1712846339976,599616118552558372,-107
1712846339984,599616118560222291,-112
1712846339992,599616118567886210,-82
1712846339999,599616118575550129,-58
1712846340007,599616118583214048,-46
1712846340015,599616118590877967,-35
1712846340022,599616118598541886,-30
1712846340030,599616118606205805,-25
1712846340038,599616118613869724,-23
1712846340045,599616118621533643,56
1712846340053,599616118629197562,302
1712846340061,599616118636861481,530
1712846340068,599616118644525400,441
1712846340076,599616118652189319,-42
1712846340084,599616118659853238,-572
1712846340091,599616118667517157,-608
1712846340099,599616118675181076,-286
1712846340107,599616118682844995,-213
1712846340113,599616118690508914,-361
1712846340121,599616118698172833,-415
1712846340129,599616118705836752,-380
1712846340137,599616118713500671,-338
1712846340145,599616118721164590,-295
1712846340153,599616118728828509,-274
1712846340160,599616118736492428,-302
1712846340168,599616118744156347,-300
1712846340176,599616118751820266,-239
1712846340183,599616118759484185,-192
1712846340191,599616118767148104,-157
1712846340199,599616118774812023,-122
1712846340206,599616118782475942,-131
1712846340214,599616118790139861,-140
1712846340222,599616118797803780,-110
1712846340229,599616118805467699,-70
1712846340237,599616118813131618,-28
1712846340245,599616118820795537,11
1712846340252,599616118828459456,-16
1712846340260,599616118836123375,-103
1712846340268,599616118843787294,-145
1712846340275,599616118851451213,-129
1712846340283,599616118859115132,-145
1712846340291,599616118866779051,-187
1712846340297,599616118874442970,-190
1712846340305,599616118882106889,-190
1712846340313,599616118889770808,-201
1712846340321,599616118897434727,-169
1712846340329,599616118905098646,-131
1712846340337,599616118912762565,-138
1712846340344,599616118920426484,-133
1712846340352,599616118928070378,-103
1712846340360,599616118935734576,-84
1712846340367,599616118943398774,-58
1712846340375,599616118951062972,-2
1712846340383,599616118958727170,39
1712846340390,599616118966391368,51
1712846340398,599616118974055566,7
1712846340406,599616118981719764,-126
1712846340413,599616118989383962,-230
1712846340421,599616118997048160,-176
1712846340429,599616119004712358,-89
1712846340436,599616119012376556,-75
1712846340444,599616119020040754,-61
1712846340452,599616119027704952,-39
1712846340459,599616119035369150,-49
1712846340467,599616119043033348,-23
1712846340475,599616119050697546,28
1712846340481,599616119058361744,49
1712846340489,599616119066025942,53
1712846340497,599616119073690140,63
1712846340505,599616119081354338,75
1712846340513,599616119089018536,91
1712846340521,599616119096682734,110
1712846340528,599616119104346932,68
1712846340536,599616119112011130,-18
1712846340544,599616119119675328,-44
1712846340551,599616119127339526,-56
1712846340559,599616119135003724,-126
1712846340567,599616119142667922,-180
1712846340574,599616119150332120,-248
1712846340582,599616119157996318,-354
1712846340590,599616119165660516,-363
1712846340597,599616119173324714,-345
1712846340605,599616119180988912,-406
1712846340613,599616119188653110,-420
1712846340620,599616119196317308,-347
1712846340628,599616119203981506,-267
1712846340636,599616119211645704,-115
1712846340643,599616119219309902,161
1712846340651,599616119226974100,373
1712846340659,599616119234638298,260
1712846340665,599616119242302496,-241
1712846340673,599616119249966694,-678
1712846340681,599616119257630892,-563
1712846340689,599616119265295090,-274
1712846340697,599616119272959288,-251
1712846340705,599616119280623486,-302
1712846340712,599616119288287684,-277
1712846340720,599616119295951882,-239
1712846340728,599616119303616080,-215
1712846340735,599616119311280278,-206
1712846340743,599616119318944476,-190
1712846340750,599616119326608674,-176
1712846340758,599616119334272872,-187
1712846340766,599616119341937070,-180
1712846340773,599616119349601268,-180
1712846340781,599616119357265466,-223
1712846340789,599616119364929664,-246
1712846340796,599616119372593862,-277
1712846340804,599616119380258060,-338
1712846340812,599616119387922258,-293
1712846340819,599616119395586456,-159
1712846340827,599616119403250654,-119
1712846340835,599616119410914852,-133
1712846340841,599616119418579050,-110
1712846340849,599616119426243248,-115
1712846340857,599616119433907446,-124
1712846340865,599616119441571644,-75
1712846340873,599616119449235842,-32
1712846340881,599616119456900040,-30
1712846340888,599616119464564238,-42
1712846340896,599616119472228436,-63
1712846340904,599616119479892634,-68
1712846340911,599616119487581926,-49
1712846340919,599616119495245776,-44
1712846340927,599616119502909626,-51
1712846340934,599616119510573476,-65
1712846340942,599616119518237326,-96
1712846340950,599616119525901176,-105
1712846340957,599616119533565026,-61
1712846340965,599616119541228876,-18
1712846340973,599616119548892726,4
1712846340980,599616119556556576,9
1712846340988,599616119564220426,-112
1712846340996,599616119571884276,-272
1712846341003,599616119579548126,-246
1712846341011,599616119587211976,-150
1712846341019,599616119594875826,-173
1712846341025,599616119602539676,-223
1712846341033,599616119610203526,-232
1712846341041,599616119617867376,-239
1712846341049,599616119625531226,-213
1712846341057,599616119633195076,-133
1712846341065,599616119640858926,-84
1712846341072,599616119648522776,-100
1712846341080,599616119656186626,-169
1712846341088,599616119663850476,-232
1712846341095,599616119671514326,-218
1712846341103,599616119679178176,-169
1712846341111,599616119686842026,-136
1712846341118,599616119694505876,-98
1712846341126,599616119702169726,-68
1712846341134,599616119709833576,-112
1712846341141,599616119717497426,-194
1712846341149,599616119725161276,-215
1712846341157,599616119732825126,-204
1712846341164,599616119740488976,-201
1712846341172,599616119748152826,-190
1712846341180,599616119755816676,-178
1712846341187,599616119763480526,-173
1712846341195,599616119771144376,-136
1712846341203,599616119778808226,-91
1712846341209,599616119786472076,-86
1712846341217,599616119794135926,-44
1712846341225,599616119801799776,115
1712846341233,599616119809463626,319
1712846341241,599616119817127476,478
1712846341249,599616119824791326,525
1712846341256,599616119832455176,244
1712846341264,599616119840119026,-328
1712846341272,599616119847782876,-568
1712846341279,599616119855446726,-345
1712846341287,599616119863110576,-246
1712846341295,599616119870774426,-333
1712846341302,599616119878438276,-328
1712846341310,599616119886102126,-300
1712846341318,599616119893765976,-305
1712846341325,599616119901429826,-307
1712846341333,599616119909093676,-349
1712846341341,599616119916757526,-385
1712846341348,599616119924421376,-352
1712846341356,599616119932085226,-316
1712846341364,599616119939749076,-288
1712846341371,599616119947412926,-232
1712846341379,599616119955076776,-201
1712846341387,599616119962740626,-201
1712846341393,599616119970404476,-176
1712846341401,599616119978068326,-129
1712846341409,599616119985732176,-82
1712846341417,599616119993396026,-23
1712846341425,599616120001059876,16
1712846341433,599616120008723726,14
1712846341440,599616120016387576,28
1712846341448,599616120024051426,49
1712846341456,599616120031715276,37
1712846341463,599616120039379126,14
1712846341471,599616120047042990,-7
1712846341479,599616120054706840,-77
1712846341486,599616120062370690,-159
1712846341494,599616120070034540,-154
1712846341502,599616120077698390,-119
1712846341509,599616120085362240,-173
1712846341517,599616120093026090,-260
1712846341525,599616120100689940,-309
1712846341532,599616120108353790,-356
1712846341540,599616120116017640,-377
1712846341548,599616120123681490,-338
1712846341555,599616120131345340,-260
1712846341563,599616120139009190,-192
1712846341571,599616120146673040,-169
1712846341577,599616120154336890,-178
1712846341585,599616120162000740,-215
1712846341593,599616120169664590,-284
1712846341601,599616120177328440,-295
1712846341609,599616120184992290,-227
1712846341617,599616120192656140,-187
1712846341624,599616120200319990,-206
1712846341632,599616120207983840,-211
1712846341640,599616120215647690,-176
1712846341647,599616120223311540,-143
1712846341655,599616120230975390,-115
1712846341663,599616120238639240,-89
1712846341670,599616120246303090,-140
1712846341678,599616120253966940,-241
1712846341686,599616120261630790,-227
1712846341693,599616120269294640,-133
1712846341701,599616120276958490,-84
1712846341709,599616120284622340,-51
1712846341716,599616120292286190,-23
1712846341724,599616120299950040,-16
1712846341732,599616120307613890,-2
1712846341739,599616120315277740,9
1712846341747,599616120322941590,23
1712846341753,599616120330605440,2
1712846341761,599616120338269290,-110
1712846341769,599616120345933140,-194
1712846341777,599616120353596990,-183
1712846341785,599616120361260840,-124
1712846341793,599616120368924690,-46
1712846341800,599616120376588540,-2
1712846341808,599616120384252390,2
1712846341816,599616120391916240,-7
1712846341823,599616120399580090,46
1712846341831,599616120407243940,253
1712846341839,599616120414907790,521
1712846341846,599616120422571640,676
1712846341854,599616120430235490,535
1712846341862,599616120437899340,14
1712846341869,599616120445563190,-464
1712846341877,599616120453227040,-415
1712846341885,599616120460890890,-154
1712846341892,599616120468554740,-117
1712846341900,599616120476218590,-180
1712846341908,599616120483882440,-218
1712846341915,599616120491546290,-232
1712846341923,599616120499210140,-204
1712846341931,599616120506873990,-171
1712846341937,599616120514537840,-143
1712846341945,599616120522201690,-131
1712846341953,599616120529865540,-145
1712846341961,599616120537529390,-143
1712846341969,599616120545193240,-112
1712846341977,599616120552857090,-89
1712846341984,599616120560520940,-75
1712846341992,599616120568184790,-51
1712846342000,599616120575848640,-61
1712846342007,599616120583512490,-136
1712846342015,599616120591176340,-239
1712846342023,599616120598840190,-251
1712846342030,599616120606489004,-171
1712846342038,599616120614153063,-140
1712846342046,599616120621817122,-161
1712846342053,599616120629481181,-159
1712846342061,599616120637145240,-150
1712846342069,599616120644809299,-145
1712846342076,599616120652473358,-124
1712846342084,599616120660137417,-129
1712846342092,599616120667801476,-204
1712846342099,599616120675465535,-298
1712846342107,599616120683129594,-354
1712846342115,599616120690793653,-410
1712846342121,599616120698457712,-429
1712846342129,599616120706121771,-370
1712846342137,599616120713785830,-323
1712846342145,599616120721449889,-307
1712846342153,599616120729113948,-284
1712846342161,599616120736778007,-255
1712846342168,599616120744442066,-227
1712846342176,599616120752106125,-199
1712846342184,599616120759770184,-183
1712846342191,599616120767434243,-152
1712846342199,599616120775098302,-96
1712846342207,599616120782762361,-107
1712846342214,599616120790426420,-166
1712846342222,599616120798090479,-150
1712846342230,599616120805754538,-133
1712846342237,599616120813418597,-129
1712846342245,599616120821082656,-79
1712846342253,599616120828746715,-75
1712846342260,599616120836410774,-133
1712846342268,599616120844074833,-126
1712846342276,599616120851738892,-70
1712846342283,599616120859402951,-65
1712846342291,599616120867067010,-53
1712846342299,599616120874731069,-4
1712846342305,599616120882395128,21
1712846342313,599616120890059187,25
1712846342321,599616120897723246,46
1712846342329,599616120905387305,65
1712846342337,599616120913051364,63
1712846342345,599616120920715423,35
1712846342352,599616120928379482,-53
1712846342360,599616120936043541,-178
1712846342368,599616120943707600,-225
1712846342375,599616120951371659,-192
1712846342383,599616120959035718,-147
1712846342391,599616120966699777,-115
1712846342398,599616120974363836,-107
1712846342406,599616120982027895,-110
1712846342414,599616120989691954,-89
1712846342421,599616120997356013,16
1712846342429,599616121005020072,260
1712846342437,599616121012684131,551
1712846342444,599616121020348190,699
1712846342452,599616121028012249,481
1712846342460,599616121035676308,-129
1712846342467,599616121043340367,-495
1712846342475,599616121051004426,-248
1712846342483,599616121058668485,-30
1712846342489,599616121066332544,-122
1712846342497,599616121073996603,-194
1712846342505,599616121081660662,-206
