phoneTimestamp,sensorTimestamp,ecg
1712222012119,599616082259592316,19397
1712222012126,599616082267254075,19397
1712222012134,599616082274915834,19397
1712222012141,599616082282577593,19397
1712222012149,599616082290239352,19397
1712222012157,599616082297901111,19397
1712222012164,599616082305562870,19397
1712222012172,599616082313224629,19364
1712222012180,599616082320886388,19265
1712222012187,599616082328548147,19314
1712222012195,599616082336209906,19113
1712222012203,599616082343871665,18876
1712222012209,599616082351533424,18831
1712222012217,599616082359195183,18786
1712222012225,599616082366856942,18748
1712222012233,599616082374518701,18717
1712222012241,599616082382180460,18616
1712222012249,599616082389842219,18580
1712222012256,599616082397503978,18585
1712222012264,599616082405165737,18611
1712222012272,599616082412827496,18672
1712222012279,599616082420489255,18483
1712222012287,599616082428151014,18151
1712222012295,599616082435812773,18021
1712222012302,599616082443474532,17938
1712222012310,599616082451136291,17792
1712222012318,599616082458798050,17777
1712222012325,599616082466459809,17777
1712222012333,599616082474121568,17619
1712222012341,599616082481783327,17576
1712222012348,599616082489445086,17671
1712222012356,599616082497106845,17597
1712222012364,599616082504768604,17472
1712222012371,599616082512430363,17424
1712222012379,599616082520092122,17256
1712222012387,599616082527753881,17067
1712222012393,599616082535415640,17031
1712222012401,599616082543077399,16930
1712222012409,599616082550739158,16719
1712222012417,599616082558400917,16548
1712222012425,599616082566062676,16349
1712222012433,599616082573724435,16165
1712222012440,599616082581386194,16115
1712222012448,599616082589047953,16027
1712222012456,599616082596709712,15833
1712222012463,599616082604371471,15648
1712222012471,599616082612033230,15447
1712222012479,599616082619694989,15239
1712222012486,599616082627356748,15104
1712222012494,599616082635018507,15002
1712222012502,599616082642680266,14872
1712222012509,599616082650342025,14786
1712222012517,599616082658003784,14694
1712222012525,599616082665665543,14540
1712222012532,599616082673327302,14550
1712222012540,599616082680989061,14583
1712222012548,599616082688650820,14232
1712222012555,599616082696312579,13702
1712222012563,599616082703974338,13510
1712222012571,599616082711636097,13612
1712222012577,599616082719297856,13460
1712222012585,599616082726959615,13107
1712222012593,599616082734621374,13079
1712222012601,599616082742283133,13148
1712222012609,599616082749944892,13034
1712222012617,599616082757606651,13022
1712222012624,599616082765268410,13008
1712222012632,599616082772930169,12847
1712222012639,599616082780591928,12816
1712222012647,599616082788253687,12797
1712222012655,599616082795915446,12643
1712222012662,599616082803577205,12563
1712222012670,599616082811238964,12548
1712222012678,599616082818885740,12558
1712222012685,599616082826547708,12565
1712222012693,599616082834209676,12435
1712222012701,599616082841871644,12264
1712222012708,599616082849533612,12231
1712222012716,599616082857195580,12203
1712222012724,599616082864857548,12056
1712222012731,599616082872519516,11963
1712222012739,599616082880181484,11847
1712222012747,599616082887843452,11457
1712222012753,599616082895505420,11172
1712222012761,599616082903167388,11144
1712222012769,599616082910829356,10910
1712222012777,599616082918491324,10640
1712222012785,599616082926153292,10590
1712222012793,599616082933815260,10424
1712222012800,599616082941477228,10192
1712222012808,599616082949139196,10202
1712222012816,599616082956801164,10277
1712222012823,599616082964463132,10256
1712222012831,599616082972125100,10225
1712222012839,599616082979787068,10145
1712222012846,599616082987449036,10010
1712222012854,599616082995111004,9948
1712222012862,599616083002772972,9929
1712222012869,599616083010434940,9882
1712222012877,599616083018096908,9818
1712222012885,599616083025758876,9690
1712222012892,599616083033420844,9479
1712222012900,599616083041082812,9273
1712222012908,599616083048744780,9136
1712222012915,599616083056406748,9022
1712222012923,599616083064068716,8852
1712222012931,599616083071730684,8620
1712222012937,599616083079392652,8352
1712222012945,599616083087054620,8058
1712222012953,599616083094716588,7833
1712222012961,599616083102378556,7746
1712222012969,599616083110040524,7696
1712222012977,599616083117702492,7627
1712222012984,599616083125364460,7580
1712222012992,599616083133026428,7511
1712222013000,599616083140688396,7457
1712222013007,599616083148350364,7433
1712222013015,599616083156012332,7284
1712222013023,599616083163674300,7099
1712222013030,599616083171336268,7064
1712222013038,599616083178998236,7045
1712222013046,599616083186660204,6986
1712222013053,599616083194322172,6988
1712222013061,599616083201984140,6983
1712222013069,599616083209646108,6933
1712222013076,599616083217308076,6815
1712222013084,599616083224970044,6569
1712222013092,599616083232632012,6415
1712222013099,599616083240293980,6431
1712222013107,599616083247955948,6391
1712222013115,599616083255617916,6315
1712222013121,599616083263279884,6415
1712222013129,599616083270941852,6609
1712222013137,599616083278603820,6630
1712222013145,599616083286265788,6401
1712222013153,599616083293927756,6069
1712222013160,599616083301589724,5901
1712222013168,599616083309251692,5936
1712222013176,599616083316913660,5927
1712222013183,599616083324575628,5802
1712222013191,599616083332237596,5695
1712222013199,599616083339899564,5555
1712222013206,599616083347561532,5288
1712222013214,599616083355223500,5015
1712222013222,599616083362885468,4828
1712222013229,599616083370547436,4679
1712222013237,599616083378229488,4582
1712222013245,599616083385891178,4584
1712222013252,599616083393552868,4577
1712222013260,599616083401214558,4497
1712222013268,599616083408876248,4482
1712222013275,599616083416537938,4523
1712222013283,599616083424199628,4471
1712222013291,599616083431861318,4418
1712222013297,599616083439523008,4454
1712222013305,599616083447184698,4504
1712222013313,599616083454846388,4520
1712222013321,599616083462508078,4473
1712222013329,599616083470169768,4331
1712222013337,599616083477831458,4177
1712222013344,599616083485493148,4115
1712222013352,599616083493154838,4132
1712222013360,599616083500816528,4151
1712222013367,599616083508478218,4163
1712222013375,599616083516139908,4149
1712222013383,599616083523801598,4089
1712222013390,599616083531463288,4056
1712222013398,599616083539124978,4073
1712222013406,599616083546786668,4087
1712222013413,599616083554448358,4118
1712222013421,599616083562110048,4149
1712222013429,599616083569771738,4111
1712222013436,599616083577433428,4068
1712222013444,599616083585095118,4125
1712222013452,599616083592756808,4203
1712222013459,599616083600418498,4243
1712222013467,599616083608080188,4279
1712222013475,599616083615741878,4262
1712222013481,599616083623403568,4191
1712222013489,599616083631065258,4184
1712222013497,599616083638726948,4186
1712222013505,599616083646388638,4063
1712222013513,599616083654050328,3916
1712222013521,599616083661712018,3845
1712222013528,599616083669373708,3784
1712222013536,599616083677035398,3753
1712222013544,599616083684697088,3779
1712222013551,599616083692358778,3789
1712222013559,599616083700020468,3748
1712222013567,599616083707682158,3670
1712222013574,599616083715343848,3502
1712222013582,599616083723005538,3298
1712222013590,599616083730667228,3218
1712222013597,599616083738328918,3227
1712222013605,599616083745990608,3185
1712222013613,599616083753652298,3085
1712222013620,599616083761313988,2964
1712222013628,599616083768975678,2898
1712222013636,599616083776637368,2922
1712222013643,599616083784299058,2957
1712222013651,599616083791960748,2955
1712222013659,599616083799622438,2938
1712222013665,599616083807284128,2901
1712222013673,599616083814945818,2863
1712222013681,599616083822607508,2865
1712222013689,599616083830269198,2898
1712222013697,599616083837930888,2929
1712222013705,599616083845592578,2964
1712222013712,599616083853254268,3038
1712222013720,599616083860915958,3189
1712222013727,599616083868577648,3355
1712222013735,599616083876239338,3334
1712222013743,599616083883901028,3043
1712222013750,599616083891562718,2749
1712222013758,599616083899224408,2713
1712222013766,599616083906886098,2751
1712222013773,599616083914547788,2673
1712222013781,599616083922209478,2633
1712222013789,599616083929871168,2676
1712222013796,599616083937507818,2664
1712222013804,599616083945169856,2628
1712222013812,599616083952831894,2633
1712222013819,599616083960493932,2619
1712222013827,599616083968155970,2602
1712222013835,599616083975818008,2614
1712222013841,599616083983480046,2586
1712222013849,599616083991142084,2529
1712222013857,599616083998804122,2498
1712222013865,599616084006466160,2420
1712222013873,599616084014128198,2337
1712222013881,599616084021790236,2363
1712222013888,599616084029452274,2375
1712222013896,599616084037114312,2335
1712222013904,599616084044776350,2351
1712222013911,599616084052438388,2353
1712222013919,599616084060100426,2306
1712222013927,599616084067762464,2280
1712222013934,599616084075424502,2240
1712222013942,599616084083086540,2195
1712222013950,599616084090748578,2216
1712222013957,599616084098410616,2226
1712222013965,599616084106072654,2152
1712222013973,599616084113734692,2074
1712222013980,599616084121396730,2038
1712222013988,599616084129058768,1982
1712222013996,599616084136720806,1894
1712222014003,599616084144382844,1877
1712222014011,599616084152044882,1922
1712222014019,599616084159706920,1922
1712222014025,599616084167368958,1887
1712222014033,599616084175030996,1847
1712222014041,599616084182693034,1804
1712222014049,599616084190355072,1799
1712222014057,599616084198017110,1797
1712222014065,599616084205679148,1752
1712222014072,599616084213341186,1697
1712222014080,599616084221003224,1598
1712222014088,599616084228665262,1437
1712222014095,599616084236327300,1354
1712222014103,599616084243989338,1340
1712222014111,599616084251651376,1259
1712222014118,599616084259313414,1150
1712222014126,599616084266975452,1105
1712222014134,599616084274637490,1075
1712222014141,599616084282299528,1006
1712222014149,599616084289961566,944
1712222014157,599616084297623604,895
1712222014164,599616084305285642,819
1712222014172,599616084312947680,753
1712222014180,599616084320609718,748
1712222014187,599616084328271756,786
1712222014195,599616084335933794,795
1712222014203,599616084343595832,743
1712222014209,599616084351257870,686
1712222014217,599616084358919908,677
1712222014225,599616084366581946,691
1712222014233,599616084374243984,686
1712222014241,599616084381906022,686
1712222014248,599616084389568060,698
1712222014256,599616084397230098,684
1712222014264,599616084404892136,651
1712222014271,599616084412554174,658
1712222014279,599616084420216212,691
1712222014287,599616084427878250,712
1712222014294,599616084435540288,760
1712222014302,599616084443202326,878
1712222014310,599616084450864364,1044
1712222014317,599616084458526402,1077
1712222014325,599616084466188440,812
1712222014333,599616084473850478,487
1712222014340,599616084481512516,447
1712222014348,599616084489174554,492
1712222014356,599616084496856722,395
1712222014363,599616084504518481,357
1712222014371,599616084512180240,412
1712222014379,599616084519841999,416
1712222014385,599616084527503758,402
1712222014393,599616084535165517,359
1712222014401,599616084542827276,253
1712222014409,599616084550489035,222
1712222014417,599616084558150794,281
1712222014425,599616084565812553,322
1712222014432,599616084573474312,329
1712222014440,599616084581136071,291
1712222014448,599616084588797830,206
1712222014455,599616084596459589,177
1712222014463,599616084604121348,229
1712222014471,599616084611783107,255
1712222014478,599616084619444866,224
1712222014486,599616084627106625,172
1712222014494,599616084634768384,144
1712222014501,599616084642430143,177
1712222014509,599616084650091902,262
1712222014517,599616084657753661,341
1712222014524,599616084665415420,388
1712222014532,599616084673077179,407
1712222014540,599616084680738938,409
1712222014547,599616084688400697,428
1712222014555,599616084696062456,473
1712222014563,599616084703724215,518
1712222014569,599616084711385974,530
1712222014577,599616084719047733,459
1712222014585,599616084726709492,329
1712222014593,599616084734371251,258
1712222014601,599616084742033010,296
1712222014609,599616084749694769,333
1712222014616,599616084757356528,291
1712222014624,599616084765018287,217
1712222014632,599616084772680046,177
1712222014639,599616084780341805,142
1712222014647,599616084788003564,123
1712222014655,599616084795665323,163
1712222014662,599616084803327082,198
1712222014670,599616084810988841,194
1712222014678,599616084818650600,206
1712222014685,599616084826312359,229
1712222014693,599616084833974118,220
1712222014701,599616084841635877,210
1712222014708,599616084849297636,224
1712222014716,599616084856959395,196
1712222014724,599616084864621154,156
1712222014731,599616084872282913,120
1712222014739,599616084879944672,44
1712222014747,599616084887606431,9
1712222014753,599616084895268190,54
1712222014761,599616084902929949,82
1712222014769,599616084910591708,104
1712222014777,599616084918253467,156
1712222014785,599616084925915226,191
1712222014792,599616084933576985,213
1712222014800,599616084941238744,236
1712222014808,599616084948900503,241
1712222014815,599616084956562262,260
1712222014823,599616084964224021,305
1712222014831,599616084971885780,322
1712222014838,599616084979547539,296
1712222014846,599616084987209298,296
1712222014854,599616084994871057,336
1712222014861,599616085002532816,383
1712222014869,599616085010194575,492
1712222014877,599616085017856334,712
1712222014884,599616085025518093,883
1712222014892,599616085033179852,762
1712222014900,599616085040841611,426
1712222014907,599616085048503370,260
1712222014915,599616085056135100,393
1712222014923,599616085063797277,520
1712222014929,599616085071459454,511
1712222014937,599616085079121631,487
1712222014945,599616085086783808,499
1712222014953,599616085094445985,523
1712222014961,599616085102108162,561
1712222014969,599616085109770339,603
1712222014976,599616085117432516,577
1712222014984,599616085125094693,447
1712222014992,599616085132756870,345
1712222014999,599616085140419047,383
1712222015007,599616085148081224,445
1712222015015,599616085155743401,452
1712222015022,599616085163405578,468
1712222015030,599616085171067755,480
1712222015038,599616085178729932,449
1712222015045,599616085186392109,452
1712222015053,599616085194054286,506
1712222015061,599616085201716463,535
1712222015068,599616085209378640,551
1712222015076,599616085217040817,582
1712222015084,599616085224702994,565
1712222015091,599616085232365171,483
1712222015099,599616085240027348,466
1712222015107,599616085247689525,554
1712222015113,599616085255351702,629
1712222015121,599616085263013879,651
1712222015129,599616085270676056,644
1712222015137,599616085278338233,639
1712222015145,599616085286000410,670
1712222015153,599616085293662587,705
1712222015160,599616085301324764,703
1712222015168,599616085308986941,665
1712222015176,599616085316649118,556
1712222015183,599616085324311295,388
1712222015191,599616085331973472,314
1712222015199,599616085339635649,343
1712222015206,599616085347297826,341
1712222015214,599616085354960003,267
1712222015222,599616085362622180,161
1712222015229,599616085370284357,82
1712222015237,599616085377946534,82
1712222015245,599616085385608711,92
1712222015252,599616085393270888,42
1712222015260,599616085400933065,-18
1712222015268,599616085408595242,-80
1712222015275,599616085416257419,-175
1712222015283,599616085423919596,-222
1712222015289,599616085431581773,-194
1712222015297,599616085439243950,-179
1712222015305,599616085446906127,-184
1712222015313,599616085454568304,-170
1712222015321,599616085462230481,-177
1712222015329,599616085469892658,-184
1712222015336,599616085477554835,-153
1712222015344,599616085485217012,-111
1712222015352,599616085492879189,-94
1712222015359,599616085500541366,-118
1712222015367,599616085508203543,-163
1712222015375,599616085515865720,-191
1712222015382,599616085523527897,-194
1712222015390,599616085531190074,-172
1712222015398,599616085538852251,-158
1712222015405,599616085546514428,-165
1712222015413,599616085554176605,-161
1712222015421,599616085561838782,-134
1712222015428,599616085569500959,-75
1712222015436,599616085577163136,66
1712222015444,599616085584825313,303
1712222015451,599616085592487490,520
1712222015459,599616085600149667,511
1712222015467,599616085607811844,184
1712222015473,599616085615474090,-113
1712222015481,599616085623136267,-30
1712222015489,599616085630798444,118
1712222015497,599616085638460621,66
1712222015505,599616085646122798,63
1712222015513,599616085653784975,125
1712222015520,599616085661447152,59
1712222015528,599616085669109329,2
1712222015536,599616085676771506,82
1712222015543,599616085684433683,134
1712222015551,599616085692095860,132
1712222015559,599616085699758037,177
1712222015566,599616085707420214,168
1712222015574,599616085715082391,94
1712222015582,599616085722744568,118
1712222015589,599616085730406745,149
1712222015597,599616085738068922,63
1712222015605,599616085745731099,18
1712222015612,599616085753393276,75
1712222015620,599616085761055453,92
1712222015628,599616085768717630,68
1712222015635,599616085776379807,82
1712222015643,599616085784041984,106
1712222015651,599616085791704161,123
1712222015657,599616085799366338,142
1712222015665,599616085807028515,144
1712222015673,599616085814690692,139
1712222015681,599616085822352869,153
1712222015689,599616085830015046,177
1712222015697,599616085837677223,201
1712222015704,599616085845339400,217
1712222015712,599616085853001577,203
1712222015720,599616085860663754,149
1712222015727,599616085868325931,111
1712222015735,599616085875988108,142
1712222015743,599616085883650285,194
1712222015750,599616085891312462,232
1712222015758,599616085898974639,220
1712222015766,599616085906636816,130
1712222015773,599616085914298993,66
1712222015781,599616085921961170,108
1712222015789,599616085929623347,165
1712222015796,599616085937285524,189
1712222015804,599616085944947701,210
1712222015812,599616085952609878,198
1712222015819,599616085960272055,158
1712222015827,599616085967934232,168
1712222015835,599616085975596409,220
1712222015841,599616085983258586,246
1712222015849,599616085990920763,267
1712222015857,599616085998582940,284
1712222015865,599616086006245117,274
1712222015873,599616086013907294,296
1712222015880,599616086021569471,338
1712222015888,599616086029231648,345
1712222015896,599616086036893825,326
1712222015903,599616086044556002,279
1712222015911,599616086052218179,196
1712222015919,599616086059880356,191
1712222015926,599616086067542533,305
1712222015934,599616086075204710,412
1712222015942,599616086082866887,490
1712222015949,599616086090529064,594
1712222015957,599616086098191241,674
1712222015965,599616086105853418,712
1712222015972,599616086113515595,769
1712222015980,599616086121177772,852
1712222015988,599616086128839949,897
1712222015995,599616086136502126,902
1712222016003,599616086144164303,914
1712222016011,599616086151826480,1001
1712222016017,599616086159488657,1139
1712222016025,599616086167150834,1098
1712222016033,599616086174798032,712
1712222016041,599616086182460418,298
1712222016049,599616086190122804,215
1712222016057,599616086197785190,206
1712222016064,599616086205447576,71
1712222016072,599616086213109962,14
1712222016080,599616086220772348,66
1712222016087,599616086228434734,97
1712222016095,599616086236097120,54
1712222016103,599616086243759506,-89
1712222016110,599616086251421892,-187
1712222016118,599616086259084278,-82
1712222016126,599616086266746664,61
1712222016133,599616086274409050,108
1712222016141,599616086282071436,127
1712222016149,599616086289733822,146
1712222016156,599616086297396208,165
1712222016164,599616086305058594,201
1712222016172,599616086312720980,243
1712222016179,599616086320383366,277
1712222016187,599616086328045752,298
1712222016195,599616086335708138,312
1712222016201,599616086343370524,319
1712222016209,599616086351032910,298
1712222016217,599616086358695296,255
1712222016225,599616086366357682,222
1712222016233,599616086374020068,201
1712222016241,599616086381682454,191
1712222016248,599616086389344840,189
1712222016256,599616086397007226,165
1712222016264,599616086404669612,137
1712222016271,599616086412331998,118
1712222016279,599616086419994384,108
1712222016287,599616086427656770,120
1712222016294,599616086435319156,85
1712222016302,599616086442981542,-14
1712222016310,599616086450643928,-18
1712222016317,599616086458306314,56
1712222016325,599616086465968700,56
1712222016333,599616086473631086,44
1712222016340,599616086481293472,116
1712222016348,599616086488955858,139
1712222016356,599616086496618244,89
1712222016363,599616086504280630,73
1712222016371,599616086511943016,63
1712222016379,599616086519605402,52
1712222016385,599616086527267788,78
1712222016393,599616086534930174,78
1712222016401,599616086542592560,42
1712222016409,599616086550254946,40
1712222016417,599616086557917332,52
1712222016424,599616086565579718,28
1712222016432,599616086573242104,11
1712222016440,599616086580904490,-4
1712222016447,599616086588566876,-89
1712222016455,599616086596229262,-227
1712222016463,599616086603891648,-310
1712222016470,599616086611554034,-298
1712222016478,599616086619216420,-251
1712222016486,599616086626878806,-227
1712222016493,599616086634541192,-232
1712222016501,599616086642203578,-265
1712222016509,599616086649865964,-293
1712222016516,599616086657528350,-284
1712222016524,599616086665190736,-279
1712222016532,599616086672853122,-269
1712222016539,599616086680515508,-236
1712222016547,599616086688177894,-229
1712222016555,599616086695840280,-232
1712222016561,599616086703502666,-191
1712222016569,599616086711165052,-97
1712222016577,599616086718827438,87
1712222016585,599616086726489824,322
1712222016593,599616086734172298,352
1712222016601,599616086741834406,-16
1712222016608,599616086749496514,-419
1712222016616,599616086757158622,-350
1712222016624,599616086764820730,-123
1712222016631,599616086772482838,-158
1712222016639,599616086780144946,-269
1712222016647,599616086787807054,-274
1712222016654,599616086795469162,-224
1712222016662,599616086803131270,-179
1712222016670,599616086810793378,-151
1712222016677,599616086818455486,-118
1712222016685,599616086826117594,-132
1712222016693,599616086833779702,-234
1712222016700,599616086841441810,-293
1712222016708,599616086849103918,-253
1712222016716,599616086856766026,-184
1712222016723,599616086864428134,-116
1712222016731,599616086872090242,-66
1712222016739,599616086879752350,-66
1712222016745,599616086887414458,-52
1712222016753,599616086895076566,18
1712222016761,599616086902738674,89
1712222016769,599616086910400782,139
1712222016777,599616086918062890,144
1712222016785,599616086925724998,66
1712222016792,599616086933387106,-14
1712222016800,599616086941049214,16
1712222016808,599616086948711322,87
1712222016815,599616086956373430,97
1712222016823,599616086964035538,89
1712222016831,599616086971697646,89
1712222016838,599616086979359754,68
1712222016846,599616086987021862,40
1712222016854,599616086994683970,28
1712222016861,599616087002346078,18
1712222016869,599616087010008186,-9
1712222016877,599616087017670294,-66
1712222016884,599616087025332402,-113
1712222016892,599616087032994510,-137
1712222016900,599616087040656618,-139
1712222016907,599616087048318726,-127
1712222016915,599616087055980834,-139
1712222016923,599616087063642942,-215
1712222016929,599616087071305050,-310
1712222016937,599616087078967158,-407
1712222016945,599616087086629266,-520
1712222016953,599616087094291374,-596
1712222016961,599616087101953482,-603
1712222016969,599616087109615590,-622
1712222016976,599616087117277698,-677
1712222016984,599616087124939806,-722
1712222016992,599616087132601914,-779
1712222016999,599616087140264022,-781
1712222017007,599616087147926130,-708
1712222017014,599616087155588238,-710
1712222017022,599616087163250346,-779
1712222017030,599616087170912454,-769
1712222017037,599616087178574562,-710
1712222017045,599616087186236670,-682
1712222017053,599616087193898778,-682
1712222017060,599616087201560886,-719
1712222017068,599616087209222994,-734
1712222017076,599616087216885102,-658
1712222017083,599616087224547210,-582
1712222017091,599616087232209318,-584
1712222017099,599616087239871426,-660
1712222017105,599616087247533534,-755
1712222017113,599616087255195642,-767
1712222017121,599616087262857750,-708
1712222017129,599616087270519858,-651
1712222017137,599616087278181966,-587
1712222017145,599616087285844074,-476
1712222017152,599616087293506202,-253
1712222017160,599616087301168310,28
1712222017168,599616087308830418,120
1712222017175,599616087316492526,-156
1712222017183,599616087324154634,-442
1712222017191,599616087331816742,-333
1712222017198,599616087339478850,-175
1712222017206,599616087347140958,-184
1712222017214,599616087354803066,-101
1712222017221,599616087362465174,-28
1712222017229,599616087370127282,-92
1712222017237,599616087377789390,-106
1712222017244,599616087385451498,-30
1712222017252,599616087393113606,89
1712222017260,599616087400775714,300
1712222017267,599616087408437822,476
1712222017275,599616087416099930,520
1712222017283,599616087423762038,570
1712222017289,599616087431424146,670
1712222017297,599616087439086254,722
1712222017305,599616087446748362,722
1712222017313,599616087454410470,712
1712222017321,599616087462072578,637
1712222017329,599616087469734686,494
1712222017336,599616087477396794,369
1712222017344,599616087485058902,258
1712222017352,599616087492721010,182
1712222017359,599616087500383118,163
1712222017367,599616087508045226,156
1712222017375,599616087515707334,194
1712222017382,599616087523369442,329
1712222017390,599616087531031550,454
1712222017398,599616087538693658,478
1712222017405,599616087546355766,490
1712222017413,599616087554017874,565
1712222017421,599616087561679982,655
1712222017428,599616087569342090,724
1712222017436,599616087577004198,826
1712222017444,599616087584666306,895
1712222017451,599616087592328414,845
1712222017459,599616087599990522,819
1712222017467,599616087607652630,843
1712222017473,599616087615314738,790
1712222017481,599616087622976846,757
1712222017489,599616087630638954,807
1712222017497,599616087638301062,828
1712222017505,599616087645963170,840
1712222017513,599616087653625278,907
1712222017520,599616087661287386,954
1712222017528,599616087668949494,1056
1712222017536,599616087676611602,994
1712222017543,599616087684273710,-97
1712222017551,599616087691935818,-1297
1712222017559,599616087699597926,-857
1712222017566,599616087707260034,-97
1712222017574,599616087714922142,-182
1712222017581,599616087722584250,-85
1712222017589,599616087730246358,326
1712222017597,599616087737908466,528
1712222017604,599616087745570574,532
1712222017612,599616087753232682,442
1712222017620,599616087760894790,341
1712222017627,599616087768556898,333
1712222017635,599616087776219006,388
1712222017643,599616087783881114,416
1712222017649,599616087791543222,393
1712222017657,599616087799205330,322
1712222017665,599616087806867438,286
1712222017673,599616087814529546,319
1712222017681,599616087822191654,386
1712222017689,599616087829853762,442
1712222017696,599616087837515870,480
1712222017704,599616087845177978,530
1712222017712,599616087852810010,535
1712222017719,599616087860472536,468
1712222017727,599616087868135062,492
1712222017735,599616087875797588,648
1712222017742,599616087883460114,689
1712222017750,599616087891122640,357
1712222017758,599616087898785166,-125
1712222017765,599616087906447692,-251
1712222017773,599616087914110218,-85
1712222017781,599616087921772744,-52
1712222017788,599616087929435270,-73
1712222017796,599616087937097796,56
1712222017804,599616087944760322,355
1712222017811,599616087952422848,710
1712222017819,599616087960085374,767
1712222017827,599616087967747900,528
1712222017833,599616087975410426,376
1712222017841,599616087983072952,300
1712222017849,599616087990735478,130
1712222017857,599616087998398004,-23
1712222017865,599616088006060530,-75
1712222017873,599616088013723056,-35
1712222017880,599616088021385582,82
1712222017888,599616088029048108,184
1712222017896,599616088036710634,182
1712222017903,599616088044373160,35
1712222017911,599616088052035686,-198
1712222017919,599616088059698212,-333
1712222017926,599616088067360738,-371
1712222017934,599616088075023264,-478
1712222017942,599616088082685790,-601
1712222017949,599616088090348316,-627
1712222017957,599616088098010842,-648
1712222017965,599616088105673368,-677
1712222017972,599616088113335894,-637
1712222017980,599616088120998420,-589
1712222017988,599616088128660946,-580
1712222017995,599616088136323472,-570
1712222018003,599616088143985998,-568
1712222018011,599616088151648524,-542
1712222018017,599616088159311050,-435
1712222018025,599616088166973576,-374
1712222018033,599616088174636102,-433
1712222018041,599616088182298628,-487
1712222018049,599616088189961154,-516
1712222018057,599616088197623680,-573
1712222018064,599616088205286206,-573
1712222018072,599616088212948732,-509
1712222018080,599616088220611258,-478
1712222018087,599616088228273784,-464
1712222018095,599616088235936310,-447
1712222018103,599616088243598836,-478
1712222018110,599616088251261362,-589
1712222018118,599616088258923888,-696
1712222018125,599616088266586414,-679
1712222018133,599616088274248940,-606
1712222018141,599616088281911466,-577
1712222018148,599616088289573992,-551
1712222018156,599616088297236518,-528
1712222018164,599616088304899044,-547
1712222018171,599616088312561570,-592
1712222018179,599616088320224096,-658
1712222018187,599616088327886622,-719
1712222018193,599616088335549148,-729
1712222018201,599616088343211674,-748
1712222018209,599616088350874200,-802
1712222018217,599616088358536726,-788
1712222018225,599616088366199252,-734
1712222018233,599616088373861778,-753
1712222018240,599616088381524304,-800
1712222018248,599616088389186830,-840
1712222018256,599616088396849356,-878
1712222018263,599616088404511882,-840
1712222018271,599616088412204526,-781
1712222018279,599616088419866634,-774
1712222018286,599616088427528742,-760
1712222018294,599616088435190850,-762
1712222018302,599616088442852958,-781
1712222018309,599616088450515066,-644
1712222018317,599616088458177174,-390
1712222018325,599616088465839282,-326
1712222018332,599616088473501390,-570
1712222018340,599616088481163498,-859
1712222018348,599616088488825606,-902
1712222018355,599616088496487714,-798
1712222018363,599616088504149822,-724
1712222018371,599616088511811930,-641
1712222018377,599616088519474038,-544
1712222018385,599616088527136146,-492
1712222018393,599616088534798254,-511
1712222018401,599616088542460362,-502
1712222018409,599616088550122470,-397
1712222018417,599616088557784578,-307
1712222018424,599616088565446686,-324
1712222018432,599616088573108794,-367
1712222018440,599616088580770902,-371
1712222018447,599616088588433010,-367
1712222018455,599616088596095118,-357
1712222018463,599616088603757226,-333
1712222018470,599616088611419334,-305
1712222018478,599616088619081442,-300
1712222018486,599616088626743550,-338
1712222018493,599616088634405658,-397
1712222018501,599616088642067766,-440
1712222018509,599616088649729874,-459
1712222018516,599616088657391982,-461
1712222018524,599616088665054090,-435
1712222018532,599616088672716198,-393
1712222018539,599616088680378306,-343
1712222018547,599616088688040414,-253
1712222018555,599616088695702522,-137
1712222018561,599616088703364630,-71
1712222018569,599616088711026738,-59
1712222018577,599616088718688846,-30
1712222018585,599616088726350954,56
1712222018593,599616088734013062,215
1712222018601,599616088741675170,395
1712222018608,599616088749337278,487
1712222018616,599616088756999386,438
1712222018624,599616088764661494,336
1712222018631,599616088772323602,322
1712222018639,599616088779985710,355
1712222018647,599616088787647818,326
1712222018654,599616088795309926,310
1712222018662,599616088802972034,324
1712222018670,599616088810634142,239
1712222018677,599616088818296250,125
1712222018685,599616088825958358,99
1712222018693,599616088833620466,87
1712222018700,599616088841282574,75
1712222018708,599616088848944682,99
1712222018716,599616088856606790,113
1712222018723,599616088864268898,113
1712222018731,599616088871931006,118
1712222018739,599616088879593114,104
1712222018745,599616088887255222,82
1712222018753,599616088894917330,82
1712222018761,599616088902579438,68
1712222018769,599616088910241546,37
1712222018777,599616088917903654,21
1712222018784,599616088925565762,-37
1712222018792,599616088933227870,-134
1712222018800,599616088940889978,-179
1712222018807,599616088948552086,-184
1712222018815,599616088956214194,-163
1712222018823,599616088963876302,-71
1712222018830,599616088971538432,47
1712222018838,599616088979200540,123
1712222018846,599616088986862648,134
1712222018853,599616088994524756,108
1712222018861,599616089002186864,111
1712222018869,599616089009848972,151
1712222018876,599616089017511080,203
1712222018884,599616089025173188,246
1712222018892,599616089032835296,333
1712222018899,599616089040497404,535
1712222018907,599616089048159512,764
1712222018915,599616089055821620,840
1712222018921,599616089063483728,646
1712222018929,599616089071145836,319
1712222018937,599616089078807944,206
1712222018945,599616089086470052,310
1712222018953,599616089094132160,341
1712222018961,599616089101794268,300
1712222018968,599616089109456376,324
1712222018976,599616089117118484,329
1712222018984,599616089124780592,267
1712222018991,599616089132442700,243
1712222018999,599616089140104808,291
1712222019007,599616089147766916,338
1712222019014,599616089155429024,378
1712222019022,599616089163091132,409
1712222019030,599616089170753240,369
1712222019037,599616089178415348,298
1712222019045,599616089186077456,300
1712222019053,599616089193739564,329
1712222019060,599616089201401672,312
1712222019068,599616089209063780,298
1712222019076,599616089216725888,274
1712222019083,599616089224387996,210
1712222019091,599616089232050104,184
1712222019099,599616089239712212,208
1712222019105,599616089247374320,220
1712222019113,599616089255036428,239
1712222019121,599616089262698536,281
1712222019129,599616089270360644,284
1712222019137,599616089278022752,224
1712222019145,599616089285684860,213
1712222019152,599616089293346968,279
1712222019160,599616089301009076,314
1712222019168,599616089308671184,274
1712222019175,599616089316333292,229
1712222019183,599616089323995400,255
1712222019191,599616089331657508,348
1712222019198,599616089339319616,416
1712222019206,599616089346981724,431
1712222019214,599616089354643832,431
1712222019221,599616089362305940,390
1712222019229,599616089369968048,324
1712222019237,599616089377630156,319
1712222019244,599616089385292264,355
1712222019252,599616089392954372,364
1712222019260,599616089400616480,367
1712222019267,599616089408278588,359
1712222019275,599616089415940696,326
1712222019283,599616089423602804,319
1712222019289,599616089431264912,374
1712222019297,599616089438927020,435
1712222019305,599616089446589128,459
1712222019313,599616089454251236,452
1712222019321,599616089461913344,426
1712222019328,599616089469575452,397
1712222019336,599616089477237560,459
1712222019344,599616089484899668,594
1712222019351,599616089492561776,698
1712222019359,599616089500223884,748
1712222019367,599616089507885992,743
1712222019374,599616089515548100,644
1712222019382,599616089523210208,518
1712222019390,599616089530872336,506
1712222019397,599616089538534444,520
1712222019405,599616089546196552,426
1712222019413,599616089553858660,286
1712222019420,599616089561520768,191
1712222019428,599616089569182876,146
1712222019436,599616089576844984,92
1712222019443,599616089584507092,-2
1712222019451,599616089592169200,-80
1712222019459,599616089599831308,-127
1712222019465,599616089607493416,-220
1712222019473,599616089615155524,-326
1712222019481,599616089622817632,-284
1712222019489,599616089630479740,-158
1712222019497,599616089638141848,-56
1712222019505,599616089645803956,125
1712222019512,599616089653466064,393
1712222019520,599616089661128172,549
1712222019528,599616089668790280,440
1712222019535,599616089676452388,179
1712222019543,599616089684114496,116
1712222019551,599616089691776604,269
1712222019558,599616089699438712,338
1712222019566,599616089707100820,298
1712222019574,599616089714762928,319
1712222019581,599616089722425036,367
1712222019589,599616089730087144,367
1712222019597,599616089737749252,367
1712222019604,599616089745411360,402
1712222019612,599616089753073468,416
1712222019620,599616089760735576,414
1712222019627,599616089768397684,416
1712222019635,599616089776059792,357
1712222019643,599616089783721900,269
1712222019649,599616089791384008,274
1712222019657,599616089799046116,274
1712222019665,599616089806708224,179
1712222019673,599616089814370332,158
1712222019681,599616089822032440,232
1712222019689,599616089829694548,269
1712222019696,599616089837356656,288
1712222019704,599616089845018764,322
1712222019712,599616089852680872,317
1712222019719,599616089860342980,284
1712222019727,599616089868005088,277
1712222019735,599616089875667196,288
1712222019742,599616089883329304,305
1712222019750,599616089890991412,312
1712222019758,599616089898653520,298
1712222019765,599616089906315628,265
1712222019773,599616089913977736,236
1712222019781,599616089921639844,236
1712222019788,599616089929301952,248
1712222019796,599616089936964060,253
1712222019804,599616089944626168,208
1712222019811,599616089952288276,71
1712222019819,599616089959950384,-44
1712222019827,599616089967612492,-16
1712222019833,599616089975274600,44
1712222019841,599616089982936708,63
1712222019849,599616089990598816,106
1712222019857,599616089998260924,132
1712222019865,599616090005923032,106
1712222019872,599616090013585140,116
1712222019880,599616090021247248,165
1712222019888,599616090028909356,182
1712222019895,599616090036571464,170
1712222019903,599616090044233572,134
1712222019911,599616090051895680,89
1712222019918,599616090059557788,108
1712222019926,599616090067219896,194
1712222019934,599616090074882004,241
1712222019941,599616090082544112,232
1712222019949,599616090090206240,206
1712222019957,599616090097868348,168
1712222019964,599616090105530456,146
1712222019972,599616090113192564,153
1712222019980,599616090120854672,132
1712222019987,599616090128516780,89
1712222019995,599616090136178888,61
1712222020003,599616090143840996,-73
1712222020009,599616090151503104,-291
1712222020017,599616090159165212,-348
1712222020025,599616090166827320,-307
1712222020033,599616090174489428,-367
1712222020041,599616090182151536,-468
1712222020049,599616090189813644,-554
1712222020056,599616090197475752,-632
1712222020064,599616090205137860,-644
1712222020072,599616090212799968,-613
1712222020079,599616090220462076,-615
1712222020087,599616090228124184,-639
1712222020095,599616090235786292,-653
1712222020102,599616090243448400,-637
1712222020110,599616090251110508,-532
1712222020118,599616090258772616,-310
1712222020125,599616090266434724,-68
1712222020133,599616090274096832,-54
1712222020141,599616090281758940,-390
1712222020148,599616090289421048,-753
1712222020156,599616090297083156,-734
1712222020164,599616090304745264,-551
1712222020171,599616090312407372,-523
1712222020179,599616090320069480,-511
1712222020187,599616090327731588,-454
1712222020193,599616090335393696,-468
1712222020201,599616090343055804,-511
1712222020209,599616090350717912,-483
1712222020217,599616090358380020,-404
1712222020225,599616090366042128,-352
1712222020233,599616090373704236,-319
1712222020240,599616090381366344,-279
1712222020248,599616090389028452,-251
1712222020256,599616090396690560,-220
1712222020263,599616090404352668,-163
1712222020271,599616090412014776,-120
1712222020279,599616090419676884,-108
1712222020286,599616090427338992,-80
1712222020294,599616090435001100,-42
1712222020302,599616090442663208,-33
1712222020309,599616090450325316,-9
1712222020317,599616090457987424,33
1712222020325,599616090465649532,52
1712222020332,599616090473311640,52
1712222020340,599616090480973748,7
1712222020348,599616090488635856,-99
1712222020355,599616090496297964,-146
1712222020363,599616090503960072,-106
1712222020371,599616090511622180,-104
1712222020377,599616090519284288,-116
1712222020385,599616090526946396,-89
1712222020393,599616090534608504,-120
1712222020401,599616090542270612,-198
1712222020409,599616090549932720,-210
1712222020417,599616090557594828,-187
1712222020424,599616090565256936,-177
1712222020432,599616090572919044,-146
1712222020439,599616090580581152,-120
1712222020447,599616090588243260,-125
1712222020455,599616090595905368,-116
1712222020462,599616090603567476,-94
1712222020470,599616090611229584,-80
1712222020478,599616090618891692,-42
1712222020485,599616090626553800,-4
1712222020493,599616090634215908,-4
1712222020501,599616090641878016,-21
1712222020508,599616090649515088,-49
1712222020516,599616090657177544,-101
1712222020524,599616090664840000,-130
1712222020531,599616090672502456,-149
1712222020539,599616090680164912,-239
1712222020547,599616090687827368,-386
1712222020553,599616090695489824,-457
1712222020561,599616090703152280,-452
1712222020569,599616090710814736,-466
1712222020577,599616090718477192,-459
1712222020585,599616090726139648,-435
1712222020593,599616090733802104,-464
1712222020600,599616090741464560,-459
1712222020608,599616090749127016,-376
1712222020616,599616090756789472,-322
1712222020623,599616090764451928,-277
1712222020631,599616090772114384,-194
1712222020639,599616090779776840,-156
1712222020646,599616090787439296,-198
1712222020654,599616090795101752,-187
1712222020662,599616090802764208,-68
1712222020669,599616090810426664,35
1712222020677,599616090818089120,85
1712222020685,599616090825751576,111
1712222020692,599616090833414032,113
1712222020700,599616090841076488,139
1712222020708,599616090848738944,243
1712222020715,599616090856401400,423
1712222020723,599616090864063856,615
1712222020731,599616090871726312,615
1712222020737,599616090879388768,265
1712222020745,599616090887051224,-120
1712222020753,599616090894713680,-106
1712222020761,599616090902376136,75
1712222020769,599616090910038592,85
1712222020777,599616090917701048,61
1712222020784,599616090925363504,63
1712222020792,599616090933025960,23
1712222020800,599616090940688416,-2
1712222020807,599616090948350872,2
1712222020815,599616090956013328,-11
1712222020823,599616090963675784,-33
1712222020830,599616090971338240,-28
1712222020838,599616090979000696,2
1712222020846,599616090986663152,56
1712222020853,599616090994325608,111
1712222020861,599616091001988064,203
1712222020869,599616091009650520,312
1712222020876,599616091017312976,286
1712222020884,599616091024975432,127
1712222020892,599616091032637888,18
1712222020899,599616091040300344,23
1712222020907,599616091047962800,66
1712222020915,599616091055625256,85
1712222020921,599616091063287712,63
1712222020929,599616091070950168,-18
1712222020937,599616091078612624,-116
1712222020945,599616091086275080,-94
1712222020953,599616091093937536,-9
1712222020961,599616091101599992,-4
1712222020968,599616091109262448,-42
1712222020976,599616091116924904,-61
1712222020983,599616091124587360,-89
1712222020991,599616091132249816,-106
1712222020999,599616091139912272,-68
1712222021006,599616091147574728,-35
1712222021014,599616091155237184,-47
1712222021022,599616091162899640,-42
1712222021029,599616091170562096,-7
1712222021037,599616091178224552,33
1712222021045,599616091185887008,75
1712222021052,599616091193549464,89
1712222021060,599616091201211920,75
1712222021068,599616091208894510,85
1712222021075,599616091216556687,66
1712222021083,599616091224218864,-7
1712222021091,599616091231881041,-16
1712222021097,599616091239543218,26
1712222021105,599616091247205395,14
1712222021113,599616091254867572,-9
1712222021121,599616091262529749,-30
1712222021129,599616091270191926,-123
1712222021137,599616091277854103,-258
1712222021144,599616091285516280,-390
1712222021152,599616091293178457,-497
1712222021160,599616091300840634,-511
1712222021167,599616091308502811,-473
1712222021175,599616091316164988,-511
1712222021183,599616091323827165,-544
1712222021190,599616091331489342,-473
1712222021198,599616091339151519,-397
1712222021206,599616091346813696,-359
1712222021213,599616091354475873,-303
1712222021221,599616091362138050,-248
1712222021229,599616091369800227,-229
1712222021236,599616091377462404,-206
1712222021244,599616091385124581,-172
1712222021252,599616091392786758,-127
1712222021259,599616091400448935,-75
1712222021267,599616091408111112,-78
1712222021275,599616091415773289,-142
1712222021281,599616091423435466,-165
1712222021289,599616091431097643,-123
1712222021297,599616091438759820,-56
1712222021305,599616091446421997,42
1712222021313,599616091454084174,220
1712222021321,599616091461746351,421
1712222021328,599616091469408528,485
1712222021336,599616091477070705,269
1712222021344,599616091484732882,-52
1712222021351,599616091492395059,-71
1712222021359,599616091500057236,94
1712222021367,599616091507719413,97
1712222021374,599616091515381590,35
1712222021382,599616091523043767,35
1712222021390,599616091530705944,49
1712222021397,599616091538368121,99
1712222021405,599616091546030298,161
1712222021413,599616091553692475,132
1712222021420,599616091561354652,35
1712222021428,599616091569016829,-9
1712222021436,599616091576679006,33
1712222021443,599616091584341183,59
1712222021451,599616091592003360,21
1712222021459,599616091599665537,-14
1712222021465,599616091607327714,-26
1712222021473,599616091614989891,-49
1712222021481,599616091622652068,-61
1712222021489,599616091630314245,-63
1712222021497,599616091637976422,-89
1712222021505,599616091645638599,-111
1712222021512,599616091653300776,-161
1712222021520,599616091660962953,-224
1712222021528,599616091668625130,-229
1712222021535,599616091676287307,-210
1712222021543,599616091683949484,-215
1712222021551,599616091691611661,-215
1712222021558,599616091699273838,-241
1712222021566,599616091706936015,-314
1712222021574,599616091714598192,-350
1712222021581,599616091722260369,-345
1712222021589,599616091729922546,-378
1712222021596,599616091737584723,-419
1712222021604,599616091745246900,-428
1712222021612,599616091752909077,-499
1712222021619,599616091760571254,-589
1712222021627,599616091768263596,-603
1712222021635,599616091775925355,-596
1712222021641,599616091783587114,-599
1712222021649,599616091791248873,-655
1712222021657,599616091798910632,-783
1712222021665,599616091806572391,-826
1712222021673,599616091814234150,-715
1712222021681,599616091821895909,-596
1712222021688,599616091829557668,-539
1712222021696,599616091837219427,-478
1712222021704,599616091844881186,-433
1712222021711,599616091852542945,-428
1712222021719,599616091860204704,-388
1712222021727,599616091867866463,-303
1712222021734,599616091875528222,-239
1712222021742,599616091883189981,-198
1712222021750,599616091890851740,-161
1712222021757,599616091898513499,-144
1712222021765,599616091906175258,-139
1712222021773,599616091913837017,-94
1712222021780,599616091921498776,-14
1712222021788,599616091929160535,33
1712222021796,599616091936822294,42
1712222021803,599616091944484053,9
1712222021811,599616091952145812,-63
1712222021819,599616091959807571,-87
1712222021825,599616091967469330,-30
1712222021833,599616091975131089,0
1712222021841,599616091982792848,-7
1712222021849,599616091990454607,2
1712222021857,599616091998116366,7
1712222021865,599616092005778125,2
1712222021872,599616092013439884,7
1712222021880,599616092021101643,-7
1712222021888,599616092028763402,-11
1712222021895,599616092036425161,63
1712222021903,599616092044086920,224
1712222021911,599616092051748679,423
1712222021918,599616092059410438,554
1712222021926,599616092067072197,416
1712222021934,599616092074733956,85
1712222021941,599616092082395715,-18
1712222021949,599616092090057474,92
1712222021957,599616092097719233,54
1712222021964,599616092105380992,-18
1712222021972,599616092113042751,66
1712222021980,599616092120704510,127
1712222021987,599616092128366269,120
1712222021995,599616092136028028,163
1712222022003,599616092143689787,194
1712222022009,599616092151351546,184
1712222022017,599616092159013305,198
1712222022025,599616092166675064,222
1712222022033,599616092174336823,229
1712222022041,599616092181998582,253
1712222022049,599616092189660341,262
1712222022056,599616092197322100,265
1712222022064,599616092204983859,298
1712222022072,599616092212645618,336
1712222022079,599616092220307377,355
1712222022087,599616092227969136,388
1712222022095,599616092235630895,421
1712222022102,599616092243292654,431
1712222022110,599616092250954413,416
1712222022118,599616092258616172,369
1712222022125,599616092266277931,307
1712222022133,599616092273939690,305
1712222022141,599616092281601449,338
1712222022148,599616092289263208,338
1712222022156,599616092296924967,272
1712222022163,599616092304586726,198
1712222022171,599616092312248485,210
1712222022179,599616092319910244,265
1712222022185,599616092327541974,296
1712222022193,599616092335204151,317
1712222022201,599616092342866328,314
1712222022209,599616092350528505,341
1712222022217,599616092358190682,412
1712222022225,599616092365852859,428
1712222022232,599616092373515036,371
1712222022240,599616092381177213,243
1712222022248,599616092388839390,4
1712222022255,599616092396501567,-206
1712222022263,599616092404163744,-291
1712222022271,599616092411825921,-369
1712222022278,599616092419488098,-494
1712222022286,599616092427150275,-615
1712222022294,599616092434812452,-729
1712222022301,599616092442474629,-845
1712222022309,599616092450136806,-878
1712222022317,599616092457798983,-798
1712222022324,599616092465461160,-708
1712222022332,599616092473123337,-651
1712222022340,599616092480785514,-639
1712222022347,599616092488447691,-677
1712222022355,599616092496109868,-644
1712222022363,599616092503772045,-554
1712222022369,599616092511434222,-530
1712222022377,599616092519096399,-497
1712222022385,599616092526758576,-435
1712222022393,599616092534420753,-435
1712222022401,599616092542082930,-426
1712222022409,599616092549745107,-343
1712222022416,599616092557407284,-274
1712222022424,599616092565069461,-234
1712222022432,599616092572731638,-191
1712222022439,599616092580393815,-196
1712222022447,599616092588055992,-224
1712222022455,599616092595718169,-187
1712222022462,599616092603380346,-127
1712222022470,599616092611042523,-120
1712222022478,599616092618704700,-120
1712222022485,599616092626366877,-94
1712222022493,599616092634029054,-14
1712222022501,599616092641691231,142
1712222022508,599616092649353408,208
1712222022516,599616092657015585,-11
1712222022524,599616092664677762,-307
1712222022531,599616092672339939,-314
1712222022539,599616092680002116,-206
1712222022547,599616092687664293,-227
1712222022553,599616092695326470,-224
1712222022561,599616092702988647,-144
1712222022569,599616092710650824,-111
1712222022577,599616092718313001,-120
1712222022585,599616092725975178,-111
1712222022593,599616092733637355,-89
1712222022600,599616092741299532,-59
1712222022608,599616092748961709,-35
1712222022616,599616092756623886,-54
1712222022623,599616092764286063,-49
1712222022631,599616092771948240,21
1712222022639,599616092779610417,78
1712222022646,599616092787272594,94
1712222022654,599616092794934771,104
1712222022662,599616092802596948,59
1712222022669,599616092810259125,26
1712222022677,599616092817921302,75
1712222022684,599616092825583479,82
1712222022692,599616092833245656,42
1712222022700,599616092840907833,97
1712222022707,599616092848570010,172
1712222022715,599616092856232187,189
1712222022723,599616092863894364,217
1712222022729,599616092871556541,260
1712222022737,599616092879218718,262
1712222022745,599616092886880964,279
1712222022753,599616092894543141,322
1712222022761,599616092902205318,329
1712222022769,599616092909867495,322
1712222022776,599616092917529672,331
1712222022784,599616092925191849,324
1712222022792,599616092932854026,310
1712222022799,599616092940516203,317
1712222022807,599616092948178380,307
1712222022815,599616092955840557,291
1712222022822,599616092963502734,296
1712222022830,599616092971164911,239
1712222022838,599616092978827088,144
1712222022845,599616092986489265,144
1712222022853,599616092994151442,175
1712222022861,599616093001813619,127
1712222022868,599616093009475796,85
1712222022876,599616093017137973,71
1712222022884,599616093024800150,28
1712222022891,599616093032462327,4
1712222022899,599616093040124504,28
1712222022907,599616093047786681,75
1712222022913,599616093055448858,130
1712222022921,599616093063111035,168
1712222022929,599616093070773212,182
1712222022937,599616093078435389,215
1712222022945,599616093086097566,281
1712222022953,599616093093759743,367
1712222022960,599616093101421920,468
1712222022968,599616093109084097,542
1712222022976,599616093116746274,551
1712222022983,599616093124408451,485
1712222022991,599616093132070628,390
1712222022999,599616093139732805,350
1712222023006,599616093147394982,355
1712222023014,599616093155057159,341
1712222023022,599616093162719336,293
1712222023029,599616093170381513,229
1712222023037,599616093178043690,198
1712222023045,599616093185705867,239
1712222023052,599616093193368044,279
1712222023060,599616093201030221,296
1712222023068,599616093208692398,355
1712222023075,599616093216354575,464
1712222023083,599616093224016752,561
1712222023091,599616093231678929,563
1712222023097,599616093239341106,352
1712222023105,599616093247003283,40
1712222023113,599616093254665460,-28
1712222023121,599616093262327637,75
1712222023129,599616093269989814,44
1712222023137,599616093277651991,-2
1712222023144,599616093285314168,63
1712222023152,599616093292976345,111
1712222023160,599616093300638522,73
1712222023167,599616093308300699,-18
1712222023175,599616093315962876,-89
1712222023183,599616093323625053,-66
1712222023190,599616093331287230,-18
1712222023198,599616093338949407,-9
1712222023206,599616093346611584,7
1712222023213,599616093354273761,16
1712222023221,599616093361935938,-66
1712222023229,599616093369598115,-161
1712222023236,599616093377260292,-146
1712222023244,599616093384922469,-89
1712222023251,599616093392584646,-73
1712222023259,599616093400246823,-75
1712222023267,599616093407909000,-92
1712222023273,599616093415571177,-106
1712222023281,599616093423233354,-80
1712222023289,599616093430895531,-35
1712222023297,599616093438557708,9
1712222023305,599616093446209874,61
1712222023313,599616093453872191,125
1712222023320,599616093461534508,196
1712222023328,599616093469196825,281
1712222023336,599616093476859142,362
1712222023343,599616093484521459,400
1712222023351,599616093492183776,352
1712222023359,599616093499846093,253
1712222023366,599616093507508410,134
1712222023374,599616093515170727,28
1712222023382,599616093522833044,33
1712222023389,599616093530495361,123
1712222023397,599616093538157678,172
1712222023405,599616093545819995,194
1712222023412,599616093553482312,222
1712222023420,599616093561144629,236
1712222023428,599616093568806946,255
1712222023435,599616093576469263,262
1712222023443,599616093584131580,206
1712222023451,599616093591793897,139
1712222023457,599616093599456214,116
1712222023465,599616093607118531,82
1712222023473,599616093614780848,11
1712222023481,599616093622443165,-68
1712222023489,599616093630105482,-137
1712222023497,599616093637767799,-220
1712222023504,599616093645430116,-310
1712222023512,599616093653092433,-357
1712222023520,599616093660754750,-364
1712222023527,599616093668417067,-336
1712222023535,599616093676079384,-277
1712222023543,599616093683741701,-255
1712222023550,599616093691404018,-274
1712222023558,599616093699066335,-291
1712222023566,599616093706728652,-329
1712222023573,599616093714390969,-333
1712222023581,599616093722053286,-269
1712222023589,599616093729715603,-248
1712222023596,599616093737377920,-288
1712222023604,599616093745040237,-307
1712222023612,599616093752702554,-288
1712222023619,599616093760364871,-255
1712222023627,599616093768027188,-224
1712222023635,599616093775689505,-208
1712222023641,599616093783351822,-172
1712222023649,599616093791014139,-68
1712222023657,599616093798676456,106
1712222023665,599616093806338773,277
1712222023673,599616093814001090,241
1712222023681,599616093821663407,-92
1712222023688,599616093829325724,-393
1712222023696,599616093836988041,-345
1712222023704,599616093844650358,-217
1712222023711,599616093852312675,-258
1712222023719,599616093859974992,-300
1712222023727,599616093867637309,-279
1712222023734,599616093875299626,-258
1712222023742,599616093882961943,-222
1712222023750,599616093890624260,-182
1712222023757,599616093898286577,-222
1712222023765,599616093905948894,-286
1712222023773,599616093913611211,-253
1712222023780,599616093921273528,-179
1712222023788,599616093928935845,-144
1712222023796,599616093936598162,-106
1712222023803,599616093944260479,-68
1712222023811,599616093951922796,-75
1712222023817,599616093959585113,-82
1712222023825,599616093967247430,-56
1712222023833,599616093974909747,-28
1712222023841,599616093982572064,-35
1712222023849,599616093990234381,-78
1712222023857,599616093997896698,-108
1712222023864,599616094005574086,-125
1712222023872,599616094013236194,-120
1712222023880,599616094020898302,-101
1712222023887,599616094028560410,-104
1712222023895,599616094036222518,-137
1712222023903,599616094043884626,-241
1712222023910,599616094051546734,-374
1712222023918,599616094059208842,-386
1712222023926,599616094066870950,-312
1712222023933,599616094074533058,-296
1712222023941,599616094082195166,-310
1712222023949,599616094089857274,-355
1712222023956,599616094097519382,-459
1712222023964,599616094105181490,-492
1712222023972,599616094112843598,-414
1712222023979,599616094120505706,-343
1712222023987,599616094128167814,-279
1712222023995,599616094135829922,-198
1712222024001,599616094143492030,-172
1712222024009,599616094151154138,-156
1712222024017,599616094158816246,-85
1712222024025,599616094166478354,-33
1712222024033,599616094174140462,-26
1712222024041,599616094181802570,-7
1712222024048,599616094189464678,-30
1712222024056,599616094197126786,-82
1712222024064,599616094204788894,-56
1712222024071,599616094212451002,-2
1712222024079,599616094220113110,2
1712222024087,599616094227775218,-40
1712222024094,599616094235437326,-113
1712222024102,599616094243099434,-156
1712222024110,599616094250761542,-146
1712222024117,599616094258423650,-139
1712222024125,599616094266085758,-142
1712222024133,599616094273747866,-153
1712222024140,599616094281409974,-201
1712222024148,599616094289072082,-269
1712222024156,599616094296734190,-300
1712222024163,599616094304396298,-272
1712222024171,599616094312058406,-286
1712222024179,599616094319720514,-376
1712222024185,599616094327382622,-407
1712222024193,599616094335044730,-338
1712222024201,599616094342706838,-293
1712222024209,599616094350368946,-279
1712222024217,599616094358031054,-243
1712222024225,599616094365693162,-168
1712222024232,599616094373355270,-14
1712222024240,599616094381017378,201
1712222024248,599616094388679486,267
1712222024255,599616094396341594,30
1712222024263,599616094404003702,-262
1712222024271,599616094411665810,-284
1712222024278,599616094419327918,-139
1712222024286,599616094426990026,-89
1712222024294,599616094434652134,-125
1712222024301,599616094442314242,-144
1712222024309,599616094449976350,-125
1712222024317,599616094457638458,-111
1712222024324,599616094465300566,-134
1712222024332,599616094472962674,-177
1712222024340,599616094480624782,-248
1712222024347,599616094488286890,-291
1712222024355,599616094495948998,-251
1712222024363,599616094503611106,-215
1712222024369,599616094511273214,-227
1712222024377,599616094518935322,-203
1712222024385,599616094526597430,-161
1712222024393,599616094534259538,-168
1712222024401,599616094541921646,-168
1712222024408,599616094549583754,-134
1712222024416,599616094557245862,-101
1712222024424,599616094564907990,-63
1712222024431,599616094572570098,-37
1712222024439,599616094580232206,-75
1712222024447,599616094587894314,-120
1712222024454,599616094595556422,-92
1712222024462,599616094603218530,-61
1712222024470,599616094610880638,-49
1712222024477,599616094618542746,-2
1712222024485,599616094626204854,-23
1712222024493,599616094633866962,-130
1712222024500,599616094641529070,-161
1712222024508,599616094649191178,-111
1712222024516,599616094656853286,-75
1712222024523,599616094664515394,-30
1712222024531,599616094672177502,9
1712222024539,599616094679839610,-26
1712222024545,599616094687501718,-75
1712222024553,599616094695163826,-56
1712222024561,599616094702825934,-28
1712222024569,599616094710488042,-30
1712222024577,599616094718150150,-54
1712222024585,599616094725812258,-116
1712222024592,599616094733474366,-179
1712222024600,599616094741136474,-182
1712222024608,599616094748798582,-172
1712222024615,599616094756460690,-191
1712222024623,599616094764122798,-189
1712222024631,599616094771784906,-213
1712222024638,599616094779447014,-336
1712222024646,599616094787109122,-452
1712222024654,599616094794771230,-447
1712222024661,599616094802433338,-395
1712222024669,599616094810095446,-397
1712222024677,599616094817757554,-461
1712222024684,599616094825419662,-520
1712222024692,599616094833081770,-509
1712222024700,599616094840743878,-454
1712222024707,599616094848405986,-435
1712222024715,599616094856068094,-419
1712222024723,599616094863730202,-359
1712222024729,599616094871392310,-336
1712222024737,599616094879054418,-355
1712222024745,599616094886716526,-324
1712222024753,599616094894378634,-260
1712222024761,599616094902040742,-217
1712222024769,599616094909702850,-182
1712222024776,599616094917364958,-163
1712222024784,599616094925027066,-196
1712222024792,599616094932689174,-210
1712222024799,599616094940351282,-137
1712222024807,599616094948013390,-7
1712222024815,599616094955675498,184
1712222024822,599616094963337606,367
1712222024830,599616094970999714,307
1712222024838,599616094978661822,-16
1712222024845,599616094986323930,-243
1712222024853,599616094993986038,-165
1712222024861,599616095001648146,-49
1712222024868,599616095009310254,-71
1712222024876,599616095016972362,-127
1712222024884,599616095024634470,-175
1712222024891,599616095032296578,-165
1712222024899,599616095039958686,-87
1712222024907,599616095047620794,-21
1712222024913,599616095055282902,11
1712222024921,599616095062945010,18
1712222024929,599616095070607118,9
1712222024937,599616095078269226,23
1712222024945,599616095085931334,73
1712222024953,599616095093593442,108
1712222024960,599616095101255550,113
1712222024968,599616095108917658,89
1712222024975,599616095116579766,16
1712222024983,599616095124241894,-49
1712222024991,599616095131904002,-33
1712222024998,599616095139566110,-23
1712222025006,599616095147228218,-111
1712222025014,599616095154890326,-232
1712222025021,599616095162552434,-312
1712222025029,599616095170214542,-343
1712222025037,599616095177876650,-343
1712222025044,599616095185538758,-296
1712222025052,599616095193200866,-179
1712222025060,599616095200862974,-37
1712222025067,599616095208525082,37
1712222025075,599616095216187190,26
1712222025083,599616095223849298,40
1712222025089,599616095231511406,175
1712222025097,599616095239173514,333
1712222025105,599616095246835622,416
1712222025113,599616095254497730,485
1712222025121,599616095262159838,561
1712222025129,599616095269821946,589
1712222025136,599616095277484054,594
1712222025144,599616095285146162,594
1712222025152,599616095292808270,568
1712222025159,599616095300470378,577
1712222025167,599616095308132486,632
1712222025175,599616095315794594,613
1712222025182,599616095323456702,499
1712222025190,599616095331118810,442
1712222025198,599616095338780918,447
1712222025205,599616095346443026,414
1712222025213,599616095354105134,374
1712222025221,599616095361767242,322
1712222025228,599616095369429350,251
1712222025236,599616095377091458,239
1712222025244,599616095384753566,229
1712222025251,599616095392415674,182
1712222025259,599616095400077782,210
1712222025267,599616095407739890,298
1712222025273,599616095415401998,367
1712222025281,599616095423064106,421
1712222025289,599616095430726214,433
1712222025297,599616095438388322,440
1712222025305,599616095446050430,497
1712222025313,599616095453712538,561
1712222025320,599616095461374646,587
1712222025328,599616095469036754,601
1712222025336,599616095476698862,641
1712222025343,599616095484360970,587
1712222025351,599616095492023078,367
1712222025359,599616095499685186,194
1712222025366,599616095507347294,132
1712222025374,599616095515009402,35
1712222025382,599616095522671510,-4
1712222025389,599616095530333618,99
1712222025397,599616095537995726,291
1712222025405,599616095545657834,473
1712222025412,599616095553319942,459
1712222025420,599616095560982050,158
1712222025428,599616095568644158,-99
1712222025435,599616095576306266,-30
1712222025443,599616095583968374,99
1712222025451,599616095591630482,89
1712222025457,599616095599292590,99
1712222025465,599616095606954698,139
1712222025473,599616095614616806,139
1712222025481,599616095622278914,177
1712222025489,599616095629941022,267
1712222025497,599616095637603130,317
1712222025504,599616095645265238,319
1712222025512,599616095652927346,281
1712222025519,599616095660589454,220
1712222025527,599616095668251562,236
1712222025535,599616095675913670,317
1712222025542,599616095683575798,367
1712222025550,599616095691237906,402
1712222025558,599616095698900014,428
1712222025565,599616095706562122,395
1712222025573,599616095714224230,333
1712222025581,599616095721886338,331
1712222025588,599616095729548446,357
1712222025596,599616095737210554,359
1712222025604,599616095744872662,338
1712222025611,599616095752534770,241
1712222025619,599616095760196878,137
1712222025627,599616095767858986,139
1712222025633,599616095775521094,151
1712222025641,599616095783183202,111
1712222025649,599616095790845310,80
1712222025657,599616095798507418,30
1712222025665,599616095806169526,-28
1712222025673,599616095813831634,-35
1712222025680,599616095821493742,-61
1712222025688,599616095829155850,-134
1712222025696,599616095836817958,-149
1712222025703,599616095844480066,-146
1712222025711,599616095852142174,-217
1712222025719,599616095859804282,-187
1712222025726,599616095867466390,9
1712222025734,599616095875128498,191
1712222025742,599616095882790606,300
1712222025749,599616095890452714,381
1712222025757,599616095898114822,428
1712222025765,599616095905776930,457
1712222025772,599616095913439038,452
1712222025780,599616095921101146,383
1712222025788,599616095928763254,333
1712222025795,599616095936425362,359
1712222025803,599616095944087470,395
1712222025811,599616095951749578,395
1712222025817,599616095959411686,369
1712222025825,599616095967073794,362
1712222025833,599616095974735902,357
1712222025841,599616095982398010,296
1712222025849,599616095990060118,227
1712222025857,599616095997722226,189
1712222025864,599616096005384334,158
1712222025872,599616096013046442,118
1712222025880,599616096020708550,47
1712222025887,599616096028370658,-47
1712222025895,599616096036032766,-163
1712222025903,599616096043694874,-326
1712222025910,599616096051356982,-438
1712222025918,599616096059019090,-421
1712222025926,599616096066681198,-397
1712222025933,599616096074343306,-416
1712222025941,599616096082005414,-395
1712222025949,599616096089667522,-362
1712222025956,599616096097329630,-359
1712222025964,599616096104991738,-296
1712222025972,599616096112653846,-89
1712222025979,599616096120315954,156
1712222025987,599616096127978062,234
1712222025995,599616096135640170,-2
1712222026001,599616096143302278,-378
1712222026009,599616096150964386,-497
1712222026017,599616096158626494,-402
1712222026025,599616096166288602,-423
1712222026033,599616096173950710,-499
1712222026041,599616096181612818,-502
1712222026048,599616096189274926,-549
1712222026056,599616096196937034,-670
1712222026064,599616096204599142,-738
1712222026071,599616096212261250,-745
1712222026079,599616096219923358,-700
1712222026086,599616096227585466,-615
1712222026094,599616096235247574,-568
1712222026102,599616096242909702,-565
1712222026109,599616096250571810,-558
1712222026117,599616096258233918,-561
1712222026125,599616096265896026,-547
1712222026132,599616096273558134,-487
1712222026140,599616096281220242,-464
1712222026148,599616096288882350,-483
1712222026155,599616096296544458,-454
1712222026163,599616096304206566,-397
1712222026171,599616096311868674,-378
1712222026177,599616096319530782,-376
1712222026185,599616096327192890,-414
1712222026193,599616096334854998,-561
1712222026201,599616096342517106,-689
1712222026209,599616096350179214,-655
1712222026217,599616096357841322,-577
1712222026224,599616096365503430,-547
1712222026232,599616096373165538,-504
1712222026240,599616096380827646,-478
1712222026247,599616096388489754,-528
1712222026255,599616096396151862,-554
1712222026263,599616096403813970,-487
1712222026270,599616096411476078,-412
1712222026278,599616096419138186,-352
1712222026286,599616096426800294,-286
1712222026293,599616096434462402,-255
1712222026301,599616096442124510,-277
1712222026309,599616096449786618,-291
1712222026316,599616096457448726,-246
1712222026324,599616096465110834,-163
1712222026332,599616096472772942,-99
1712222026339,599616096480435050,-97
1712222026347,599616096488097158,-113
1712222026355,599616096495759266,-78
1712222026361,599616096503421374,-16
1712222026369,599616096511083482,23
1712222026377,599616096518745590,54
1712222026385,599616096526407698,42
1712222026393,599616096534069806,-54
1712222026401,599616096541731914,-118
1712222026408,599616096549394022,-89
1712222026416,599616096557056130,-82
1712222026424,599616096564718238,-106
1712222026431,599616096572380346,-120
1712222026439,599616096580042454,-156
1712222026447,599616096587704562,-172
1712222026454,599616096595366670,-130
1712222026462,599616096603028778,-113
1712222026470,599616096610690886,-149
1712222026477,599616096618352994,-139
1712222026485,599616096626015102,-47
1712222026493,599616096633677210,170
1712222026500,599616096641339318,485
1712222026508,599616096649001426,705
1712222026516,599616096656663534,764
1712222026523,599616096664325642,719
1712222026531,599616096671987750,629
1712222026539,599616096679649858,582
1712222026545,599616096687311966,632
1712222026553,599616096694974074,741
1712222026561,599616096702636182,772
1712222026569,599616096710298290,589
1712222026577,599616096717960398,267
1712222026585,599616096725622506,97
1712222026592,599616096733284614,132
1712222026600,599616096740946722,189
1712222026608,599616096748608830,210
1712222026615,599616096756270938,229
1712222026623,599616096763933046,232
1712222026631,599616096771595154,215
1712222026638,599616096779257262,203
1712222026646,599616096786919370,201
1712222026653,599616096794581478,203
1712222026661,599616096802243606,191
1712222026669,599616096809905714,151
1712222026676,599616096817567822,108
1712222026684,599616096825229930,89
1712222026692,599616096832892038,56
1712222026699,599616096840554146,-16
1712222026707,599616096848216254,-66
1712222026715,599616096855878362,-47
1712222026721,599616096863540470,-23
1712222026729,599616096871202578,-73
1712222026737,599616096878864686,-144
1712222026745,599616096886526794,-146
1712222026753,599616096894188902,-127
1712222026761,599616096901851010,-142
1712222026768,599616096909513118,-118
1712222026776,599616096917175226,-99
1712222026784,599616096924837334,-151
1712222026791,599616096932499442,-194
1712222026799,599616096940161550,-224
1712222026807,599616096947823658,-291
1712222026814,599616096955485766,-279
1712222026822,599616096963147874,-182
1712222026830,599616096970809982,-99
1712222026837,599616096978472090,4
1712222026845,599616096986134198,158
1712222026853,599616096993796306,286
1712222026860,599616097001458414,397
1712222026868,599616097009120522,525
1712222026876,599616097016782630,606
1712222026883,599616097024444738,632
1712222026891,599616097032106846,658
1712222026899,599616097039768954,684
1712222026905,599616097047431062,689
1712222026913,599616097055093170,663
1712222026921,599616097062755278,561
1712222026929,599616097070417386,378
1712222026937,599616097078079494,258
1712222026945,599616097085741602,251
1712222026952,599616097093403710,251
1712222026960,599616097101065818,246
1712222026968,599616097108727926,274
1712222026975,599616097116390034,293
1712222026983,599616097124052142,296
1712222026991,599616097131714250,303
1712222026998,599616097139376358,277
1712222027006,599616097147038466,187
1712222027014,599616097154700574,75
1712222027021,599616097162362682,7
1712222027029,599616097170024790,-35
1712222027037,599616097177686898,-87
1712222027044,599616097185349006,-168
1712222027052,599616097193011114,-229
1712222027060,599616097200673222,-203
1712222027067,599616097208335330,-170
1712222027075,599616097215997438,-175
1712222027083,599616097223659546,-134
1712222027089,599616097231321654,-63
1712222027097,599616097238983762,-42
1712222027105,599616097246645870,-44
1712222027113,599616097254307978,7
1712222027121,599616097261970086,80
1712222027129,599616097269632194,184
1712222027136,599616097277294302,310
1712222027144,599616097284956410,234
1712222027152,599616097292618518,-97
1712222027159,599616097300280626,-317
1712222027167,599616097307942734,-246
1712222027175,599616097315604842,-184
1712222027182,599616097323266950,-222
1712222027190,599616097330929058,-201
1712222027197,599616097338591166,-194
1712222027205,599616097346253274,-265
1712222027213,599616097353915382,-293
1712222027220,599616097361577510,-246
1712222027228,599616097369239618,-206
1712222027236,599616097376901726,-158
1712222027243,599616097384563834,-111
1712222027251,599616097392225942,-87
1712222027259,599616097399888050,-73
1712222027265,599616097407550158,-118
1712222027273,599616097415212266,-179
1712222027281,599616097422874374,-127
1712222027289,599616097430536482,-54
1712222027297,599616097438198590,-37
1712222027305,599616097445860698,9
1712222027312,599616097453522806,23
1712222027320,599616097461184914,-56
1712222027328,599616097468847022,-71
1712222027335,599616097476509130,-4
1712222027343,599616097484171238,16
1712222027351,599616097491833346,7
1712222027358,599616097499495454,18
1712222027366,599616097507157562,40
1712222027374,599616097514819670,82
1712222027381,599616097522481778,165
1712222027389,599616097530143886,262
1712222027397,599616097537805994,324
1712222027404,599616097545468102,348
1712222027412,599616097553130210,374
1712222027420,599616097560792318,407
1712222027427,599616097568454426,423
1712222027435,599616097576116534,428
1712222027443,599616097583778642,409
1712222027449,599616097591440750,357
1712222027457,599616097599102858,262
1712222027465,599616097606764966,144
1712222027473,599616097614427074,106
1712222027481,599616097622089182,179
1712222027489,599616097629751290,234
1712222027496,599616097637413398,243
1712222027504,599616097645075506,284
1712222027512,599616097652737614,326
1712222027519,599616097660399722,345
1712222027527,599616097668061830,383
1712222027535,599616097675723938,386
1712222027542,599616097683386046,300
1712222027550,599616097691048154,241
1712222027558,599616097698710262,239
1712222027565,599616097706372370,172
1712222027573,599616097714034478,63
1712222027581,599616097721696586,0
1712222027588,599616097729358694,-82
1712222027596,599616097737020802,-153
1712222027604,599616097744682910,-116
1712222027611,599616097752345018,-11
1712222027619,599616097760007126,97
1712222027627,599616097767669234,203
1712222027633,599616097775331342,348
1712222027641,599616097782993450,565
1712222027649,599616097790655558,741
1712222027657,599616097798317666,741
1712222027665,599616097805979774,674
1712222027673,599616097813641882,660
1712222027680,599616097821303990,615
1712222027688,599616097828966098,530
1712222027696,599616097836628206,518
1712222027703,599616097844290314,565
1712222027711,599616097851952422,622
1712222027719,599616097859614530,679
1712222027726,599616097867276638,689
1712222027734,599616097874938746,509
1712222027742,599616097882600854,239
1712222027749,599616097890262962,213
1712222027757,599616097897925070,331
1712222027764,599616097905587178,303
1712222027772,599616097913249286,239
1712222027780,599616097920911414,234
1712222027787,599616097928573522,177
1712222027795,599616097936235630,118
1712222027803,599616097943897738,118
1712222027809,599616097951559846,92
1712222027817,599616097959221954,49
1712222027825,599616097966884062,66
1712222027833,599616097974546170,106
1712222027841,599616097982208278,125
1712222027849,599616097989870386,75
1712222027856,599616097997532494,-73
1712222027864,599616098005194602,-158
1712222027872,599616098012856710,-92
1712222027879,599616098020518818,-44
1712222027887,599616098028180926,-52
1712222027895,599616098035843034,-35
1712222027902,599616098043505142,-44
1712222027910,599616098051167250,-66
1712222027918,599616098058829358,-18
1712222027925,599616098066491466,44
1712222027933,599616098074153574,68
1712222027941,599616098081815682,99
1712222027948,599616098089477790,120
1712222027956,599616098097139898,82
1712222027964,599616098104802006,61
1712222027971,599616098112464114,111
1712222027979,599616098120126222,153
1712222027987,599616098127788330,172
1712222027993,599616098135450438,232
1712222028001,599616098143112546,262
1712222028009,599616098150774654,196
1712222028017,599616098158436762,177
1712222028025,599616098166098870,241
1712222028033,599616098173760978,246
1712222028040,599616098181423086,208
1712222028048,599616098189085194,184
1712222028056,599616098196747302,149
1712222028063,599616098204409410,116
1712222028071,599616098212071518,89
1712222028079,599616098219733626,42
1712222028086,599616098227395734,-16
1712222028094,599616098235057842,-78
1712222028102,599616098242719950,-125
1712222028109,599616098250382058,-130
1712222028117,599616098258044166,-120
1712222028125,599616098265706274,-134
1712222028132,599616098273368382,-130
1712222028140,599616098281030490,-116
1712222028148,599616098288692598,-127
1712222028155,599616098296354706,-89
1712222028163,599616098304016814,-26
1712222028171,599616098311678922,14
1712222028177,599616098319341030,87
1712222028185,599616098327003138,134
1712222028193,599616098334665246,56
1712222028201,599616098342327354,-42
1712222028209,599616098349989462,-68
1712222028217,599616098357651570,-130
1712222028224,599616098365313678,-296
1712222028232,599616098372975786,-395
1712222028240,599616098380637894,-333
1712222028247,599616098388300002,-272
1712222028255,599616098395962110,-253
1712222028263,599616098403624218,-253
1712222028270,599616098411286326,-324
1712222028278,599616098418948434,-402
1712222028286,599616098426610542,-362
1712222028293,599616098434272650,-172
1712222028301,599616098441934758,71
1712222028309,599616098449596866,201
1712222028316,599616098457258974,52
1712222028324,599616098464921082,-243
1712222028331,599616098472583190,-288
1712222028339,599616098480240350,-163
1712222028347,599616098487902527,-187
1712222028353,599616098495564704,-227
1712222028361,599616098503226881,-182
1712222028369,599616098510889058,-182
1712222028377,599616098518551235,-206
1712222028385,599616098526213412,-234
1712222028393,599616098533875589,-343
1712222028400,599616098541537766,-374
1712222028408,599616098549199943,-258
1712222028416,599616098556862120,-194
1712222028423,599616098564524297,-168
1712222028431,599616098572186474,-89
1712222028439,599616098579848651,-42
1712222028446,599616098587510828,-4
1712222028454,599616098595173005,85
1712222028462,599616098602835182,146
1712222028469,599616098610497359,170
1712222028477,599616098618159536,224
1712222028485,599616098625821713,269
1712222028492,599616098633483890,246
1712222028500,599616098641146067,198
1712222028508,599616098648808244,170
1712222028515,599616098656470421,134
1712222028523,599616098664132598,28
1712222028531,599616098671794775,-118
1712222028537,599616098679456952,-191
1712222028545,599616098687119129,-194
1712222028553,599616098694781306,-179
1712222028561,599616098702443483,-111
1712222028569,599616098710105660,14
1712222028577,599616098717767837,125
1712222028584,599616098725430014,194
1712222028592,599616098733092191,243
1712222028600,599616098740754368,272
1712222028607,599616098748416545,251
1712222028615,599616098756078722,206
1712222028623,599616098763740899,189
1712222028630,599616098771403076,172
1712222028638,599616098779065253,108
1712222028646,599616098786727430,59
1712222028653,599616098794389607,87
1712222028661,599616098802051784,132
1712222028669,599616098809713961,134
1712222028676,599616098817376138,127
1712222028684,599616098825038315,123
1712222028692,599616098832700492,99
1712222028699,599616098840362669,73
1712222028707,599616098848024846,75
1712222028715,599616098855687023,92
1712222028721,599616098863349200,18
1712222028729,599616098871011377,-156
1712222028737,599616098878673554,-241
1712222028745,599616098886335731,-189
1712222028753,599616098893997908,-106
1712222028761,599616098901660085,7
1712222028768,599616098909322262,49
1712222028776,599616098916984439,-37
1712222028784,599616098924646616,-47
1712222028791,599616098932308793,123
1712222028799,599616098939970970,317
1712222028807,599616098947633147,473
1712222028814,599616098955295324,677
1712222028822,599616098962957501,916
1712222028830,599616098970619678,1113
1712222028837,599616098978281855,1304
1712222028845,599616098985944032,1499
1712222028853,599616098993606209,1565
1712222028860,599616099001268386,1489
1712222028868,599616099008930563,1380
1712222028876,599616099016592740,1311
1712222028883,599616099024254917,1283
1712222028891,599616099031917094,1219
1712222028897,599616099039589348,963
1712222028905,599616099047251386,532
1712222028913,599616099054913424,253
1712222028921,599616099062575462,206
1712222028929,599616099070237500,68
1712222028937,599616099077899538,-87
1712222028944,599616099085561576,-40
1712222028952,599616099093223614,18
1712222028960,599616099100885652,-16
1712222028967,599616099108547690,-30
1712222028975,599616099116209728,-30
1712222028983,599616099123871766,-40
1712222028990,599616099131533804,-21
1712222028998,599616099139195842,-2
1712222029006,599616099146857880,-35
1712222029013,599616099154519918,-120
1712222029021,599616099162181956,-229
1712222029029,599616099169843994,-286
1712222029036,599616099177506032,-291
1712222029044,599616099185168070,-305
1712222029052,599616099192830108,-333
1712222029059,599616099200492146,-378
1712222029067,599616099208154184,-442
1712222029075,599616099215816222,-487
1712222029081,599616099223478260,-471
1712222029089,599616099231140298,-416
1712222029097,599616099238802336,-378
1712222029105,599616099246464374,-350
1712222029113,599616099254126412,-303
1712222029121,599616099261788450,-277
1712222029128,599616099269450488,-267
1712222029136,599616099277112526,-232
1712222029144,599616099284774564,-189
1712222029151,599616099292436602,-189
1712222029159,599616099300098640,-187
1712222029167,599616099307760678,-137
1712222029174,599616099315422716,-97
1712222029182,599616099323084754,-61
1712222029190,599616099330746792,16
1712222029197,599616099338408830,80
1712222029205,599616099346070868,120
1712222029213,599616099353732906,168
1712222029220,599616099361394944,168
1712222029228,599616099369056982,85
1712222029236,599616099376719020,2
1712222029243,599616099384381058,-2
1712222029251,599616099392043096,4
1712222029259,599616099399705134,-68
1712222029265,599616099407367172,-206
1712222029273,599616099415029210,-284
1712222029281,599616099422691248,-277
1712222029289,599616099430353286,-296
1712222029297,599616099438015324,-348
1712222029305,599616099445677362,-369
1712222029312,599616099453339400,-378
1712222029320,599616099461001438,-395
1712222029328,599616099468663476,-421
1712222029335,599616099476325514,-452
1712222029343,599616099483987552,-440
1712222029351,599616099491649590,-388
1712222029358,599616099499311628,-390
1712222029366,599616099506973666,-473
1712222029374,599616099514635704,-509
1712222029381,599616099522297742,-492
1712222029389,599616099529959780,-554
1712222029397,599616099537621818,-601
1712222029404,599616099545283856,-539
1712222029412,599616099552945894,-520
1712222029420,599616099560607932,-551
1712222029427,599616099568269970,-502
1712222029435,599616099575932008,-435
1712222029443,599616099583594046,-414
1712222029449,599616099591256084,-371
1712222029457,599616099598913126,-314
1712222029465,599616099606575234,-243
1712222029473,599616099614237342,-78
1712222029481,599616099621899450,33
1712222029488,599616099629561558,-156
1712222029496,599616099637223666,-468
1712222029504,599616099644885774,-544
1712222029511,599616099652547882,-506
1712222029519,599616099660209990,-558
1712222029527,599616099667872098,-573
1712222029534,599616099675534206,-528
1712222029542,599616099683196314,-511
1712222029550,599616099690858422,-511
1712222029557,599616099698520530,-573
1712222029565,599616099706182638,-653
1712222029573,599616099713844746,-603
1712222029580,599616099721506854,-490
1712222029588,599616099729168962,-471
1712222029596,599616099736831070,-485
1712222029603,599616099744493178,-497
1712222029611,599616099752155286,-554
1712222029619,599616099759817394,-547
1712222029625,599616099767479502,-426
1712222029633,599616099775141610,-329
1712222029641,599616099782803718,-272
1712222029649,599616099790465826,-210
1712222029657,599616099798127934,-210
1712222029665,599616099805790042,-217
1712222029672,599616099813452150,-156
1712222029680,599616099821114258,-125
1712222029688,599616099828776366,-163
1712222029695,599616099836438474,-187
1712222029703,599616099844100582,-227
1712222029711,599616099851762690,-314
1712222029718,599616099859424798,-343
1712222029726,599616099867086906,-336
1712222029734,599616099874749014,-433
1712222029741,599616099882411122,-528
1712222029749,599616099890073230,-490
1712222029757,599616099897735338,-433
1712222029764,599616099905397446,-395
1712222029772,599616099913059554,-322
1712222029780,599616099920721662,-262
1712222029787,599616099928383770,-239
1712222029795,599616099936045878,-258
1712222029803,599616099943707986,-345
1712222029809,599616099951370094,-431
1712222029817,599616099959032202,-404
1712222029825,599616099966694310,-319
1712222029833,599616099974356418,-262
1712222029841,599616099982018526,-255
1712222029849,599616099989680634,-291
1712222029856,599616099997342742,-305
1712222029864,599616100005004850,-262
1712222029872,599616100012666958,-189
1712222029879,599616100020329066,-161
1712222029887,599616100027991174,-182
1712222029895,599616100035653282,-189
1712222029902,599616100043315390,-217
1712222029910,599616100050977498,-291
1712222029918,599616100058639606,-326
1712222029925,599616100066301714,-329
1712222029933,599616100073963822,-369
1712222029941,599616100081625930,-447
1712222029948,599616100089288038,-584
1712222029956,599616100096950146,-745
1712222029964,599616100104612254,-838
1712222029971,599616100112274362,-857
1712222029979,599616100119936470,-814
1712222029987,599616100127598578,-745
1712222029993,599616100135260686,-710
1712222030001,599616100142922794,-648
1712222030009,599616100150584902,-499
1712222030017,599616100158247030,-305
1712222030025,599616100165909138,-146
1712222030032,599616100173571246,-28
1712222030040,599616100181233354,85
1712222030048,599616100188895462,234
1712222030055,599616100196557570,457
1712222030063,599616100204219678,684
1712222030071,599616100211881786,743
1712222030078,599616100219543894,554
1712222030086,599616100227206002,314
1712222030094,599616100234868110,269
1712222030101,599616100242530218,307
1712222030109,599616100250192326,262
1712222030117,599616100257854434,189
1712222030124,599616100265516542,170
1712222030132,599616100273178650,203
1712222030140,599616100280840758,222
1712222030147,599616100288502866,194
1712222030155,599616100296164974,194
1712222030163,599616100303827082,220
1712222030169,599616100311489190,210
1712222030177,599616100319151298,194
1712222030185,599616100326813406,198
1712222030193,599616100334475514,187
1712222030201,599616100342137622,151
1712222030209,599616100349799730,130
1712222030216,599616100357461838,127
1712222030224,599616100365123946,134
1712222030232,599616100372786054,111
1712222030239,599616100380448162,9
1712222030247,599616100388110270,-104
1712222030255,599616100395772378,-165
1712222030262,599616100403434486,-165
1712222030270,599616100411096594,-137
1712222030278,599616100418758702,-108
1712222030285,599616100426420810,-85
1712222030293,599616100434082918,-75
1712222030301,599616100441745026,-94
1712222030308,599616100449407134,-73
1712222030316,599616100457069242,42
1712222030324,599616100464731350,187
1712222030331,599616100472393458,267
1712222030339,599616100480055566,222
1712222030347,599616100487717674,116
1712222030353,599616100495379782,151
1712222030361,599616100503041890,317
1712222030369,599616100510703998,438
1712222030377,599616100518366106,525
1712222030385,599616100526028214,606
1712222030393,599616100533690322,608
1712222030400,599616100541352430,601
1712222030408,599616100549014538,660
1712222030416,599616100556676646,686
1712222030423,599616100564338754,660
1712222030431,599616100572000862,644
1712222030439,599616100579662970,592
1712222030446,599616100587325078,504
1712222030454,599616100594987186,468
1712222030462,599616100602649294,461
1712222030469,599616100610311402,426
1712222030477,599616100617973510,364
1712222030485,599616100625635618,291
1712222030492,599616100633297726,217
1712222030500,599616100640959834,175
1712222030508,599616100648621942,196
1712222030515,599616100656284050,241
1712222030523,599616100663946158,253
1712222030531,599616100671608266,206
1712222030537,599616100679270374,106
1712222030545,599616100686932482,68
1712222030553,599616100694594590,123
1712222030561,599616100702256698,153
1712222030569,599616100709918806,116
1712222030576,599616100717580934,71
1712222030584,599616100725243042,61
1712222030592,599616100732905150,75
1712222030599,599616100740567258,82
1712222030607,599616100748229366,82
1712222030615,599616100755891474,87
1712222030622,599616100763553582,80
1712222030630,599616100771215690,28
1712222030638,599616100778877798,16
1712222030645,599616100786539906,191
1712222030653,599616100794202014,476
1712222030661,599616100801864122,570
1712222030668,599616100809526230,324
1712222030676,599616100817188338,-66
1712222030684,599616100824850446,-241
1712222030691,599616100832512554,-179
1712222030699,599616100840174662,-134
1712222030707,599616100847836770,-151
1712222030713,599616100855498878,-142
1712222030721,599616100863160986,-118
1712222030729,599616100870823094,-137
1712222030737,599616100878485202,-206
1712222030745,599616100886147310,-286
1712222030753,599616100893809418,-293
1712222030760,599616100901471526,-241
1712222030768,599616100909133634,-194
1712222030776,599616100916795742,-163
1712222030783,599616100924457850,-111
1712222030791,599616100932119958,-2
1712222030799,599616100939782066,125
1712222030806,599616100947444174,172
1712222030814,599616100955106282,139
1712222030822,599616100962768390,123
1712222030829,599616100970430498,118
1712222030837,599616100978092606,82
1712222030845,599616100985754714,33
1712222030852,599616100993416822,-11
1712222030860,599616101001078930,-54
1712222030868,599616101008741038,-99
1712222030875,599616101016403146,-177
1712222030883,599616101024065254,-265
1712222030891,599616101031727362,-298
1712222030897,599616101039389470,-298
1712222030905,599616101047051578,-269
1712222030913,599616101054713686,-201
1712222030921,599616101062375794,-153
1712222030929,599616101070037902,-127
1712222030937,599616101077700010,-68
1712222030944,599616101085362118,-14
1712222030952,599616101093024226,40
1712222030960,599616101100686334,132
1712222030967,599616101108348442,208
1712222030975,599616101116010550,222
1712222030983,599616101123672658,210
1712222030990,599616101131334766,177
1712222030998,599616101138996874,170
1712222031006,599616101146658982,198
1712222031013,599616101154321090,177
1712222031021,599616101161983198,75
1712222031029,599616101169645306,-14
1712222031036,599616101177307414,0
1712222031044,599616101184969522,59
1712222031052,599616101192631630,63
1712222031059,599616101200293738,30
1712222031067,599616101207955846,9
1712222031075,599616101215617954,-9
1712222031081,599616101223280062,-40
1712222031089,599616101230942170,-68
1712222031097,599616101238604278,-111
1712222031105,599616101246266386,-153
1712222031113,599616101253928494,-184
1712222031120,599616101261590602,-253
1712222031128,599616101269252710,-329
1712222031136,599616101276914838,-333
1712222031143,599616101284576946,-322
1712222031151,599616101292239054,-326
1712222031159,599616101299901162,-305
1712222031166,599616101307563270,-319
1712222031174,599616101315225378,-386
1712222031182,599616101322887486,-383
1712222031189,599616101330549594,-317
1712222031197,599616101338211702,-267
1712222031205,599616101345873810,-206
1712222031212,599616101353535918,-179
1712222031220,599616101361198026,-272
1712222031228,599616101368860134,-367
1712222031235,599616101376522242,-369
1712222031243,599616101384184350,-305
1712222031251,599616101391846458,-146
1712222031257,599616101399508566,21
1712222031265,599616101407170674,-56
1712222031273,599616101414832782,-300
1712222031281,599616101422494890,-314
1712222031289,599616101430156998,-139
1712222031297,599616101437819106,-82
1712222031304,599616101445481214,-101
1712222031312,599616101453143322,-92
1712222031320,599616101460805430,-78
1712222031327,599616101468467538,-33
1712222031335,599616101476129646,63
1712222031343,599616101483791754,142
1712222031350,599616101491453862,191
1712222031358,599616101499115970,213
1712222031366,599616101506778078,217
1712222031373,599616101514440186,246
1712222031381,599616101522102294,305
1712222031389,599616101529764402,331
1712222031396,599616101537426510,300
1712222031404,599616101545088618,232
1712222031412,599616101552750726,137
1712222031419,599616101560412834,59
1712222031427,599616101568074942,59
1712222031435,599616101575737050,82
1712222031441,599616101583399158,59
1712222031449,599616101591061266,4
1712222031457,599616101598723374,-47
1712222031465,599616101606385482,-85
1712222031473,599616101614047590,-118
1712222031481,599616101621709698,-165
1712222031488,599616101629371806,-196
1712222031496,599616101637033914,-184
1712222031504,599616101644696022,-165
1712222031511,599616101652358130,-158
1712222031519,599616101660020238,-116
1712222031527,599616101667682346,-44
1712222031534,599616101675344454,-14
1712222031542,599616101683006562,-2
1712222031550,599616101690668670,71
1712222031557,599616101698330778,163
1712222031565,599616101705992886,251
1712222031573,599616101713654994,383
1712222031580,599616101721317102,516
1712222031588,599616101728979210,577
1712222031596,599616101736641318,606
1712222031603,599616101744303426,625
1712222031611,599616101751965534,587
1712222031619,599616101759627642,544
1712222031625,599616101767289750,542
1712222031633,599616101774951858,502
1712222031641,599616101782613966,407
1712222031649,599616101790276074,314
1712222031657,599616101797938182,246
1712222031665,599616101805600290,208
1712222031672,599616101813262398,184
1712222031680,599616101820924506,97
1712222031687,599616101828586614,-37
1712222031695,599616101836248740,-108
1712222031703,599616101843910848,-158
1712222031710,599616101851572956,-227
1712222031718,599616101859235064,-269
1712222031726,599616101866897172,-348
1712222031733,599616101874559280,-412
1712222031741,599616101882221388,-376
1712222031749,599616101889883496,-423
1712222031756,599616101897545604,-582
1712222031764,599616101905207712,-573
1712222031772,599616101912869820,-435
1712222031779,599616101920531928,-381
1712222031787,599616101928194036,-345
1712222031795,599616101935856144,-298
1712222031801,599616101943518252,-326
1712222031809,599616101951180360,-386
1712222031817,599616101958842468,-395
1712222031825,599616101966504576,-359
1712222031833,599616101974166684,-267
1712222031841,599616101981828792,-73
1712222031848,599616101989490900,118
1712222031856,599616101997153008,97
1712222031864,599616102004815116,-194
1712222031871,599616102012477224,-457
1712222031879,599616102020139332,-400
1712222031887,599616102027801440,-274
1712222031894,599616102035463548,-333
1712222031902,599616102043125656,-414
1712222031910,599616102050787764,-416
1712222031917,599616102058449872,-386
1712222031925,599616102066111980,-341
1712222031933,599616102073774088,-298
1712222031940,599616102081436196,-286
1712222031948,599616102089098304,-350
1712222031956,599616102096760412,-423
1712222031963,599616102104422520,-400
1712222031971,599616102112084628,-362
1712222031979,599616102119746736,-350
1712222031985,599616102127408844,-277
1712222031993,599616102135070952,-198
1712222032001,599616102142733060,-149
1712222032009,599616102150395168,-23
1712222032017,599616102158057276,97
1712222032025,599616102165719384,106
1712222032032,599616102173381492,116
1712222032040,599616102181043600,137
1712222032048,599616102188705708,85
1712222032055,599616102196367816,30
1712222032063,599616102204029924,44
1712222032071,599616102211692032,52
1712222032078,599616102219354140,21
1712222032086,599616102227016248,-30
1712222032094,599616102234678356,-151
1712222032101,599616102242340464,-272
1712222032109,599616102250002572,-262
1712222032117,599616102257664680,-194
1712222032124,599616102265326788,-158
1712222032132,599616102272988896,-106
1712222032140,599616102280651004,-47
1712222032147,599616102288313112,-2
1712222032155,599616102295975220,78
1712222032163,599616102303637328,194
1712222032169,599616102311299436,288
1712222032177,599616102318961544,338
1712222032185,599616102326623652,343
1712222032193,599616102334285760,326
1712222032201,599616102341947868,324
1712222032209,599616102349609976,317
1712222032216,599616102357272084,253
1712222032224,599616102364934192,142
1712222032232,599616102372596300,73
1712222032239,599616102380258408,82
1712222032247,599616102387920516,54
1712222032254,599616102395582646,-54
1712222032262,599616102403244754,-116
1712222032270,599616102410906862,-127
1712222032277,599616102418568970,-175
1712222032285,599616102426231078,-296
1712222032293,599616102433893186,-452
1712222032300,599616102441555294,-492
1712222032308,599616102449217402,-419
1712222032316,599616102456879510,-402
1712222032323,599616102464541618,-440
1712222032331,599616102472203726,-459
1712222032339,599616102479865834,-478
1712222032345,599616102487527942,-459
1712222032353,599616102495190050,-355
1712222032361,599616102502852158,-265
1712222032369,599616102510514266,-262
1712222032377,599616102518176374,-253
1712222032385,599616102525838482,-224
1712222032392,599616102533500590,-220
1712222032400,599616102541162698,-201
1712222032408,599616102548824806,-172
1712222032415,599616102556486914,-172
1712222032423,599616102564149022,-172
1712222032431,599616102571811130,-168
1712222032438,599616102579473238,-146
1712222032446,599616102587135346,4
1712222032454,599616102594797454,267
1712222032461,599616102602459562,393
1712222032469,599616102610121670,232
1712222032477,599616102617783778,-23
1712222032484,599616102625445886,-104
1712222032492,599616102633107994,-33
1712222032500,599616102640770102,4
1712222032507,599616102648432210,11
1712222032515,599616102656094318,47
1712222032523,599616102663756426,94
1712222032529,599616102671418534,123
1712222032537,599616102679080642,146
1712222032545,599616102686742750,165
1712222032553,599616102694404858,149
1712222032561,599616102702066966,120
1712222032569,599616102709729074,118
1712222032576,599616102717391182,99
1712222032584,599616102725053290,42
1712222032592,599616102732715398,0
1712222032599,599616102740377506,-18
1712222032607,599616102748039614,-44
1712222032615,599616102755701722,-66
1712222032622,599616102763363830,-85
1712222032630,599616102771025938,-146
1712222032638,599616102778688046,-227
1712222032645,599616102786350154,-232
1712222032653,599616102794012262,-182
1712222032661,599616102801674370,-156
1712222032668,599616102809336478,-134
1712222032676,599616102816998586,-113
1712222032684,599616102824660694,-137
1712222032691,599616102832322802,-156
1712222032699,599616102839984910,-120
1712222032707,599616102847647018,-106
1712222032713,599616102855309126,-139
1712222032721,599616102862971234,-127
1712222032729,599616102870633342,-73
1712222032737,599616102878295450,-33
1712222032745,599616102885957558,-18
1712222032753,599616102893619666,-56
1712222032760,599616102901281774,-82
1712222032768,599616102908943882,-18
1712222032776,599616102916605990,33
1712222032783,599616102924268098,23
1712222032791,599616102931930206,54
1712222032798,599616102939592314,134
1712222032806,599616102947254422,170
1712222032814,599616102954916550,168
1712222032821,599616102962578658,168
1712222032829,599616102970240766,127
1712222032837,599616102977902874,101
1712222032844,599616102985564982,137
1712222032852,599616102993227090,132
1712222032860,599616103000889198,97
1712222032867,599616103008551306,56
1712222032875,599616103016213414,-59
1712222032883,599616103023875522,-146
1712222032889,599616103031537630,-94
1712222032897,599616103039199738,-42
1712222032905,599616103046861846,-33
1712222032913,599616103054523954,-14
1712222032921,599616103062186062,-44
1712222032929,599616103069848170,-97
1712222032936,599616103077510278,-71
1712222032944,599616103085172386,-44
1712222032952,599616103092834494,-106
1712222032959,599616103100496602,-198
1712222032967,599616103108158710,-284
1712222032975,599616103115820818,-371
1712222032982,599616103123482926,-393
1712222032990,599616103131145034,-333
1712222032998,599616103138807142,-288
1712222033005,599616103146469250,-293
1712222033013,599616103154131358,-310
1712222033021,599616103161793466,-319
1712222033028,599616103169455574,-317
1712222033036,599616103177117682,-288
1712222033044,599616103184779790,-239
1712222033051,599616103192441898,-146
1712222033059,599616103200104006,18
1712222033067,599616103207766114,170
1712222033073,599616103215428222,127
1712222033081,599616103223090330,-156
1712222033089,599616103230752438,-355
1712222033097,599616103238414546,-246
1712222033105,599616103246076654,-134
1712222033113,599616103253738762,-156
1712222033120,599616103261400870,-104
1712222033128,599616103269062978,-7
1712222033136,599616103276725086,33
1712222033143,599616103284387194,56
1712222033151,599616103292049302,73
1712222033159,599616103299711410,85
1712222033166,599616103307373518,92
1712222033174,599616103315035626,87
1712222033182,599616103322697734,149
1712222033189,599616103330359842,248
1712222033197,599616103338021950,274
1712222033205,599616103345684058,265
1712222033212,599616103353346166,300
1712222033220,599616103361008274,331
1712222033228,599616103368670382,333
1712222033235,599616103376332490,343
1712222033243,599616103383994598,338
1712222033251,599616103391656706,296
1712222033257,599616103399318814,222
1712222033265,599616103406980922,184
1712222033273,599616103414643030,215
1712222033281,599616103422305138,232
1712222033289,599616103429967246,182
1712222033297,599616103437629354,127
1712222033304,599616103445291462,89
1712222033312,599616103452953570,21
1712222033320,599616103460615678,-68
1712222033327,599616103468277786,-130
1712222033335,599616103475939894,-158
1712222033343,599616103483602002,-142
1712222033350,599616103491264110,-101
1712222033358,599616103498926218,-104
1712222033365,599616103506588326,-146
1712222033373,599616103514250454,-149
1712222033381,599616103521912562,-108
1712222033388,599616103529574670,-75
1712222033396,599616103537236778,-63
1712222033404,599616103544898886,-59
1712222033411,599616103552560994,-44
1712222033419,599616103560223102,-35
1712222033427,599616103567885210,-33
1712222033433,599616103575547318,-26
1712222033441,599616103583209426,-33
1712222033449,599616103590871534,-71
1712222033457,599616103598533642,-146
1712222033465,599616103606195750,-196
1712222033473,599616103613857858,-168
1712222033480,599616103621519966,-113
1712222033488,599616103629182074,-75
1712222033496,599616103636844182,-35
1712222033503,599616103644506290,-47
1712222033511,599616103652168398,-132
1712222033519,599616103659830506,-163
1712222033526,599616103667492614,-82
1712222033534,599616103675154722,-7
1712222033542,599616103682816830,37
1712222033549,599616103690478938,85
1712222033557,599616103698141046,89
1712222033565,599616103705803154,89
1712222033572,599616103713465262,156
1712222033580,599616103721127370,241
1712222033588,599616103728789478,300
1712222033595,599616103736451586,336
1712222033603,599616103744113694,336
1712222033611,599616103751775802,319
1712222033617,599616103759437910,333
1712222033625,599616103767100018,369
1712222033633,599616103774762126,390
1712222033641,599616103782424234,433
1712222033649,599616103790086342,513
1712222033657,599616103797748450,615
1712222033664,599616103805410558,760
1712222033672,599616103813072666,883
1712222033680,599616103820734774,859
1712222033687,599616103828396882,625
1712222033695,599616103836058990,300
1712222033703,599616103843721098,149
1712222033710,599616103851383206,156
1712222033718,599616103859045314,168
1712222033726,599616103866707422,182
1712222033733,599616103874369530,220
1712222033741,599616103882031638,258
1712222033749,599616103889693746,281
1712222033756,599616103897355854,288
1712222033764,599616103905017962,274
1712222033772,599616103912680070,281
1712222033779,599616103920342178,352
1712222033787,599616103928004286,404
1712222033795,599616103935666394,383
1712222033801,599616103943328502,357
1712222033809,599616103950990610,371
1712222033817,599616103958652718,404
1712222033825,599616103966314826,442
1712222033833,599616103973976934,454
1712222033841,599616103981639042,426
1712222033848,599616103989301150,383
1712222033856,599616103996963258,381
1712222033864,599616104004625366,407
1712222033871,599616104012287474,388
1712222033879,599616104019949582,329
1712222033887,599616104027611690,288
1712222033894,599616104035273798,227
1712222033902,599616104042935906,113
1712222033910,599616104050598014,63
1712222033917,599616104058260122,106
1712222033925,599616104065922230,116
1712222033932,599616104073584358,78
1712222033940,599616104081246466,37
1712222033948,599616104088908574,-16
1712222033955,599616104096570682,-21
1712222033963,599616104104232790,47
1712222033971,599616104111894898,73
1712222033977,599616104119557006,26
1712222033985,599616104127219114,-23
1712222033993,599616104134881222,-73
1712222034001,599616104142543330,-125
1712222034009,599616104150205438,-106
1712222034017,599616104157867546,-59
1712222034024,599616104165529654,-80
1712222034032,599616104173191762,-120
1712222034040,599616104180853870,-163
1712222034047,599616104188515978,-260
1712222034055,599616104196178086,-310
1712222034063,599616104203840194,-284
1712222034070,599616104211502302,-307
1712222034078,599616104219164410,-350
1712222034086,599616104226826518,-359
1712222034093,599616104234488626,-407
1712222034101,599616104242150734,-449
1712222034109,599616104249812842,-431
1712222034116,599616104257474950,-423
1712222034124,599616104265137058,-390
1712222034132,599616104272799166,-265
1712222034139,599616104280461274,-139
1712222034147,599616104288123382,-78
1712222034155,599616104295785490,-37
1712222034161,599616104303447598,-16
1712222034169,599616104311109706,23
1712222034177,599616104318771814,125
1712222034185,599616104326433922,161
1712222034193,599616104334096030,104
1712222034201,599616104341758138,104
1712222034208,599616104349420246,134
1712222034216,599616104357082354,101
1712222034224,599616104364744462,75
1712222034231,599616104372406570,104
1712222034239,599616104380068678,66
1712222034247,599616104387730786,-28
1712222034254,599616104395392894,-14
1712222034262,599616104403055002,94
1712222034270,599616104410717110,194
1712222034277,599616104418379218,291
1712222034285,599616104426041326,281
1712222034293,599616104433703434,-35
1712222034300,599616104441365542,-445
1712222034308,599616104449027650,-558
1712222034316,599616104456689758,-511
1712222034323,599616104464351866,-558
1712222034331,599616104472013974,-625
1712222034339,599616104479676082,-655
1712222034345,599616104487338190,-672
1712222034353,599616104495000298,-658
1712222034361,599616104502662406,-613
1712222034369,599616104510324514,-549
1712222034377,599616104517986622,-492
1712222034385,599616104525648730,-487
1712222034392,599616104533310838,-523
1712222034400,599616104540972946,-502
1712222034408,599616104548635054,-419
1712222034415,599616104556297162,-343
1712222034423,599616104563959270,-288
1712222034431,599616104571621378,-279
1712222034438,599616104579283486,-312
1712222034446,599616104586945594,-288
1712222034454,599616104594607702,-220
1712222034461,599616104602269810,-201
1712222034469,599616104609931918,-182
1712222034477,599616104617594026,-151
1712222034484,599616104625256134,-215
1712222034492,599616104632918262,-288
1712222034499,599616104640580370,-248
1712222034507,599616104648242478,-189
1712222034515,599616104655904586,-175
1712222034521,599616104663566694,-172
1712222034529,599616104671228802,-241
1712222034537,599616104678890910,-326
1712222034545,599616104686553018,-286
1712222034553,599616104694215126,-206
1712222034561,599616104701877234,-187
1712222034568,599616104709539342,-196
1712222034576,599616104717201450,-265
1712222034584,599616104724863558,-359
1712222034591,599616104732525666,-336
1712222034599,599616104740187774,-234
1712222034607,599616104747849882,-196
1712222034614,599616104755511990,-215
1712222034622,599616104763174098,-253
1712222034630,599616104770836206,-300
1712222034637,599616104778498314,-333
1712222034645,599616104786160422,-312
1712222034653,599616104793822530,-246
1712222034660,599616104801484638,-203
1712222034668,599616104809146746,-177
1712222034676,599616104816808854,-149
1712222034683,599616104824470962,-151
1712222034691,599616104832133070,-161
1712222034699,599616104839795178,-137
1712222034705,599616104847457286,-120
1712222034713,599616104855119394,-130
1712222034721,599616104862781502,-139
1712222034729,599616104870443610,-144
1712222034737,599616104878105718,-130
1712222034745,599616104885767826,-89
1712222034752,599616104893429934,-73
1712222034760,599616104901092042,-92
1712222034768,599616104908754150,-116
1712222034775,599616104916416258,-146
1712222034783,599616104924078366,-127
1712222034791,599616104931740474,-11
1712222034798,599616104939402582,113
1712222034806,599616104947064690,187
1712222034814,599616104954726798,251
1712222034821,599616104962388906,274
1712222034829,599616104970051014,236
1712222034837,599616104977713122,236
1712222034844,599616104985375230,303
1712222034852,599616104993037338,355
1712222034860,599616105000699446,426
1712222034867,599616105008361554,575
1712222034875,599616105016023662,750
1712222034883,599616105023685770,824
1712222034889,599616105031347878,648
1712222034897,599616105039009986,329
1712222034905,599616105046672094,286
1712222034913,599616105054334202,473
1712222034921,599616105061996310,487
1712222034929,599616105069658418,386
1712222034936,599616105077320526,367
1712222034944,599616105084982634,376
1712222034952,599616105092644742,359
1712222034959,599616105100306850,369
1712222034967,599616105107968958,343
1712222034975,599616105115631066,236
1712222034982,599616105123293174,175
1712222034990,599616105130955282,196
1712222034998,599616105138617390,213
1712222035005,599616105146279498,217
1712222035013,599616105153941606,239
1712222035021,599616105161603714,258
1712222035028,599616105169265822,269
1712222035036,599616105176927930,286
1712222035043,599616105184590038,314
1712222035051,599616105192252166,343
1712222035059,599616105199914274,362
1712222035065,599616105207576382,357
1712222035073,599616105215238490,312
1712222035081,599616105222900598,251
1712222035089,599616105230562706,258
1712222035097,599616105238224814,312
1712222035105,599616105245886922,305
1712222035112,599616105253549030,222
1712222035120,599616105261211138,125
1712222035128,599616105268873246,87
1712222035135,599616105276535354,113
1712222035143,599616105284197462,144
1712222035151,599616105291859570,191
1712222035158,599616105299521678,291
1712222035166,599616105307183786,374
1712222035174,599616105314845894,374
1712222035181,599616105322508002,359
1712222035189,599616105330170110,416
1712222035197,599616105337832218,499
1712222035204,599616105345494326,523
1712222035212,599616105353156434,421
1712222035220,599616105360818542,217
1712222035227,599616105368480650,47
1712222035235,599616105376142758,-52
1712222035243,599616105383804866,-139
1712222035249,599616105391466974,-184
1712222035257,599616105399129082,-201
1712222035265,599616105406791190,-248
1712222035273,599616105414453298,-312
1712222035281,599616105422115406,-369
1712222035289,599616105429777514,-376
1712222035296,599616105437439622,-324
1712222035304,599616105445101730,-312
1712222035312,599616105452763838,-402
1712222035319,599616105460425946,-452
1712222035327,599616105468088054,-355
1712222035335,599616105475750162,-224
1712222035342,599616105483412270,-132
1712222035350,599616105491074378,-49
1712222035358,599616105498736486,-40
1712222035365,599616105506398594,-92
1712222035373,599616105514060702,-71
1712222035381,599616105521722810,11
1712222035388,599616105529384918,73
1712222035396,599616105537047026,118
1712222035404,599616105544709134,172
1712222035411,599616105552371242,239
1712222035419,599616105560033350,298
1712222035427,599616105567695458,322
1712222035433,599616105575357566,348
1712222035441,599616105583019674,374
1712222035449,599616105590681782,359
1712222035457,599616105598343890,341
1712222035465,599616105606005998,414
1712222035473,599616105613668106,558
1712222035480,599616105621330214,570
1712222035488,599616105628992322,296
1712222035496,599616105636654430,-28
1712222035503,599616105644316538,-80
1712222035511,599616105651978646,-42
1712222035519,599616105659640754,-89
1712222035526,599616105667302862,-63
1712222035534,599616105674964970,0
1712222035542,599616105682627078,-4
1712222035549,599616105690289186,-2
1712222035557,599616105697951294,30
1712222035565,599616105705613402,49
1712222035572,599616105713275510,73
1712222035580,599616105720937618,99
1712222035588,599616105728599726,99
1712222035595,599616105736261834,87
1712222035603,599616105743923942,37
1712222035609,599616105751586070,-52
1712222035617,599616105759248178,-61
1712222035625,599616105766910286,-16
1712222035633,599616105774572394,-33
1712222035641,599616105782234502,-61
1712222035649,599616105789896610,-101
1712222035656,599616105797558718,-255
1712222035664,599616105805220826,-400
1712222035672,599616105812882934,-404
1712222035679,599616105820545042,-362
1712222035687,599616105828207150,-336
1712222035695,599616105835869258,-303
1712222035702,599616105843531366,-296
1712222035710,599616105851193474,-310
1712222035718,599616105858855582,-310
1712222035725,599616105866517690,-314
1712222035733,599616105874179798,-322
1712222035741,599616105881841906,-305
1712222035748,599616105889504014,-305
1712222035756,599616105897166122,-324
1712222035764,599616105904828230,-333
1712222035771,599616105912490338,-331
1712222035779,599616105920152446,-324
1712222035787,599616105927814554,-331
1712222035793,599616105935476662,-324
1712222035801,599616105943138770,-303
1712222035809,599616105950800878,-305
1712222035817,599616105958462986,-305
1712222035825,599616105966125094,-298
1712222035833,599616105973787202,-307
1712222035840,599616105981449310,-333
1712222035848,599616105989111418,-397
1712222035856,599616105996773526,-487
1712222035863,599616106004435634,-499
1712222035871,599616106012097742,-459
1712222035879,599616106019759850,-438
1712222035886,599616106027421958,-431
1712222035894,599616106035084066,-464
1712222035902,599616106042746174,-554
1712222035909,599616106050408282,-618
1712222035917,599616106058070390,-608
1712222035925,599616106065732498,-525
1712222035932,599616106073394606,-414
1712222035940,599616106081056714,-345
1712222035948,599616106088718822,-326
1712222035955,599616106096380930,-298
1712222035963,599616106104043038,-220
1712222035971,599616106111705146,-127
1712222035977,599616106119367254,-54
1712222035985,599616106127029362,-2
1712222035993,599616106134691470,-16
1712222036001,599616106142353578,-54
1712222036009,599616106150015686,0
1712222036017,599616106157677794,85
1712222036024,599616106165339902,125
1712222036032,599616106173002010,161
1712222036040,599616106180664118,175
1712222036047,599616106188326226,163
1712222036055,599616106195988334,265
1712222036063,599616106203650442,492
1712222036070,599616106211312550,592
1712222036078,599616106218974658,386
1712222036086,599616106226636766,23
1712222036093,599616106234298874,-146
1712222036101,599616106241960982,-97
1712222036109,599616106249623090,-89
1712222036116,599616106257285198,-149
1712222036124,599616106264947306,-156
1712222036132,599616106272609414,-142
1712222036139,599616106280271522,-149
1712222036147,599616106287933630,-130
1712222036155,599616106295595738,-116
1712222036161,599616106303257846,-161
1712222036169,599616106310919974,-201
1712222036177,599616106318582082,-203
1712222036185,599616106326244190,-236
1712222036193,599616106333906298,-279
1712222036200,599616106341568406,-229
1712222036208,599616106349230514,-113
1712222036216,599616106356892622,-21
1712222036223,599616106364554730,35
1712222036231,599616106372216838,61
1712222036239,599616106379878946,0
1712222036246,599616106387541054,-75
1712222036254,599616106395203162,-47
1712222036262,599616106402865270,-9
1712222036269,599616106410527378,-28
1712222036277,599616106418189486,-21
1712222036285,599616106425851594,-33
1712222036292,599616106433513702,-80
1712222036300,599616106441175810,-68
1712222036308,599616106448837918,-28
1712222036315,599616106456500026,-37
1712222036323,599616106464162134,-82
1712222036331,599616106471824242,-127
1712222036337,599616106479486350,-177
1712222036345,599616106487148458,-227
1712222036353,599616106494810566,-253
1712222036361,599616106502472674,-279
1712222036369,599616106510134782,-343
1712222036377,599616106517796890,-433
1712222036384,599616106525458998,-516
1712222036392,599616106533121106,-551
1712222036400,599616106540783214,-544
1712222036407,599616106548445322,-580
1712222036415,599616106556107430,-644
1712222036423,599616106563769538,-651
1712222036430,599616106571431646,-651
1712222036438,599616106579093754,-698
1712222036446,599616106586755862,-708
1712222036453,599616106594417970,-682
1712222036461,599616106602080078,-693
1712222036469,599616106609742186,-691
1712222036476,599616106617404294,-667
1712222036484,599616106625066402,-672
1712222036492,599616106632728510,-667
1712222036499,599616106640390618,-629
1712222036507,599616106648052726,-603
1712222036515,599616106655714834,-587
1712222036521,599616106663376942,-573
1712222036529,599616106671039050,-625
1712222036537,599616106678701158,-648
1712222036545,599616106686363266,-511
1712222036553,599616106694025374,-348
1712222036561,599616106701687482,-274
1712222036568,599616106709349590,-184
1712222036576,599616106717011698,-68
1712222036584,599616106724673806,16
1712222036591,599616106732335914,125
1712222036599,599616106739998022,279
1712222036607,599616106747660130,412
1712222036614,599616106755322238,499
1712222036622,599616106762984346,556
1712222036630,599616106770646454,594
1712222036637,599616106778308562,655
1712222036645,599616106785970670,772
1712222036653,599616106793632778,838
1712222036660,599616106801294886,710
1712222036668,599616106808956994,386
1712222036676,599616106816619102,118
1712222036683,599616106824281210,97
1712222036691,599616106831943318,116
1712222036699,599616106839605426,49
1712222036705,599616106847267534,33
1712222036713,599616106854929642,75
1712222036721,599616106862591750,61
1712222036729,599616106870253878,-21
