phoneTimestamp,sensorTimestamp,ecg
1711018137465,599616068925947551,352
1711018137472,599616068933624639,3665
1711018137480,599616068941301727,11268
1711018137488,599616068948978815,17367
1711018137495,599616068956655903,18954
1711018137503,599616068964332991,20030
1711018137511,599616068972010079,20030
1711018137518,599616068979687167,20030
1711018137526,599616068987364255,20030
1711018137534,599616068995041343,20030
1711018137541,599616069002718431,20030
1711018137549,599616069010395519,20030
1711018137557,599616069018072607,20030
1711018137564,599616069025749695,20030
1711018137572,599616069033426783,20030
1711018137580,599616069041103871,20030
1711018137587,599616069048780959,20030
1711018137595,599616069056458047,20030
1711018137603,599616069064135135,20030
1711018137609,599616069071812223,20030
1711018137617,599616069079489311,20030
1711018137625,599616069087166399,20030
1711018137633,599616069094843487,20030
1711018137641,599616069102520575,20030
1711018137649,599616069110197663,20030
1711018137656,599616069117874751,20030
1711018137664,599616069125551839,20030
1711018137672,599616069133228927,20030
1711018137679,599616069140906015,20030
1711018137687,599616069148583103,20030
1711018137695,599616069156260191,20030
1711018137702,599616069163937279,20030
1711018137710,599616069171614367,20030
1711018137718,599616069179291455,20030
1711018137726,599616069186968543,20030
1711018137733,599616069194645631,20030
1711018137741,599616069202322719,20030
1711018137749,599616069209999807,20030
1711018137756,599616069217676895,20030
1711018137764,599616069225353983,20030
1711018137772,599616069233031071,20030
1711018137779,599616069240708159,20030
1711018137787,599616069248385247,20030
1711018137795,599616069256062335,20030
1711018137801,599616069263739423,20030
1711018137809,599616069271416511,20030
1711018137817,599616069279093599,20030
1711018137825,599616069286770687,20030
1711018137833,599616069294447775,20030
1711018137841,599616069302124863,20030
1711018137848,599616069309801951,20030
1711018137856,599616069317479039,20030
1711018137864,599616069325156127,20030
1711018137871,599616069332833215,20030
1711018137879,599616069340510303,20030
1711018137887,599616069348187391,20030
1711018137894,599616069355864479,20030
1711018137902,599616069363541567,20030
1711018137910,599616069371218655,20030
1711018137917,599616069378895743,20030
1711018137925,599616069386572831,20030
1711018137933,599616069394249919,20030
1711018137940,599616069401927007,20030
1711018137948,599616069409604095,20030
1711018137956,599616069417281183,20030
1711018137964,599616069424958271,20030
1711018137971,599616069432635359,20030
1711018137979,599616069440312447,20030
1711018137987,599616069447989535,20030
1711018137993,599616069455666623,20030
1711018138001,599616069463343711,20030
1711018138009,599616069471020799,20030
1711018138017,599616069478697887,20030
1711018138025,599616069486380056,20030
1711018138033,599616069494057074,20030
1711018138040,599616069501734092,20030
1711018138048,599616069509411110,20030
1711018138056,599616069517088128,20030
1711018138063,599616069524765146,20030
1711018138071,599616069532442164,20030
1711018138079,599616069540119182,20030
1711018138086,599616069547796200,20001
1711018138094,599616069555473218,19783
1711018138102,599616069563150236,20006
1711018138109,599616069570827254,20030
1711018138117,599616069578504272,19891
1711018138125,599616069586181290,19857
1711018138132,599616069593858308,19830
1711018138140,599616069601535326,19737
1711018138148,599616069609212344,19666
1711018138155,599616069616889362,19598
1711018138163,599616069624566380,19549
1711018138171,599616069632243398,19507
1711018138177,599616069639920416,19382
1711018138185,599616069647597434,19270
1711018138193,599616069655274452,19243
1711018138201,599616069662951470,19199
1711018138209,599616069670628488,19113
1711018138217,599616069678305506,19047
1711018138225,599616069685982524,19013
1711018138232,599616069693659542,18959
1711018138240,599616069701336560,18852
1711018138248,599616069709013578,18773
1711018138255,599616069716690596,18754
1711018138263,599616069724367614,18722
1711018138271,599616069732044632,18636
1711018138278,599616069739721650,18529
1711018138286,599616069747398668,18475
1711018138294,599616069755075686,18446
1711018138301,599616069762752704,18387
1711018138309,599616069770429722,18314
1711018138317,599616069778106740,18248
1711018138324,599616069785783758,18189
1711018138332,599616069793460776,18145
1711018138340,599616069801137794,18052
1711018138347,599616069808814812,17913
1711018138355,599616069816491830,17815
1711018138363,599616069824168848,17737
1711018138369,599616069831845866,17648
1711018138377,599616069839522884,17560
1711018138385,599616069847199902,17470
1711018138393,599616069854876920,17409
1711018138401,599616069862553938,17365
1711018138409,599616069870230956,17301
1711018138416,599616069877907974,17235
1711018138424,599616069885584992,17191
1711018138432,599616069893262010,17174
1711018138439,599616069900939028,17137
1711018138447,599616069908616046,17040
1711018138455,599616069916293064,16961
1711018138463,599616069923970082,16944
1711018138470,599616069931647100,16895
1711018138478,599616069939324118,16790
1711018138486,599616069947001136,16729
1711018138493,599616069954678154,16719
1711018138501,599616069962355172,16661
1711018138509,599616069970032190,16570
1711018138516,599616069977709208,16521
1711018138524,599616069985386226,16477
1711018138532,599616069993063244,16423
1711018138539,599616070000740262,16404
1711018138547,599616070008417280,16355
1711018138555,599616070016094298,16233
1711018138561,599616070023771316,16169
1711018138569,599616070031448334,16171
1711018138577,599616070039125352,16125
1711018138585,599616070046792355,16032
1711018138593,599616070054469513,15959
1711018138601,599616070062146671,15924
1711018138608,599616070069823829,15900
1711018138616,599616070077500987,15824
1711018138624,599616070085178145,15741
1711018138631,599616070092855303,15719
1711018138639,599616070100532461,15687
1711018138647,599616070108209619,15602
1711018138654,599616070115886777,15523
1711018138662,599616070123563935,15482
1711018138670,599616070131241093,15448
1711018138677,599616070138918251,15435
1711018138685,599616070146595409,15399
1711018138693,599616070154272567,15279
1711018138701,599616070161949725,15201
1711018138708,599616070169626883,15196
1711018138716,599616070177304041,15174
1711018138724,599616070184981199,15110
1711018138731,599616070192658357,15027
1711018138739,599616070200335515,14980
1711018138747,599616070208012673,14985
1711018138753,599616070215689831,14944
1711018138761,599616070223366989,14839
1711018138769,599616070231044147,14795
1711018138777,599616070238721305,14812
1711018138785,599616070246398463,14765
1711018138793,599616070254075621,14641
1711018138800,599616070261752779,14567
1711018138808,599616070269429937,14577
1711018138816,599616070277107095,14555
1711018138823,599616070284784253,14452
1711018138831,599616070292461411,14384
1711018138839,599616070300138569,14384
1711018138846,599616070307815727,14335
1711018138854,599616070315492885,14266
1711018138862,599616070323170043,14257
1711018138869,599616070330847201,14337
1711018138877,599616070338524359,14599
1711018138885,599616070346201517,14778
1711018138892,599616070353878675,14376
1711018138900,599616070361555833,13697
1711018138908,599616070369232991,13543
1711018138915,599616070376910149,13814
1711018138923,599616070384587307,13882
1711018138931,599616070392264465,13763
1711018138937,599616070399941623,13728
1711018138945,599616070407618781,13741
1711018138953,599616070415295939,13704
1711018138961,599616070422973097,13640
1711018138969,599616070430650255,13589
1711018138977,599616070438327413,13567
1711018138985,599616070446004571,13550
1711018138992,599616070453681729,13521
1711018139000,599616070461358887,13472
1711018139008,599616070469036045,13403
1711018139015,599616070476713203,13366
1711018139023,599616070484390361,13354
1711018139031,599616070492067519,13318
1711018139038,599616070499744677,13274
1711018139046,599616070507421835,13242
1711018139054,599616070515098993,13208
1711018139061,599616070522776151,13188
1711018139069,599616070530453309,13181
1711018139077,599616070538130467,13124
1711018139084,599616070545807625,13063
1711018139092,599616070553484783,13046
1711018139100,599616070561161941,13036
1711018139107,599616070568839099,13012
1711018139115,599616070576516257,12965
1711018139123,599616070584193415,12917
1711018139129,599616070591870573,12880
1711018139137,599616070599547731,12841
1711018139145,599616070607239956,12799
1711018139153,599616070614916905,12728
1711018139161,599616070622593854,12635
1711018139169,599616070630270803,12572
1711018139177,599616070637947752,12513
1711018139184,599616070645624701,12437
1711018139192,599616070653301650,12374
1711018139200,599616070660978599,12330
1711018139207,599616070668655548,12300
1711018139215,599616070676332497,12295
1711018139223,599616070684009446,12290
1711018139230,599616070691686395,12227
1711018139238,599616070699363344,12151
1711018139246,599616070707040293,12136
1711018139253,599616070714717242,12146
1711018139261,599616070722394191,12105
1711018139269,599616070730071140,12041
1711018139276,599616070737748089,12026
1711018139284,599616070745425038,12014
1711018139292,599616070753101987,11977
1711018139299,599616070760778936,11929
1711018139307,599616070768455885,11875
1711018139315,599616070776132834,11853
1711018139321,599616070783809783,11845
1711018139329,599616070791486732,11801
1711018139337,599616070799163681,11752
1711018139345,599616070806840630,11726
1711018139353,599616070814517579,11701
1711018139361,599616070822194528,11672
1711018139368,599616070829871477,11652
1711018139376,599616070837548426,11613
1711018139384,599616070845225375,11549
1711018139391,599616070852902324,11527
1711018139399,599616070860579273,11530
1711018139407,599616070868256222,11488
1711018139414,599616070875933171,11420
1711018139422,599616070883610120,11393
1711018139430,599616070891287069,11369
1711018139438,599616070898964018,11339
1711018139445,599616070906640967,11310
1711018139453,599616070914317916,11254
1711018139461,599616070921994865,11219
1711018139468,599616070929671814,11207
1711018139476,599616070937348763,11170
1711018139484,599616070945025712,11129
1711018139491,599616070952702661,11112
1711018139499,599616070960379610,11082
1711018139507,599616070968056559,11063
1711018139513,599616070975733508,11046
1711018139521,599616070983410457,10980
1711018139529,599616070991087406,10926
1711018139537,599616070998764355,10916
1711018139545,599616071006441304,10904
1711018139553,599616071014118253,10877
1711018139560,599616071021795202,10823
1711018139568,599616071029472151,10786
1711018139576,599616071037149100,10772
1711018139583,599616071044826049,10747
1711018139591,599616071052502998,10711
1711018139599,599616071060179947,10662
1711018139606,599616071067856896,10628
1711018139614,599616071075533845,10632
1711018139622,599616071083210794,10632
1711018139629,599616071090887743,10569
1711018139637,599616071098564692,10491
1711018139645,599616071106241641,10471
1711018139652,599616071113918590,10471
1711018139660,599616071121595539,10449
1711018139668,599616071129272488,10390
1711018139676,599616071136949437,10334
1711018139683,599616071144626386,10329
1711018139691,599616071152303335,10324
1711018139699,599616071159980284,10266
1711018139705,599616071167657249,10219
1711018139713,599616071175334198,10231
1711018139721,599616071183011147,10337
1711018139729,599616071190688096,10603
1711018139737,599616071198365045,10779
1711018139745,599616071206041994,10427
1711018139752,599616071213718943,9801
1711018139760,599616071221395892,9647
1711018139768,599616071229072841,9904
1711018139775,599616071236749790,9977
1711018139783,599616071244426739,9911
1711018139791,599616071252103688,9931
1711018139798,599616071259780637,9918
1711018139806,599616071267457586,9847
1711018139814,599616071275134535,9835
1711018139821,599616071282811484,9847
1711018139829,599616071290488433,9830
1711018139837,599616071298165382,9796
1711018139844,599616071305842331,9752
1711018139852,599616071313519280,9737
1711018139860,599616071321196229,9735
1711018139867,599616071328873178,9706
1711018139875,599616071336550127,9676
1711018139883,599616071344227076,9664
1711018139889,599616071351904025,9652
1711018139897,599616071359580974,9642
1711018139905,599616071367257923,9618
1711018139913,599616071374934872,9578
1711018139921,599616071382611821,9571
1711018139929,599616071390288770,9576
1711018139937,599616071397965719,9542
1711018139944,599616071405642668,9500
1711018139952,599616071413319617,9503
1711018139960,599616071420996566,9503
1711018139967,599616071428673515,9473
1711018139975,599616071436350464,9446
1711018139983,599616071444027413,9429
1711018139990,599616071451704362,9405
1711018139998,599616071459381311,9380
1711018140006,599616071467058260,9351
1711018140013,599616071474735209,9280
1711018140021,599616071482412158,9207
1711018140029,599616071490089107,9158
1711018140036,599616071497766056,9114
1711018140044,599616071505443005,9053
1711018140052,599616071513119954,9009
1711018140059,599616071520796903,9001
1711018140067,599616071528473852,8989
1711018140075,599616071536150801,8947
1711018140081,599616071543827750,8921
1711018140089,599616071551504699,8923
1711018140097,599616071559181648,8918
1711018140105,599616071566858597,8906
1711018140113,599616071574535546,8886
1711018140121,599616071582212495,8855
1711018140128,599616071589889444,8842
1711018140136,599616071597566393,8840
1711018140144,599616071605243342,8828
1711018140151,599616071612920291,8803
1711018140159,599616071620597240,8759
1711018140167,599616071628274189,8735
1711018140175,599616071635951138,8737
1711018140182,599616071643628087,8727
1711018140190,599616071651305036,8686
1711018140198,599616071658981985,8661
1711018140205,599616071666658934,8652
1711018140213,599616071674335883,8627
1711018140221,599616071682012832,8603
1711018140228,599616071689689781,8576
1711018140236,599616071697366730,8546
1711018140244,599616071705043679,8537
1711018140251,599616071712720628,8522
1711018140259,599616071720397577,8493
1711018140267,599616071728044446,8466
1711018140273,599616071735721813,8444
1711018140281,599616071743399180,8427
1711018140289,599616071751076547,8424
1711018140297,599616071758753914,8407
1711018140305,599616071766431281,8361
1711018140313,599616071774108648,8326
1711018140320,599616071781786015,8319
1711018140328,599616071789463382,8317
1711018140336,599616071797140749,8299
1711018140343,599616071804818116,8260
1711018140351,599616071812495483,8241
1711018140359,599616071820172850,8233
1711018140366,599616071827850217,8211
1711018140374,599616071835527584,8182
1711018140382,599616071843204951,8143
1711018140389,599616071850882318,8118
1711018140397,599616071858559685,8118
1711018140405,599616071866237052,8099
1711018140412,599616071873914419,8072
1711018140420,599616071881591786,8048
1711018140428,599616071889269153,8013
1711018140435,599616071896946520,7996
1711018140443,599616071904623887,7994
1711018140451,599616071912301254,7977
1711018140459,599616071919978621,7947
1711018140465,599616071927655988,7933
1711018140473,599616071935333355,7930
1711018140481,599616071943010722,7923
1711018140489,599616071950688089,7893
1711018140497,599616071958365456,7845
1711018140505,599616071966042823,7825
1711018140512,599616071973720190,7842
1711018140520,599616071981397557,7832
1711018140528,599616071989074924,7776
1711018140535,599616071996752291,7737
1711018140543,599616072004429658,7739
1711018140551,599616072012107025,7732
1711018140558,599616072019784392,7720
1711018140566,599616072027461759,7715
1711018140574,599616072035139126,7695
1711018140581,599616072042816493,7676
1711018140589,599616072050493860,7654
1711018140597,599616072058171227,7622
1711018140604,599616072065848594,7605
1711018140612,599616072073525961,7602
1711018140620,599616072081203328,7585
1711018140627,599616072088880695,7541
1711018140635,599616072096558062,7522
1711018140643,599616072104235429,7524
1711018140649,599616072111912796,7510
1711018140657,599616072119590163,7519
1711018140665,599616072127267530,7651
1711018140673,599616072134944897,7940
1711018140681,599616072142622264,8030
1711018140689,599616072150299631,7568
1711018140697,599616072157976998,7023
1711018140704,599616072165654365,7040
1711018140712,599616072173331732,7311
1711018140720,599616072181009099,7348
1711018140727,599616072188686466,7282
1711018140735,599616072196363833,7292
1711018140743,599616072204041200,7297
1711018140750,599616072211718567,7267
1711018140758,599616072219395934,7255
1711018140766,599616072227073301,7248
1711018140773,599616072234750668,7221
1711018140781,599616072242428035,7216
1711018140789,599616072250105402,7216
1711018140796,599616072257782769,7192
1711018140804,599616072265460136,7175
1711018140812,599616072273137503,7177
1711018140819,599616072280814870,7182
1711018140827,599616072288522353,7162
1711018140835,599616072296199302,7138
1711018140841,599616072303876251,7135
1711018140849,599616072311553200,7128
1711018140857,599616072319230149,7099
1711018140865,599616072326907098,7094
1711018140873,599616072334584047,7101
1711018140881,599616072342260996,7101
1711018140888,599616072349937945,7091
1711018140896,599616072357614894,7067
1711018140904,599616072365291843,7050
1711018140912,599616072372968792,7057
1711018140919,599616072380645741,7052
1711018140927,599616072388322690,7025
1711018140935,599616072395999639,7003
1711018140942,599616072403676588,6979
1711018140950,599616072411353537,6947
1711018140958,599616072419030486,6908
1711018140965,599616072426707435,6849
1711018140973,599616072434384384,6800
1711018140981,599616072442061333,6764
1711018140988,599616072449738282,6720
1711018140996,599616072457415231,6688
1711018141004,599616072465092180,6678
1711018141011,599616072472769129,6676
1711018141019,599616072480446078,6678
1711018141027,599616072488123027,6673
1711018141033,599616072495799976,6649
1711018141041,599616072503476925,6629
1711018141049,599616072511153874,6637
1711018141057,599616072518830823,6641
1711018141065,599616072526507772,6632
1711018141073,599616072534184721,6612
1711018141080,599616072541861670,6593
1711018141088,599616072549538619,6580
1711018141096,599616072557215568,6570
1711018141103,599616072564892517,6551
1711018141111,599616072572569466,6536
1711018141119,599616072580246415,6539
1711018141126,599616072587923364,6531
1711018141134,599616072595600313,6512
1711018141142,599616072603277262,6485
1711018141150,599616072610954211,6473
1711018141157,599616072618631160,6480
1711018141165,599616072626308109,6478
1711018141173,599616072633985058,6453
1711018141180,599616072641662007,6416
1711018141188,599616072649338956,6392
1711018141196,599616072657015905,6392
1711018141203,599616072664692854,6390
1711018141211,599616072672369803,6363
1711018141219,599616072680046752,6343
1711018141225,599616072687723701,6341
1711018141233,599616072695400650,6321
1711018141241,599616072703077599,6299
1711018141249,599616072710754548,6292
1711018141257,599616072718431497,6272
1711018141265,599616072726108446,6260
1711018141272,599616072733785395,6257
1711018141280,599616072741462344,6240
1711018141288,599616072749139293,6221
1711018141295,599616072756816242,6213
1711018141303,599616072764493191,6211
1711018141311,599616072772170140,6209
1711018141318,599616072779847089,6201
1711018141326,599616072787524038,6167
1711018141334,599616072795200987,6133
1711018141341,599616072802877936,6135
1711018141349,599616072810554885,6138
1711018141357,599616072818231834,6116
1711018141364,599616072825908783,6089
1711018141372,599616072833585732,6079
1711018141380,599616072841262681,6079
1711018141387,599616072848939646,6072
1711018141395,599616072856616595,6047
1711018141403,599616072864293544,6025
1711018141411,599616072871970493,6023
1711018141417,599616072879647442,6015
1711018141425,599616072887324391,6001
1711018141433,599616072895001340,5993
1711018141441,599616072902678289,5986
1711018141449,599616072910355238,5979
1711018141457,599616072918032187,5966
1711018141464,599616072925709136,5949
1711018141472,599616072933386085,5940
1711018141480,599616072941063034,5913
1711018141487,599616072948739983,5893
1711018141495,599616072956416932,5891
1711018141503,599616072964093881,5864
1711018141510,599616072971770830,5849
1711018141518,599616072979447779,5859
1711018141526,599616072987124728,5856
1711018141533,599616072994801677,5847
1711018141541,599616073002478626,5834
1711018141549,599616073010155575,5827
1711018141556,599616073017832524,5820
1711018141564,599616073025509473,5793
1711018141572,599616073033186422,5766
1711018141579,599616073040863371,5766
1711018141587,599616073048540320,5756
1711018141595,599616073056217269,5732
1711018141601,599616073063894218,5719
1711018141609,599616073071571167,5724
1711018141617,599616073079248116,5722
1711018141625,599616073086925065,5712
1711018141633,599616073094602014,5793
1711018141641,599616073102278963,6072
1711018141649,599616073109955912,6292
1711018141656,599616073117632861,5971
1711018141664,599616073125309810,5350
1711018141672,599616073132986759,5196
1711018141679,599616073140663708,5465
1711018141687,599616073148340657,5578
1711018141695,599616073156017606,5516
1711018141702,599616073163694555,5524
1711018141710,599616073171371504,5553
1711018141718,599616073179048453,5534
1711018141725,599616073186725402,5521
1711018141733,599616073194402351,5524
1711018141741,599616073202079300,5516
1711018141748,599616073209756249,5516
1711018141756,599616073217433198,5526
1711018141764,599616073225110147,5516
1711018141771,599616073232787096,5487
1711018141779,599616073240464045,5480
1711018141787,599616073248140994,5494
1711018141793,599616073255817943,5487
1711018141801,599616073263494892,5465
1711018141809,599616073271171841,5465
1711018141817,599616073278848790,5470
1711018141825,599616073286525739,5465
1711018141833,599616073294202688,5460
1711018141840,599616073301879637,5455
1711018141848,599616073309556586,5450
1711018141856,599616073317233535,5460
1711018141863,599616073324910484,5463
1711018141871,599616073332587433,5436
1711018141879,599616073340264382,5424
1711018141886,599616073347941331,5436
1711018141894,599616073355618280,5438
1711018141902,599616073363295229,5424
1711018141910,599616073370972178,5389
1711018141917,599616073378649127,5355
1711018141925,599616073386326076,5333
1711018141933,599616073394003025,5309
1711018141940,599616073401679974,5255
1711018141948,599616073409336923,5199
1711018141956,599616073417014150,5167
1711018141963,599616073424691377,5142
1711018141971,599616073432368604,5120
1711018141979,599616073440045831,5120
1711018141985,599616073447723058,5123
1711018141993,599616073455400285,5128
1711018142001,599616073463077512,5133
1711018142009,599616073470754739,5115
1711018142017,599616073478431966,5081
1711018142025,599616073486109193,5086
1711018142032,599616073493786420,5106
1711018142040,599616073501463647,5096
1711018142048,599616073509140874,5076
1711018142055,599616073516818101,5071
1711018142063,599616073524495328,5067
1711018142071,599616073532172555,5062
1711018142078,599616073539849782,5064
1711018142086,599616073547527009,5057
1711018142094,599616073555204236,5040
1711018142101,599616073562881463,5040
1711018142109,599616073570558690,5037
1711018142117,599616073578235917,5015
1711018142124,599616073585913144,5010
1711018142132,599616073593590371,5013
1711018142140,599616073601267598,5003
1711018142147,599616073608944825,4991
1711018142155,599616073616622052,4974
1711018142163,599616073624299279,4956
1711018142171,599616073631976506,4961
1711018142177,599616073639653733,4966
1711018142185,599616073647330960,4939
1711018142193,599616073655008187,4912
1711018142201,599616073662685414,4917
1711018142209,599616073670362641,4920
1711018142217,599616073678039868,4900
1711018142224,599616073685717095,4883
1711018142232,599616073693394322,4878
1711018142240,599616073701071549,4878
1711018142247,599616073708748776,4876
1711018142255,599616073716426003,4868
1711018142263,599616073724103230,4864
1711018142270,599616073731780457,4861
1711018142278,599616073739457684,4856
1711018142286,599616073747134911,4846
1711018142293,599616073754812138,4832
1711018142301,599616073762489365,4820
1711018142309,599616073770166592,4817
1711018142316,599616073777843819,4817
1711018142324,599616073785521046,4815
1711018142332,599616073793198273,4800
1711018142339,599616073800875500,4788
1711018142347,599616073808552727,4793
1711018142355,599616073816229954,4788
1711018142361,599616073823907181,4763
1711018142369,599616073831584408,4751
1711018142377,599616073839261635,4754
1711018142385,599616073846938862,4751
1711018142393,599616073854616089,4739
1711018142401,599616073862293316,4719
1711018142409,599616073869970543,4714
1711018142416,599616073877647770,4722
1711018142424,599616073885324997,4722
1711018142432,599616073893002224,4705
1711018142439,599616073900679451,4687
1711018142447,599616073908356678,4678
1711018142455,599616073916033905,4670
1711018142462,599616073923711132,4663
1711018142470,599616073931388359,4653
1711018142478,599616073939065586,4636
1711018142485,599616073946742813,4636
1711018142493,599616073954420040,4643
1711018142501,599616073962097267,4636
1711018142508,599616073969789608,4614
1711018142516,599616073977466626,4636
1711018142524,599616073985143644,4849
1711018142531,599616073992820662,5179
1711018142539,599616074000497680,5130
1711018142547,599616074008174698,4541
1711018142553,599616074015851716,4108
1711018142561,599616074023528734,4255
1711018142569,599616074031205752,4494
1711018142577,599616074038882770,4502
1711018142585,599616074046559788,4485
1711018142593,599616074054236806,4516
1711018142600,599616074061913824,4497
1711018142608,599616074069590842,4472
1711018142616,599616074077267860,4482
1711018142623,599616074084944878,4487
1711018142631,599616074092621896,4485
1711018142639,599616074100298914,4485
1711018142647,599616074107975932,4477
1711018142654,599616074115652950,4475
1711018142662,599616074123329968,4482
1711018142670,599616074131006986,4485
1711018142677,599616074138684004,4482
1711018142685,599616074146361022,4477
1711018142693,599616074154038040,4467
1711018142700,599616074161715058,4470
1711018142708,599616074169392076,4477
1711018142716,599616074177069094,4470
1711018142723,599616074184746112,4455
1711018142731,599616074192423130,4467
1711018142739,599616074200100148,4480
1711018142745,599616074207777166,4472
1711018142753,599616074215454184,4460
1711018142761,599616074223131202,4453
1711018142769,599616074230808220,4458
1711018142777,599616074238485238,4470
1711018142785,599616074246162256,4458
1711018142792,599616074253839274,4421
1711018142800,599616074261516292,4401
1711018142808,599616074269193310,4394
1711018142815,599616074276870328,4362
1711018142823,599616074284547346,4313
1711018142831,599616074292224364,4262
1711018142838,599616074299901382,4220
1711018142846,599616074307578400,4198
1711018142854,599616074315255418,4181
1711018142861,599616074322932436,4171
1711018142869,599616074330609454,4174
1711018142877,599616074338286472,4179
1711018142885,599616074345963490,4179
1711018142892,599616074353640508,4179
1711018142900,599616074361317526,4181
1711018142908,599616074368994544,4186
1711018142915,599616074376671562,4193
1711018142923,599616074384348580,4186
1711018142931,599616074392025598,4169
1711018142937,599616074399702616,4164
1711018142945,599616074407379634,4164
1711018142953,599616074415056652,4169
1711018142961,599616074422733670,4167
1711018142969,599616074430410688,4145
1711018142977,599616074438087706,4132
1711018142984,599616074445764724,4147
1711018142992,599616074453441742,4149
1711018143000,599616074461118760,4137
1711018143007,599616074468795778,4118
1711018143015,599616074476472796,4103
1711018143023,599616074484149814,4108
1711018143030,599616074491826832,4105
1711018143038,599616074499503850,4096
1711018143046,599616074507180868,4088
1711018143053,599616074514857886,4088
1711018143061,599616074522534904,4086
1711018143069,599616074530211987,4079
1711018143076,599616074537889005,4071
1711018143084,599616074545566023,4064
1711018143092,599616074553243041,4052
1711018143099,599616074560920059,4057
1711018143107,599616074568597077,4059
1711018143115,599616074576274095,4039
1711018143123,599616074583951113,4030
1711018143129,599616074591628131,4032
1711018143137,599616074599305149,4013
1711018143145,599616074606982167,3995
1711018143153,599616074614659185,3991
1711018143161,599616074622336203,3991
1711018143169,599616074630013221,3993
1711018143176,599616074637690239,3978
1711018143184,599616074645367257,3964
1711018143192,599616074653044275,3971
1711018143199,599616074660721293,3976
1711018143207,599616074668398311,3959
1711018143215,599616074676075329,3946
1711018143222,599616074683752347,3946
1711018143230,599616074691429365,3944
1711018143238,599616074699106383,3934
1711018143245,599616074706783401,3924
1711018143253,599616074714460419,3920
1711018143261,599616074722137437,3922
1711018143268,599616074729814455,3917
1711018143276,599616074737491473,3905
1711018143284,599616074745168491,3895
1711018143291,599616074752845509,3893
1711018143299,599616074760522527,3900
1711018143307,599616074768199545,3907
1711018143313,599616074775876563,3900
1711018143321,599616074783553581,3880
1711018143329,599616074791230599,3863
1711018143337,599616074798907617,3858
1711018143345,599616074806584635,3856
1711018143353,599616074814261653,3839
1711018143360,599616074821938671,3824
1711018143368,599616074829615689,3829
1711018143376,599616074837292707,3834
1711018143384,599616074844969725,3822
1711018143391,599616074852646743,3802
1711018143399,599616074860323761,3836
1711018143407,599616074868000779,4020
1711018143414,599616074875677797,4330
1711018143422,599616074883354815,4406
1711018143430,599616074891031833,3934
1711018143437,599616074898708851,3401
1711018143445,599616074906385869,3435
1711018143453,599616074914062887,3712
1711018143460,599616074921739905,3739
1711018143468,599616074929416923,3692
1711018143476,599616074937093941,3731
1711018143483,599616074944770959,3734
1711018143491,599616074952447977,3702
1711018143499,599616074960124995,3709
1711018143505,599616074967802013,3726
1711018143513,599616074975479031,3724
1711018143521,599616074983156049,3722
1711018143529,599616074990833067,3722
1711018143537,599616074998510085,3719
1711018143545,599616075006187103,3719
1711018143552,599616075013864121,3726
1711018143560,599616075021541139,3724
1711018143568,599616075029218157,3714
1711018143575,599616075036895175,3709
1711018143583,599616075044572193,3724
1711018143591,599616075052249211,3726
1711018143598,599616075059926229,3709
1711018143606,599616075067603247,3714
1711018143614,599616075075280265,3729
1711018143622,599616075082957283,3729
1711018143629,599616075090639336,3724
1711018143637,599616075098316285,3724
1711018143645,599616075105993234,3726
1711018143652,599616075113670183,3729
1711018143660,599616075121347132,3731
1711018143668,599616075129024081,3724
1711018143675,599616075136701030,3697
1711018143683,599616075144377979,3687
1711018143691,599616075152054928,3680
1711018143697,599616075159731877,3638
1711018143705,599616075167408826,3592
1711018143713,599616075175085775,3555
1711018143721,599616075182762724,3516
1711018143729,599616075190439673,3492
1711018143737,599616075198116622,3472
1711018143744,599616075205793571,3462
1711018143752,599616075213470520,3465
1711018143760,599616075221147469,3470
1711018143767,599616075228824418,3475
1711018143775,599616075236501367,3479
1711018143783,599616075244178316,3482
1711018143790,599616075251855265,3487
1711018143798,599616075259532214,3487
1711018143806,599616075267209163,3482
1711018143813,599616075274886112,3477
1711018143821,599616075282563061,3477
1711018143829,599616075290240010,3475
1711018143836,599616075297916959,3467
1711018143844,599616075305593908,3462
1711018143852,599616075313270857,3462
1711018143860,599616075320947806,3465
1711018143867,599616075328624755,3462
1711018143875,599616075336301704,3457
1711018143883,599616075343978653,3460
1711018143889,599616075351655602,3465
1711018143897,599616075359332551,3457
1711018143905,599616075367009500,3443
1711018143913,599616075374686449,3438
1711018143921,599616075382363398,3435
1711018143929,599616075390040347,3431
1711018143936,599616075397717296,3418
1711018143944,599616075405394245,3411
1711018143952,599616075413071194,3411
1711018143959,599616075420748143,3411
1711018143967,599616075428425092,3411
1711018143975,599616075436102041,3406
1711018143982,599616075443778990,3401
1711018143990,599616075451455939,3401
1711018143998,599616075459132888,3401
1711018144005,599616075466809837,3386
1711018144013,599616075474486786,3362
1711018144021,599616075482163735,3364
1711018144028,599616075489840684,3369
1711018144036,599616075497517633,3360
1711018144044,599616075505194582,3355
1711018144051,599616075512871531,3360
1711018144059,599616075520548480,3345
1711018144067,599616075528225429,3335
1711018144073,599616075535902378,3342
1711018144081,599616075543579327,3340
1711018144089,599616075551256276,3333
1711018144097,599616075558933225,3328
1711018144105,599616075566610174,3320
1711018144113,599616075574287123,3318
1711018144121,599616075581964072,3316
1711018144128,599616075589641021,3313
1711018144136,599616075597317970,3308
1711018144144,599616075604994919,3296
1711018144151,599616075612671868,3291
1711018144159,599616075620348817,3301
1711018144167,599616075628025766,3306
1711018144174,599616075635702715,3298
1711018144182,599616075643379664,3281
1711018144190,599616075651046621,3274
1711018144197,599616075658723709,3276
1711018144205,599616075666400797,3264
1711018144213,599616075674077885,3250
1711018144220,599616075681754973,3250
1711018144228,599616075689432061,3254
1711018144236,599616075697109149,3252
1711018144243,599616075704786237,3250
1711018144251,599616075712463325,3230
1711018144259,599616075720140413,3218
1711018144265,599616075727817501,3311
1711018144273,599616075735494589,3580
1711018144281,599616075743171677,3832
1711018144289,599616075750848765,3631
1711018144297,599616075758525853,3034
1711018144305,599616075766202941,2763
1711018144312,599616075773880029,2998
1711018144320,599616075781557117,3171
1711018144328,599616075789234205,3127
1711018144335,599616075796911293,3122
1711018144343,599616075804588381,3164
1711018144351,599616075812265469,3149
1711018144358,599616075819942557,3132
1711018144366,599616075827619645,3152
1711018144374,599616075835296733,3161
1711018144382,599616075842973821,3159
1711018144389,599616075850650909,3159
1711018144397,599616075858327997,3152
1711018144405,599616075866005085,3144
1711018144412,599616075873682173,3157
1711018144420,599616075881359261,3159
1711018144428,599616075889036349,3142
1711018144435,599616075896713437,3139
1711018144443,599616075904390525,3157
1711018144451,599616075912067613,3154
1711018144457,599616075919744701,3152
1711018144465,599616075927421789,3166
1711018144473,599616075935098877,3176
1711018144481,599616075942775965,3174
1711018144489,599616075950453053,3174
1711018144497,599616075958130141,3169
1711018144504,599616075965807229,3171
1711018144512,599616075973484317,3186
1711018144520,599616075981161405,3193
1711018144527,599616075988838493,3176
1711018144535,599616075996515581,3161
1711018144543,599616076004192669,3159
1711018144550,599616076011869757,3147
1711018144558,599616076019546845,3120
1711018144566,599616076027223933,3076
1711018144573,599616076034901021,3029
1711018144581,599616076042578109,2985
1711018144589,599616076050255197,2951
1711018144596,599616076057932285,2929
1711018144604,599616076065609373,2927
1711018144612,599616076073286461,2929
1711018144620,599616076080963549,2934
1711018144627,599616076088640637,2937
1711018144635,599616076096317725,2934
1711018144643,599616076103994813,2934
1711018144649,599616076111671901,2937
1711018144657,599616076119348989,2941
1711018144665,599616076127026077,2946
1711018144673,599616076134703165,2939
1711018144681,599616076142380253,2934
1711018144689,599616076150057341,2941
1711018144696,599616076157734429,2944
1711018144704,599616076165411517,2934
1711018144712,599616076173088605,2922
1711018144719,599616076180765693,2919
1711018144727,599616076188442781,2927
1711018144735,599616076196119869,2927
1711018144742,599616076203796957,2917
1711018144750,599616076211479126,2915
1711018144758,599616076219156144,2912
1711018144765,599616076226833162,2915
1711018144773,599616076234510180,2907
1711018144781,599616076242187198,2890
1711018144788,599616076249864216,2885
1711018144796,599616076257541234,2895
1711018144804,599616076265218252,2890
1711018144811,599616076272895270,2873
1711018144819,599616076280572288,2863
1711018144827,599616076288249306,2873
1711018144833,599616076295926324,2875
1711018144841,599616076303603342,2856
1711018144849,599616076311280360,2844
1711018144857,599616076318957378,2848
1711018144865,599616076326634396,2851
1711018144873,599616076334311414,2853
1711018144881,599616076341988432,2846
1711018144888,599616076349665450,2834
1711018144896,599616076357342468,2836
1711018144904,599616076365019486,2841
1711018144911,599616076372696504,2831
1711018144919,599616076380373522,2819
1711018144927,599616076388050540,2822
1711018144934,599616076395727558,2824
1711018144942,599616076403404576,2814
1711018144950,599616076411081594,2809
1711018144957,599616076418758612,2800
1711018144965,599616076426435630,2787
1711018144973,599616076434112648,2790
1711018144980,599616076441789666,2800
1711018144988,599616076449466684,2800
1711018144996,599616076457143702,2802
1711018145003,599616076464820720,2804
1711018145011,599616076472497738,2802
1711018145019,599616076480174756,2790
1711018145025,599616076487851774,2773
1711018145033,599616076495528792,2765
1711018145041,599616076503205810,2765
1711018145049,599616076510882828,2763
1711018145057,599616076518559846,2753
1711018145065,599616076526236864,2743
1711018145072,599616076533913882,2748
1711018145080,599616076541590900,2751
1711018145088,599616076549267918,2748
1711018145095,599616076556944936,2839
1711018145103,599616076564621954,3122
1711018145111,599616076572298972,3342
1711018145119,599616076579975990,3042
1711018145126,599616076587653008,2447
1711018145134,599616076595330026,2293
1711018145142,599616076603007044,2548
1711018145149,599616076610684062,2685
1711018145157,599616076618361080,2665
1711018145165,599616076626038098,2670
1711018145172,599616076633715116,2682
1711018145180,599616076641392134,2675
1711018145188,599616076649069152,2682
1711018145195,599616076656746170,2690
1711018145203,599616076664423188,2677
1711018145211,599616076672100206,2670
1711018145217,599616076679777224,2680
1711018145225,599616076687454242,2682
1711018145233,599616076695131260,2680
1711018145241,599616076702808278,2682
1711018145249,599616076710485296,2685
1711018145257,599616076718162314,2692
1711018145264,599616076725839332,2699
1711018145272,599616076733516350,2697
1711018145280,599616076741193368,2685
1711018145287,599616076748870386,2682
1711018145295,599616076756547404,2694
1711018145303,599616076764224422,2704
1711018145310,599616076771891425,2709
1711018145318,599616076779568583,2704
1711018145326,599616076787245741,2707
1711018145333,599616076794922899,2714
1711018145341,599616076802600057,2726
1711018145349,599616076810277215,2726
1711018145357,599616076817954373,2716
1711018145364,599616076825631531,2709
1711018145372,599616076833308689,2692
1711018145380,599616076840985847,2668
1711018145387,599616076848663005,2646
1711018145395,599616076856340163,2611
1711018145403,599616076864017321,2565
1711018145409,599616076871694479,2521
1711018145417,599616076879371637,2484
1711018145425,599616076887048795,2467
1711018145433,599616076894725953,2469
1711018145441,599616076902403111,2474
1711018145449,599616076910080269,2472
1711018145456,599616076917757427,2465
1711018145464,599616076925434585,2474
1711018145472,599616076933111743,2489
1711018145479,599616076940788901,2489
1711018145487,599616076948466059,2491
1711018145495,599616076956143217,2501
1711018145502,599616076963820375,2506
1711018145510,599616076971497533,2511
1711018145518,599616076979174691,2509
1711018145525,599616076986851849,2499
1711018145533,599616076994529007,2496
1711018145541,599616077002206165,2504
1711018145548,599616077009883323,2506
1711018145556,599616077017560481,2496
1711018145564,599616077025237639,2482
1711018145571,599616077032914797,2477
1711018145579,599616077040591955,2484
1711018145587,599616077048269113,2487
1711018145593,599616077055946271,2479
1711018145601,599616077063623429,2472
1711018145609,599616077071300587,2474
1711018145617,599616077078977745,2477
1711018145625,599616077086654903,2469
1711018145633,599616077094332061,2462
1711018145641,599616077102009219,2457
1711018145648,599616077109686377,2462
1711018145656,599616077117363535,2467
1711018145664,599616077125040693,2465
1711018145671,599616077132717851,2455
1711018145679,599616077140395009,2452
1711018145687,599616077148072167,2460
1711018145694,599616077155749325,2462
1711018145702,599616077163426483,2452
1711018145710,599616077171103641,2445
1711018145717,599616077178780799,2445
1711018145725,599616077186457957,2450
1711018145733,599616077194135115,2443
1711018145740,599616077201812273,2430
1711018145748,599616077209489431,2435
1711018145756,599616077217166589,2443
1711018145763,599616077224843747,2445
1711018145771,599616077232520905,2450
1711018145779,599616077240198063,2447
1711018145785,599616077247875221,2438
1711018145793,599616077255552379,2440
1711018145801,599616077263229537,2438
1711018145809,599616077270906695,2413
1711018145817,599616077278583853,2403
1711018145825,599616077286261011,2413
1711018145832,599616077293938169,2413
1711018145840,599616077301615327,2408
1711018145848,599616077309292485,2408
1711018145856,599616077316969643,2403
1711018145863,599616077324646801,2399
1711018145871,599616077332339026,2445
1711018145879,599616077340015975,2643
1711018145886,599616077347692924,2954
1711018145894,599616077355369873,2951
1711018145902,599616077363046822,2413
1711018145909,599616077370723771,1956
1711018145917,599616077378400720,2068
1711018145925,599616077386077669,2328
1711018145932,599616077393754618,2354
1711018145940,599616077401431567,2335
1711018145948,599616077409108516,2362
1711018145955,599616077416785465,2354
1711018145963,599616077424462414,2340
1711018145971,599616077432139363,2354
1711018145977,599616077439816312,2357
1711018145985,599616077447493261,2350
1711018145993,599616077455170210,2359
1711018146001,599616077462847159,2372
1711018146009,599616077470524108,2367
1711018146017,599616077478201057,2367
1711018146024,599616077485878006,2372
1711018146032,599616077493554955,2377
1711018146040,599616077501231904,2384
1711018146047,599616077508908853,2389
1711018146055,599616077516585802,2384
1711018146063,599616077524262751,2389
1711018146070,599616077531939700,2399
1711018146078,599616077539616649,2406
1711018146086,599616077547293598,2408
1711018146094,599616077554970547,2413
1711018146101,599616077562647496,2425
1711018146109,599616077570324445,2430
1711018146117,599616077578001394,2435
1711018146124,599616077585678343,2445
1711018146132,599616077593355292,2445
1711018146140,599616077601032241,2438
1711018146147,599616077608709190,2433
1711018146155,599616077616386139,2406
1711018146163,599616077624063088,2374
1711018146169,599616077631740037,2347
1711018146177,599616077639416986,2310
1711018146185,599616077647093935,2259
1711018146193,599616077654770884,2220
1711018146201,599616077662447833,2205
1711018146209,599616077670124782,2203
1711018146216,599616077677801731,2210
1711018146224,599616077685478680,2213
1711018146232,599616077693155629,2210
1711018146239,599616077700832578,2220
1711018146247,599616077708509527,2227
1711018146255,599616077716186476,2232
1711018146262,599616077723863425,2240
1711018146270,599616077731540374,2247
1711018146278,599616077739217323,2249
1711018146285,599616077746894272,2252
1711018146293,599616077754571221,2247
1711018146301,599616077762248170,2247
1711018146308,599616077769925119,2254
1711018146316,599616077777602068,2252
1711018146324,599616077785279017,2242
1711018146332,599616077792955966,2237
1711018146339,599616077800632915,2242
1711018146347,599616077808309864,2247
1711018146355,599616077815986813,2235
1711018146361,599616077823663762,2220
1711018146369,599616077831340711,2220
1711018146377,599616077839017660,2235
1711018146385,599616077846694609,2242
1711018146393,599616077854371558,2227
1711018146401,599616077862048507,2208
1711018146408,599616077869725456,2208
1711018146416,599616077877402405,2215
1711018146424,599616077885079354,2210
1711018146431,599616077892756319,2198
1711018146439,599616077900433268,2191
1711018146447,599616077908110217,2193
1711018146454,599616077915787166,2198
1711018146462,599616077923464115,2196
1711018146470,599616077931141064,2188
1711018146477,599616077938818013,2176
1711018146485,599616077946494962,2183
1711018146493,599616077954171911,2186
1711018146500,599616077961848860,2171
1711018146508,599616077969525809,2166
1711018146516,599616077977202758,2169
1711018146523,599616077984879707,2164
1711018146531,599616077992556656,2166
1711018146539,599616078000233605,2159
1711018146545,599616078007910554,2142
1711018146553,599616078015587503,2144
1711018146561,599616078023264452,2164
1711018146569,599616078030941401,2176
1711018146577,599616078038618350,2176
1711018146585,599616078046295299,2174
1711018146593,599616078053972248,2169
1711018146600,599616078061649197,2154
1711018146608,599616078069326146,2147
1711018146616,599616078077003095,2149
1711018146623,599616078084680044,2149
1711018146631,599616078092356993,2147
1711018146639,599616078100033942,2147
1711018146646,599616078107710891,2137
1711018146654,599616078115387840,2130
1711018146662,599616078123064789,2130
1711018146669,599616078130741738,2147
1711018146677,599616078138418687,2249
1711018146685,599616078146095636,2518
1711018146692,599616078153772585,2724
1711018146700,599616078161449534,2455
1711018146708,599616078169126483,1868
1711018146715,599616078176803432,1689
1711018146723,599616078184480381,1966
1711018146731,599616078192157330,2110
1711018146737,599616078199834279,2051
1711018146745,599616078207511228,2054
1711018146753,599616078215188177,2093
1711018146761,599616078222865126,2085
1711018146769,599616078230542075,2073
1711018146777,599616078238219024,2083
1711018146784,599616078245895973,2088
1711018146792,599616078253572922,2078
1711018146800,599616078261249871,2083
1711018146807,599616078268926820,2088
1711018146815,599616078276603769,2085
1711018146823,599616078284280718,2090
1711018146831,599616078291957667,2095
1711018146838,599616078299634616,2098
1711018146846,599616078307311565,2100
1711018146854,599616078314988514,2105
1711018146861,599616078322665463,2115
1711018146869,599616078330342412,2120
1711018146877,599616078338019361,2115
1711018146884,599616078345696310,2122
1711018146892,599616078353373259,2132
1711018146900,599616078361050208,2132
1711018146907,599616078368727157,2132
1711018146915,599616078376404106,2144
1711018146923,599616078384081055,2161
1711018146929,599616078391758004,2161
1711018146937,599616078399434953,2152
1711018146945,599616078407111902,2149
1711018146953,599616078414788851,2142
1711018146961,599616078422465800,2122
1711018146969,599616078430142749,2093
1711018146976,599616078437819698,2044
1711018146984,599616078445496647,1985
1711018146992,599616078453173612,1951
1711018146999,599616078460850561,1936
1711018147007,599616078468527510,1922
1711018147015,599616078476204459,1909
1711018147022,599616078483881408,1917
1711018147030,599616078491558357,1927
1711018147038,599616078499235306,1922
1711018147045,599616078506912255,1927
1711018147053,599616078514589204,1946
1711018147061,599616078522266153,1963
1711018147068,599616078529943102,1961
1711018147076,599616078537620051,1956
1711018147084,599616078545297000,1968
1711018147092,599616078552973949,1973
1711018147099,599616078560650898,1973
1711018147107,599616078568327847,1985
1711018147115,599616078576004796,1988
1711018147121,599616078583681745,1978
1711018147129,599616078591358694,1978
1711018147137,599616078599035643,1995
1711018147145,599616078606712592,2000
1711018147153,599616078614389541,1985
1711018147161,599616078622066490,1961
1711018147168,599616078629743439,1966
1711018147176,599616078637420388,1980
1711018147184,599616078645097337,1978
1711018147191,599616078652774286,1966
1711018147199,599616078660451235,1963
1711018147207,599616078668128184,1968
1711018147214,599616078675805133,1963
1711018147222,599616078683482082,1956
1711018147230,599616078691159031,1956
1711018147237,599616078698835980,1961
1711018147245,599616078706512929,1958
1711018147253,599616078714189878,1951
1711018147260,599616078721866827,1944
1711018147268,599616078729543776,1936
1711018147276,599616078737220725,1931
1711018147283,599616078744897674,1941
1711018147291,599616078752574623,1946
1711018147299,599616078760251572,1934
1711018147305,599616078767928521,1927
1711018147313,599616078775605470,1931
1711018147321,599616078783282419,1922
1711018147329,599616078790959368,1912
1711018147337,599616078798636317,1919
1711018147345,599616078806313266,1929
1711018147353,599616078813990215,1934
1711018147360,599616078821667164,1939
1711018147368,599616078829344113,1931
1711018147376,599616078837021062,1917
1711018147383,599616078844698011,1914
1711018147391,599616078852374960,1909
1711018147399,599616078860051909,1897
1711018147406,599616078867728858,1897
1711018147414,599616078875405807,1892
1711018147422,599616078883082756,1887
1711018147429,599616078890759705,1885
1711018147437,599616078898436654,1880
1711018147445,599616078906113603,1875
1711018147452,599616078913790552,1902
1711018147460,599616078921467501,2039
1711018147468,599616078929144450,2310
1711018147475,599616078936821399,2425
1711018147483,599616078944498348,2049
1711018147491,599616078952175297,1545
1711018147497,599616078959852246,1521
1711018147505,599616078967529195,1782
1711018147513,599616078975206144,1853
1711018147521,599616078982883093,1809
1711018147529,599616078990560042,1829
1711018147537,599616078998236991,1846
1711018147544,599616079005913940,1826
1711018147552,599616079013590905,1829
1711018147560,599616079021267854,1848
1711018147567,599616079028944803,1846
1711018147575,599616079036621752,1836
1711018147583,599616079044298701,1848
1711018147591,599616079051975650,1856
1711018147598,599616079059652599,1851
1711018147606,599616079067329548,1856
1711018147614,599616079075006497,1858
1711018147621,599616079082683446,1848
1711018147629,599616079090360395,1851
1711018147637,599616079098037344,1865
1711018147644,599616079105714293,1868
1711018147652,599616079113391242,1868
1711018147660,599616079121068191,1873
1711018147667,599616079128745140,1878
1711018147675,599616079136422089,1880
1711018147683,599616079144099038,1883
1711018147689,599616079151775987,1887
1711018147697,599616079159452936,1897
1711018147705,599616079167129885,1905
1711018147713,599616079174806834,1902
1711018147721,599616079182483783,1892
1711018147729,599616079190160732,1887
1711018147736,599616079197837681,1880
1711018147744,599616079205514630,1853
1711018147752,599616079213191579,1816
1711018147759,599616079220868528,1775
1711018147767,599616079228545477,1733
1711018147775,599616079236222426,1702
1711018147782,599616079243899375,1687
1711018147790,599616079251576324,1677
1711018147798,599616079259253273,1677
1711018147805,599616079266930222,1687
1711018147813,599616079274607171,1689
1711018147821,599616079282284120,1694
1711018147829,599616079289961069,1704
1711018147836,599616079297638018,1709
1711018147844,599616079305314967,1709
1711018147852,599616079312991916,1704
1711018147859,599616079320668865,1714
1711018147867,599616079328345814,1724
1711018147875,599616079336022763,1719
1711018147881,599616079343699712,1709
1711018147889,599616079351376661,1704
1711018147897,599616079359053610,1706
1711018147905,599616079366730559,1711
1711018147913,599616079374407508,1711
1711018147921,599616079382084457,1706
1711018147928,599616079389761406,1699
1711018147936,599616079397438355,1699
1711018147944,599616079405115304,1709
1711018147951,599616079412792253,1699
1711018147959,599616079420469202,1684
1711018147967,599616079428146151,1684
1711018147974,599616079435823100,1692
1711018147982,599616079443500049,1680
1711018147990,599616079451176998,1675
1711018147997,599616079458853947,1684
1711018148005,599616079466530896,1680
1711018148013,599616079474207845,1670
1711018148020,599616079481884794,1660
1711018148028,599616079489561743,1650
1711018148036,599616079497238692,1655
1711018148043,599616079504915641,1658
1711018148051,599616079512592590,1648
1711018148059,599616079520269539,1643
1711018148065,599616079527946488,1650
1711018148073,599616079535623437,1643
1711018148081,599616079543300386,1626
1711018148089,599616079550977335,1631
1711018148097,599616079558654284,1650
1711018148105,599616079566331233,1645
1711018148113,599616079573993150,1636
1711018148120,599616079581670308,1643
1711018148128,599616079589347466,1636
1711018148136,599616079597024624,1609
1711018148143,599616079604701782,1604
1711018148151,599616079612378940,1614
1711018148159,599616079620056098,1609
1711018148166,599616079627733256,1609
1711018148174,599616079635410414,1623
1711018148182,599616079643087572,1616
1711018148189,599616079650764730,1601
1711018148197,599616079658441888,1611
1711018148205,599616079666119046,1692
1711018148212,599616079673796204,1946
1711018148220,599616079681473362,2193
1711018148228,599616079689150520,1944
1711018148235,599616079696827678,1349
1711018148243,599616079704504836,1176
1711018148251,599616079712181994,1440
1711018148257,599616079719859152,1587
1711018148265,599616079727536310,1552
1711018148273,599616079735213468,1562
1711018148281,599616079742890626,1606
1711018148289,599616079750567784,1601
1711018148297,599616079758244942,1589
1711018148304,599616079765922100,1606
1711018148312,599616079773599258,1623
1711018148320,599616079781276416,1623
1711018148328,599616079788953574,1626
1711018148335,599616079796630732,1631
1711018148343,599616079804307890,1621
1711018148351,599616079811985048,1618
1711018148358,599616079819662206,1645
1711018148366,599616079827339364,1667
1711018148374,599616079835016522,1667
1711018148381,599616079842693680,1665
1711018148389,599616079850370838,1670
1711018148397,599616079858047996,1675
1711018148404,599616079865725154,1682
1711018148412,599616079873402312,1689
1711018148420,599616079881079470,1702
1711018148427,599616079888756628,1714
1711018148435,599616079896433786,1721
1711018148443,599616079904110944,1736
1711018148449,599616079911788102,1743
1711018148457,599616079919465260,1736
1711018148465,599616079927142418,1736
1711018148473,599616079934819576,1743
1711018148481,599616079942496734,1736
1711018148489,599616079950173892,1709
1711018148496,599616079957851050,1677
1711018148504,599616079965528208,1645
1711018148512,599616079973205366,1609
1711018148519,599616079980882524,1589
1711018148527,599616079988559682,1596
1711018148535,599616079996236840,1611
1711018148542,599616080003913998,1604
1711018148550,599616080011591156,1601
1711018148558,599616080019268314,1621
1711018148565,599616080026945472,1623
1711018148573,599616080034622630,1621
1711018148581,599616080042299788,1636
1711018148589,599616080049976946,1643
1711018148596,599616080057654104,1623
1711018148604,599616080065331262,1616
1711018148612,599616080073008420,1623
1711018148619,599616080080685578,1618
1711018148627,599616080088362736,1599
1711018148635,599616080096039894,1599
1711018148641,599616080103717052,1596
1711018148649,599616080111394210,1589
1711018148657,599616080119071368,1589
1711018148665,599616080126748526,1587
1711018148673,599616080134435781,1579
1711018148681,599616080142112799,1569
1711018148688,599616080149789817,1557
1711018148696,599616080157466835,1557
1711018148704,599616080165143853,1557
1711018148711,599616080172820871,1545
1711018148719,599616080180497889,1540
1711018148727,599616080188174907,1538
1711018148734,599616080195851925,1528
1711018148742,599616080203528943,1521
1711018148750,599616080211205961,1521
1711018148757,599616080218882979,1523
1711018148765,599616080226559997,1521
1711018148773,599616080234237015,1521
1711018148780,599616080241914033,1525
1711018148788,599616080249591051,1540
1711018148796,599616080257268069,1543
1711018148803,599616080264945087,1533
1711018148811,599616080272622105,1535
1711018148819,599616080280299123,1543
1711018148827,599616080287976141,1521
1711018148833,599616080295653159,1494
1711018148841,599616080303330177,1503
1711018148849,599616080311007195,1516
1711018148857,599616080318684213,1501
1711018148865,599616080326361231,1489
1711018148873,599616080334038249,1491
1711018148880,599616080341715267,1494
1711018148888,599616080349392285,1484
1711018148896,599616080357069303,1462
1711018148903,599616080364746321,1457
1711018148911,599616080372423339,1462
1711018148919,599616080380100357,1459
1711018148926,599616080387777375,1464
1711018148934,599616080395454393,1477
1711018148942,599616080403131411,1477
1711018148949,599616080410808429,1474
1711018148957,599616080418485447,1484
1711018148965,599616080426162465,1513
1711018148972,599616080433839483,1636
1711018148980,599616080441516501,1905
1711018148988,599616080449193519,2071
1711018148995,599616080456870537,1753
1711018149003,599616080464547555,1205
1711018149011,599616080472224573,1115
1711018149017,599616080479901591,1393
1711018149025,599616080487578609,1486
1711018149033,599616080495255627,1428
1711018149041,599616080502932645,1459
1711018149049,599616080510609663,1501
1711018149057,599616080518286681,1481
1711018149065,599616080525963699,1491
1711018149072,599616080533640717,1523
1711018149080,599616080541317735,1511
1711018149088,599616080548994753,1506
1711018149095,599616080556671771,1528
1711018149103,599616080564348789,1545
1711018149111,599616080572025807,1538
1711018149118,599616080579702825,1516
1711018149126,599616080587379843,1503
1711018149134,599616080595056861,1523
1711018149141,599616080602733879,1545
1711018149149,599616080610410897,1545
1711018149157,599616080618087915,1547
1711018149164,599616080625764933,1555
1711018149172,599616080633441951,1560
1711018149180,599616080641118969,1569
1711018149187,599616080648795987,1582
1711018149195,599616080656473005,1579
1711018149203,599616080664150023,1579
1711018149209,599616080671827041,1594
1711018149217,599616080679504059,1601
1711018149225,599616080687181077,1594
1711018149233,599616080694858160,1587
1711018149241,599616080702535178,1577
1711018149249,599616080710212196,1569
1711018149256,599616080717889214,1560
1711018149264,599616080725566232,1530
1711018149272,599616080733243250,1479
1711018149279,599616080740920268,1437
1711018149287,599616080748597286,1423
1711018149295,599616080756274304,1411
1711018149303,599616080763951322,1398
1711018149310,599616080771628340,1396
1711018149318,599616080779305358,1393
1711018149326,599616080786982376,1403
1711018149333,599616080794659394,1423
1711018149341,599616080802336412,1433
1711018149349,599616080810013430,1428
1711018149356,599616080817690448,1430
1711018149364,599616080825367466,1437
1711018149372,599616080833044484,1440
1711018149379,599616080840721502,1440
1711018149387,599616080848398520,1442
1711018149395,599616080856075538,1452
1711018149401,599616080863752556,1457
1711018149409,599616080871429574,1450
1711018149417,599616080879106592,1442
1711018149425,599616080886783610,1447
1711018149433,599616080894460628,1445
1711018149441,599616080902137646,1437
1711018149448,599616080909814664,1437
1711018149456,599616080917491682,1445
1711018149464,599616080925168700,1450
1711018149471,599616080932845718,1442
1711018149479,599616080940522736,1430
1711018149487,599616080948199754,1430
1711018149494,599616080955876772,1437
1711018149502,599616080963553790,1435
1711018149510,599616080971230808,1435
1711018149517,599616080978907826,1442
1711018149525,599616080986584844,1435
1711018149533,599616080994261862,1433
1711018149540,599616081001938880,1435
1711018149548,599616081009615898,1428
1711018149556,599616081017292916,1425
1711018149564,599616081024969934,1425
1711018149571,599616081032646952,1415
1711018149579,599616081040323970,1418
1711018149587,599616081048000988,1420
1711018149593,599616081055678006,1415
1711018149601,599616081063355024,1420
1711018149609,599616081071032042,1423
1711018149617,599616081078709060,1420
1711018149625,599616081086386078,1423
1711018149633,599616081094063096,1420
1711018149640,599616081101740114,1413
1711018149648,599616081109417132,1420
1711018149656,599616081117094150,1425
1711018149663,599616081124771168,1418
1711018149671,599616081132448186,1420
1711018149679,599616081140125204,1430
1711018149686,599616081147802222,1420
1711018149694,599616081155479240,1401
1711018149702,599616081163156258,1401
1711018149709,599616081170833276,1408
1711018149717,599616081178510294,1401
1711018149725,599616081186187312,1391
1711018149732,599616081193864330,1398
1711018149740,599616081201541348,1406
1711018149748,599616081209218366,1401
1711018149755,599616081216895384,1411
1711018149763,599616081224572402,1530
1711018149771,599616081232249420,1792
1711018149777,599616081239926438,1924
1711018149785,599616081247603456,1589
1711018149793,599616081255280539,1085
1711018149801,599616081262957557,1012
1711018149809,599616081270634575,1274
1711018149817,599616081278311593,1386
1711018149825,599616081285988611,1342
1711018149832,599616081293665629,1342
1711018149840,599616081301342647,1369
1711018149848,599616081309019665,1367
1711018149855,599616081316696683,1359
1711018149863,599616081324373701,1364
1711018149871,599616081332050719,1371
1711018149878,599616081339727737,1376
1711018149886,599616081347404755,1379
1711018149894,599616081355081773,1374
1711018149901,599616081362758791,1369
1711018149909,599616081370435809,1369
1711018149917,599616081378112827,1386
1711018149924,599616081385789845,1393
1711018149932,599616081393466863,1381
1711018149940,599616081401143881,1386
1711018149947,599616081408820899,1406
1711018149955,599616081416497917,1413
1711018149963,599616081424174935,1415
1711018149969,599616081431851953,1423
1711018149977,599616081439528971,1433
1711018149985,599616081447205989,1442
1711018149993,599616081454883007,1447
1711018150001,599616081462560025,1442
1711018150009,599616081470237043,1442
1711018150016,599616081477914061,1455
1711018150024,599616081485591079,1450
1711018150032,599616081493268097,1433
1711018150039,599616081500945115,1428
1711018150047,599616081508622133,1415
1711018150055,599616081516299151,1381
1711018150063,599616081523976169,1347
1711018150070,599616081531653187,1310
1711018150078,599616081539330205,1283
1711018150086,599616081547007223,1271
1711018150093,599616081554684241,1264
1711018150101,599616081562361259,1252
1711018150109,599616081570038277,1259
1711018150116,599616081577715295,1281
1711018150124,599616081585392313,1276
1711018150132,599616081593069331,1266
1711018150139,599616081600746349,1288
1711018150147,599616081608423367,1305
1711018150155,599616081616100385,1298
1711018150161,599616081623777403,1296
1711018150169,599616081631454421,1305
1711018150177,599616081639131439,1305
1711018150185,599616081646808457,1308
1711018150193,599616081654485475,1305
1711018150201,599616081662162493,1296
1711018150208,599616081669839511,1300
1711018150216,599616081677516529,1303
1711018150224,599616081685193547,1300
1711018150231,599616081692870565,1308
1711018150239,599616081700547583,1308
1711018150247,599616081708224601,1300
1711018150254,599616081715901619,1305
1711018150262,599616081723578637,1305
1711018150270,599616081731255655,1291
1711018150277,599616081738932673,1291
1711018150285,599616081746609691,1303
1711018150293,599616081754286709,1308
1711018150301,599616081761963727,1298
1711018150308,599616081769640745,1293
1711018150316,599616081777317763,1303
1711018150324,599616081784994781,1305
1711018150331,599616081792671799,1296
1711018150339,599616081800348817,1291
1711018150347,599616081808025835,1288
1711018150353,599616081815707888,1293
1711018150361,599616081823384837,1298
1711018150369,599616081831061786,1293
1711018150377,599616081838738735,1288
1711018150385,599616081846415684,1293
1711018150393,599616081854092633,1288
1711018150400,599616081861769582,1276
1711018150408,599616081869446531,1276
1711018150416,599616081877123480,1283
1711018150423,599616081884800429,1283
1711018150431,599616081892477378,1283
1711018150439,599616081900154327,1281
1711018150446,599616081907831276,1274
1711018150454,599616081915508225,1269
1711018150462,599616081923185174,1264
1711018150469,599616081930862123,1269
1711018150477,599616081938539072,1283
1711018150485,599616081946216021,1281
1711018150492,599616081953892970,1276
1711018150500,599616081961569919,1276
1711018150508,599616081969246868,1271
1711018150515,599616081976923817,1259
1711018150523,599616081984600766,1252
1711018150531,599616081992277715,1249
1711018150539,599616081999954664,1244
1711018150545,599616082007631613,1244
1711018150553,599616082015308562,1254
1711018150561,599616082022985511,1252
1711018150569,599616082030662460,1239
1711018150577,599616082038339409,1252
1711018150585,599616082046016358,1335
1711018150592,599616082053693307,1547
1711018150600,599616082061370256,1748
1711018150608,599616082069047205,1569
1711018150615,599616082076724154,1063
1711018150623,599616082084401103,836
1711018150631,599616082092078052,1046
1711018150638,599616082099755001,1217
1711018150646,599616082107431950,1195
1711018150654,599616082115108899,1178
1711018150661,599616082122785848,1200
1711018150669,599616082130462797,1212
1711018150677,599616082138139746,1215
1711018150684,599616082145816695,1215
1711018150692,599616082153493644,1215
1711018150700,599616082161170593,1217
1711018150707,599616082168847542,1217
1711018150715,599616082176524491,1225
1711018150723,599616082184201440,1237
1711018150729,599616082191878389,1237
1711018150737,599616082199555338,1227
1711018150745,599616082207232287,1230
1711018150753,599616082214909236,1239
1711018150761,599616082222586185,1242
1711018150769,599616082230263134,1244
1711018150776,599616082237940083,1254
1711018150784,599616082245617032,1261
1711018150792,599616082253293981,1266
1711018150800,599616082260970930,1261
1711018150807,599616082268647879,1259
1711018150815,599616082276324828,1278
1711018150823,599616082284001777,1300
1711018150830,599616082291678726,1296
1711018150838,599616082299355675,1283
1711018150846,599616082307032624,1288
1711018150853,599616082314709573,1291
1711018150861,599616082322386522,1271
1711018150869,599616082330063471,1256
1711018150876,599616082337740420,1244
1711018150884,599616082345417369,1208
1711018150892,599616082353094318,1171
1711018150899,599616082360771267,1149
1711018150907,599616082368448216,1115
1711018150915,599616082376125181,1093
1711018150921,599616082383802130,1105
1711018150929,599616082391479079,1120
1711018150937,599616082399156028,1117
1711018150945,599616082406832977,1124
1711018150953,599616082414509926,1137
1711018150961,599616082422186875,1137
1711018150968,599616082429863824,1137
1711018150976,599616082437540773,1137
1711018150984,599616082445217722,1134
1711018150991,599616082452894671,1132
1711018150999,599616082460571620,1137
1711018151007,599616082468248569,1139
1711018151014,599616082475925518,1149
1711018151022,599616082483602467,1146
1711018151030,599616082491279416,1129
1711018151038,599616082498956365,1124
1711018151045,599616082506633314,1134
1711018151053,599616082514310263,1139
1711018151061,599616082521987212,1129
1711018151068,599616082529664161,1124
1711018151076,599616082537341110,1127
1711018151084,599616082545018059,1139
1711018151091,599616082552695008,1144
1711018151099,599616082560371957,1137
1711018151107,599616082568048906,1127
1711018151113,599616082575725855,1117
1711018151121,599616082583402804,1112
1711018151129,599616082591079753,1117
1711018151137,599616082598756702,1122
1711018151145,599616082606433651,1107
1711018151153,599616082614110600,1110
1711018151160,599616082621787549,1134
1711018151168,599616082629464498,1129
1711018151176,599616082637141447,1107
1711018151183,599616082644818396,1110
1711018151191,599616082652495345,1110
1711018151199,599616082660172294,1098
1711018151206,599616082667849243,1095
1711018151214,599616082675526192,1100
1711018151222,599616082683203141,1110
1711018151229,599616082690880090,1117
1711018151237,599616082698557039,1112
1711018151245,599616082706233988,1105
1711018151252,599616082713910937,1098
1711018151260,599616082721587886,1090
1711018151268,599616082729264835,1083
1711018151275,599616082736941784,1090
1711018151283,599616082744618733,1110
1711018151291,599616082752295682,1107
1711018151299,599616082759972631,1100
1711018151305,599616082767649580,1110
1711018151313,599616082775326529,1102
1711018151321,599616082783003478,1083
1711018151329,599616082790680427,1080
1711018151337,599616082798357376,1085
1711018151345,599616082806034325,1088
1711018151352,599616082813711274,1083
1711018151360,599616082821388223,1071
1711018151368,599616082829065172,1068
1711018151375,599616082836742121,1071
1711018151383,599616082844419070,1085
1711018151391,599616082852096019,1198
1711018151398,599616082859772968,1469
1711018151406,599616082867449917,1606
1711018151414,599616082875126866,1230
1711018151421,599616082882803815,723
1711018151429,599616082890480764,709
1711018151437,599616082898157713,963
1711018151444,599616082905834662,1039
1711018151452,599616082913511611,1024
1711018151460,599616082921188560,1041
1711018151467,599616082928865509,1039
1711018151475,599616082936527426,1034
1711018151483,599616082944204584,1053
1711018151489,599616082951881742,1058
1711018151497,599616082959558900,1053
1711018151505,599616082967236058,1058
1711018151513,599616082974913216,1061
1711018151521,599616082982590374,1068
1711018151529,599616082990267532,1076
1711018151536,599616082997944690,1076
1711018151544,599616083005621848,1071
1711018151552,599616083013299006,1073
1711018151560,599616083020976164,1080
1711018151567,599616083028653322,1095
1711018151575,599616083036330480,1105
1711018151583,599616083044007638,1102
1711018151590,599616083051684796,1110
1711018151598,599616083059361954,1122
1711018151606,599616083067039112,1124
1711018151613,599616083074716270,1122
1711018151621,599616083082393428,1127
1711018151629,599616083090070586,1142
1711018151636,599616083097747744,1154
1711018151644,599616083105424902,1144
1711018151652,599616083113102060,1134
1711018151659,599616083120779218,1142
1711018151667,599616083128456376,1139
1711018151675,599616083136133534,1112
1711018151681,599616083143810692,1080
1711018151689,599616083151487850,1053
1711018151697,599616083159165008,1022
1711018151705,599616083166842166,983
1711018151713,599616083174519324,965
1711018151721,599616083182196482,975
1711018151728,599616083189873640,983
1711018151736,599616083197550798,980
1711018151744,599616083205227956,983
1711018151751,599616083212905114,997
1711018151759,599616083220582272,1009
1711018151767,599616083228259430,1005
1711018151774,599616083235936588,1005
1711018151782,599616083243613746,1027
1711018151790,599616083251290904,1049
1711018151798,599616083258968062,1046
1711018151805,599616083266645220,1039
1711018151813,599616083274322378,1034
1711018151821,599616083281999536,1039
1711018151828,599616083289676694,1049
1711018151836,599616083297353852,1051
1711018151844,599616083305031010,1049
1711018151851,599616083312708168,1046
1711018151859,599616083320385326,1041
1711018151867,599616083328062484,1044
1711018151873,599616083335739642,1041
1711018151881,599616083343416800,1036
1711018151889,599616083351093958,1046
1711018151897,599616083358771116,1051
1711018151905,599616083366448274,1029
1711018151913,599616083374125432,1024
1711018151920,599616083381802590,1027
1711018151928,599616083389479748,1022
1711018151936,599616083397156906,1031
1711018151943,599616083404834064,1036
1711018151951,599616083412511222,1017
1711018151959,599616083420188380,1022
1711018151966,599616083427865538,1036
1711018151974,599616083435542696,1019
1711018151982,599616083443219854,1002
1711018151989,599616083450897012,1014
1711018151997,599616083458574170,1022
1711018152005,599616083466251328,1005
1711018152012,599616083473928486,995
1711018152020,599616083481605644,1005
1711018152028,599616083489282802,1002
1711018152036,599616083496970057,995
1711018152043,599616083504647075,992
1711018152051,599616083512324093,983
1711018152059,599616083520001111,995
1711018152065,599616083527678129,1019
1711018152073,599616083535355147,1012
1711018152081,599616083543032165,1007
1711018152089,599616083550709183,1022
1711018152097,599616083558386201,1009
1711018152105,599616083566063219,983
1711018152112,599616083573740237,987
1711018152120,599616083581417255,1007
1711018152128,599616083589094273,1002
1711018152135,599616083596771291,980
1711018152143,599616083604448309,983
1711018152151,599616083612125327,995
1711018152158,599616083619802345,983
1711018152166,599616083627479363,1009
1711018152174,599616083635156381,1183
1711018152181,599616083642833399,1467
1711018152189,599616083650510417,1516
1711018152197,599616083658187435,1085
1711018152204,599616083665864453,621
1711018152212,599616083673541471,670
1711018152220,599616083681218489,946
1711018152227,599616083688895507,985
1711018152235,599616083696572525,914
1711018152243,599616083704249543,946
1711018152249,599616083711926561,980
1711018152257,599616083719603579,958
1711018152265,599616083727280597,956
1711018152273,599616083734957615,973
1711018152281,599616083742634633,968
1711018152289,599616083750311651,968
1711018152297,599616083757988669,983
1711018152304,599616083765665687,987
1711018152312,599616083773342705,992
1711018152320,599616083781019723,1000
1711018152327,599616083788696741,997
1711018152335,599616083796373759,995
1711018152343,599616083804050777,1009
1711018152350,599616083811727795,1017
1711018152358,599616083819404813,1019
1711018152366,599616083827081831,1031
1711018152373,599616083834758849,1036
1711018152381,599616083842435867,1036
1711018152389,599616083850112885,1041
1711018152396,599616083857789903,1056
1711018152404,599616083865466921,1066
1711018152412,599616083873143939,1063
1711018152419,599616083880820957,1066
1711018152427,599616083888497975,1076
1711018152435,599616083896174993,1068
1711018152441,599616083903852011,1051
1711018152449,599616083911529029,1036
1711018152457,599616083919206047,1022
1711018152465,599616083926883065,995
1711018152473,599616083934560083,956
1711018152481,599616083942237101,917
1711018152488,599616083949914119,904
1711018152496,599616083957591137,902
1711018152504,599616083965268155,895
1711018152511,599616083972945173,890
1711018152519,599616083980622191,897
1711018152527,599616083988299209,914
1711018152535,599616083995976227,931
1711018152542,599616084003653245,939
1711018152550,599616084011330263,939
1711018152558,599616084019007281,941
1711018152565,599616084026684299,948
1711018152573,599616084034361317,951
1711018152581,599616084042038335,953
1711018152588,599616084049715353,958
1711018152596,599616084057387396,956
1711018152604,599616084065064484,958
1711018152611,599616084072741572,965
1711018152619,599616084080418660,965
1711018152627,599616084088095748,961
1711018152633,599616084095772836,958
1711018152641,599616084103449924,953
1711018152649,599616084111127012,946
1711018152657,599616084118804100,946
1711018152665,599616084126481188,953
1711018152673,599616084134158276,953
1711018152680,599616084141835364,943
1711018152688,599616084149512452,941
1711018152696,599616084157189540,943
1711018152703,599616084164866628,946
1711018152711,599616084172543716,941
1711018152719,599616084180220804,939
1711018152726,599616084187897892,946
1711018152734,599616084195574980,951
1711018152742,599616084203252068,951
1711018152749,599616084210929156,946
1711018152757,599616084218606244,946
1711018152765,599616084226283332,948
1711018152773,599616084233960420,958
1711018152780,599616084241637508,961
1711018152788,599616084249314596,953
1711018152796,599616084256991684,951
1711018152803,599616084264668772,963
1711018152811,599616084272345860,963
1711018152819,599616084280022948,953
1711018152825,599616084287700036,951
1711018152833,599616084295377124,956
1711018152841,599616084303054212,963
1711018152849,599616084310731300,968
1711018152857,599616084318408388,965
1711018152865,599616084326085476,958
1711018152872,599616084333762564,951
1711018152880,599616084341439652,941
1711018152888,599616084349116740,934
1711018152895,599616084356793828,936
1711018152903,599616084364470916,939
1711018152911,599616084372148004,936
1711018152918,599616084379825092,934
1711018152926,599616084387502180,929
1711018152934,599616084395179268,926
1711018152941,599616084402856356,939
1711018152949,599616084410533444,1022
1711018152957,599616084418210532,1271
1711018152964,599616084425887620,1530
1711018152972,599616084433564708,1342
1711018152980,599616084441241796,745
1711018152987,599616084448918884,484
1711018152995,599616084456595972,728
1711018153003,599616084464273060,912
1711018153011,599616084471950148,880
1711018153017,599616084479627236,875
1711018153025,599616084487304324,912
1711018153033,599616084494981412,907
1711018153041,599616084502658500,899
1711018153049,599616084510335588,914
1711018153057,599616084518012676,919
1711018153064,599616084525689764,917
1711018153072,599616084533366852,924
1711018153080,599616084541043940,936
1711018153087,599616084548721028,939
1711018153095,599616084556398116,941
1711018153103,599616084564075204,941
1711018153110,599616084571752292,936
1711018153118,599616084579429380,941
1711018153126,599616084587106468,951
1711018153133,599616084594783556,956
1711018153141,599616084602460644,958
1711018153149,599616084610137732,963
1711018153156,599616084617824871,963
1711018153164,599616084625501820,965
1711018153172,599616084633178769,968
1711018153179,599616084640855718,980
1711018153187,599616084648532667,1002
1711018153195,599616084656209616,1007
1711018153201,599616084663886565,997
1711018153209,599616084671563514,995
1711018153217,599616084679240463,987
1711018153225,599616084686917412,970
1711018153233,599616084694594361,958
1711018153241,599616084702271310,941
1711018153249,599616084709948259,904
1711018153256,599616084717625208,858
1711018153264,599616084725302157,814
1711018153272,599616084732979106,792
1711018153279,599616084740656055,789
1711018153287,599616084748333004,789
1711018153295,599616084756009953,794
1711018153302,599616084763686902,797
1711018153310,599616084771363851,802
1711018153318,599616084779040800,809
1711018153325,599616084786717749,816
1711018153333,599616084794394698,826
1711018153341,599616084802071647,836
1711018153348,599616084809748596,843
1711018153356,599616084817425545,848
1711018153364,599616084825102494,848
1711018153371,599616084832779443,838
1711018153379,599616084840456392,838
1711018153387,599616084848133341,851
1711018153393,599616084855810290,863
1711018153401,599616084863487239,855
1711018153409,599616084871164188,841
1711018153417,599616084878841137,841
1711018153425,599616084886518086,848
1711018153433,599616084894195035,851
1711018153440,599616084901871984,843
1711018153448,599616084909548933,841
1711018153456,599616084917225882,843
1711018153463,599616084924902831,841
1711018153471,599616084932579780,833
1711018153479,599616084940256729,836
1711018153486,599616084947933678,838
1711018153494,599616084955610627,833
1711018153502,599616084963287576,833
1711018153510,599616084970964525,838
1711018153517,599616084978641474,831
1711018153525,599616084986318423,826
1711018153533,599616084993995372,831
1711018153540,599616085001672321,831
1711018153548,599616085009349270,824
1711018153556,599616085017026219,821
1711018153563,599616085024703168,824
1711018153571,599616085032380117,819
1711018153579,599616085040057066,816
1711018153585,599616085047734015,821
1711018153593,599616085055410964,831
1711018153601,599616085063087913,836
1711018153609,599616085070764862,836
1711018153617,599616085078441811,826
1711018153625,599616085086118760,819
1711018153632,599616085093795709,821
1711018153640,599616085101472658,824
1711018153648,599616085109149607,816
1711018153655,599616085116826556,807
1711018153663,599616085124503505,807
1711018153671,599616085132180454,811
1711018153678,599616085139857403,807
1711018153686,599616085147534352,809
1711018153694,599616085155211301,895
1711018153701,599616085162888250,1151
1711018153709,599616085170565199,1415
1711018153717,599616085178242164,1210
1711018153724,599616085185919113,604
1711018153732,599616085193596062,354
1711018153740,599616085201273011,584
1711018153748,599616085208949960,762
1711018153755,599616085216626909,762
1711018153763,599616085224303858,770
1711018153771,599616085231980807,792
1711018153777,599616085239657756,794
1711018153785,599616085247334705,792
1711018153793,599616085255011654,797
1711018153801,599616085262688603,804
1711018153809,599616085270365552,811
1711018153817,599616085278042501,816
1711018153824,599616085285719450,816
1711018153832,599616085293396399,816
1711018153840,599616085301073348,824
1711018153847,599616085308750297,831
1711018153855,599616085316427246,833
1711018153863,599616085324104195,833
1711018153870,599616085331781144,846
1711018153878,599616085339458093,860
1711018153886,599616085347135042,863
1711018153893,599616085354811991,865
1711018153901,599616085362488940,885
1711018153909,599616085370165889,895
1711018153916,599616085377842838,897
1711018153924,599616085385519787,904
1711018153932,599616085393196736,912
1711018153939,599616085400873685,919
1711018153947,599616085408550634,924
1711018153955,599616085416227583,919
1711018153961,599616085423904532,907
1711018153969,599616085431581481,895
1711018153977,599616085439258430,890
1711018153985,599616085446935379,868
1711018153993,599616085454612328,814
1711018154001,599616085462289277,767
1711018154009,599616085469966226,745
1711018154016,599616085477643175,733
1711018154024,599616085485320124,726
1711018154032,599616085492997073,723
1711018154039,599616085500674022,728
1711018154047,599616085508350971,738
1711018154055,599616085516027920,748
1711018154062,599616085523704869,753
1711018154070,599616085531381818,755
1711018154078,599616085539058767,765
1711018154085,599616085546735716,777
1711018154093,599616085554412665,784
1711018154101,599616085562089614,792
1711018154108,599616085569766563,797
1711018154116,599616085577443512,794
1711018154124,599616085585120461,792
1711018154131,599616085592797410,797
1711018154139,599616085600474359,799
1711018154147,599616085608151308,802
1711018154153,599616085615828257,799
1711018154161,599616085623505206,799
1711018154169,599616085631182155,797
1711018154177,599616085638859104,792
1711018154185,599616085646536053,794
1711018154193,599616085654213002,799
1711018154200,599616085661889951,797
1711018154208,599616085669566900,789
1711018154216,599616085677243849,794
1711018154223,599616085684920798,802
1711018154231,599616085692597747,794
1711018154239,599616085700274696,784
1711018154247,599616085707951645,780
1711018154254,599616085715628594,787
1711018154262,599616085723305543,792
1711018154270,599616085730982492,792
1711018154277,599616085738659457,789
1711018154285,599616085746336406,792
1711018154293,599616085754013355,792
1711018154300,599616085761690304,792
1711018154308,599616085769367253,792
1711018154316,599616085777044202,787
1711018154323,599616085784721151,782
1711018154331,599616085792398100,797
1711018154339,599616085800075049,816
1711018154345,599616085807751998,811
1711018154353,599616085815428947,804
1711018154361,599616085823105896,811
1711018154369,599616085830782845,809
1711018154377,599616085838459794,797
1711018154385,599616085846136743,789
1711018154392,599616085853813692,787
1711018154400,599616085861490641,784
1711018154408,599616085869167590,789
1711018154415,599616085876844539,789
1711018154423,599616085884521488,780
1711018154431,599616085892198437,780
1711018154438,599616085899875386,816
1711018154446,599616085907552335,978
1711018154454,599616085915229284,1293
1711018154461,599616085922906233,1403
1711018154469,599616085930583182,946
1711018154477,599616085938260131,388
1711018154484,599616085945937080,403
1711018154492,599616085953614029,706
1711018154500,599616085961290978,767
1711018154508,599616085968967927,721
1711018154515,599616085976644876,755
1711018154523,599616085984321825,772
1711018154531,599616085991998774,755
1711018154537,599616085999675723,767
1711018154545,599616086007352672,784
1711018154553,599616086015029621,782
1711018154561,599616086022706570,777
1711018154569,599616086030383519,782
1711018154577,599616086038060468,794
1711018154584,599616086045737417,802
1711018154592,599616086053414366,799
1711018154600,599616086061091315,799
1711018154607,599616086068768264,811
1711018154615,599616086076445213,821
1711018154623,599616086084122162,829
1711018154630,599616086091799111,831
1711018154638,599616086099476060,833
1711018154646,599616086107153009,838
1711018154653,599616086114829958,848
1711018154661,599616086122506907,853
1711018154669,599616086130183856,858
1711018154676,599616086137860805,868
1711018154684,599616086145537754,880
1711018154692,599616086153214703,885
1711018154699,599616086160891652,882
1711018154707,599616086168568601,877
1711018154715,599616086176245550,870
1711018154721,599616086183922499,855
1711018154729,599616086191599448,831
1711018154737,599616086199276397,794
1711018154745,599616086206953346,758
1711018154753,599616086214630295,726
1711018154761,599616086222307244,704
1711018154769,599616086229984193,687
1711018154776,599616086237661142,677
1711018154784,599616086245338091,679
1711018154792,599616086253015040,696
1711018154799,599616086260691989,711
1711018154807,599616086268368938,716
1711018154815,599616086276045887,716
1711018154822,599616086283722836,718
1711018154830,599616086291399785,728
1711018154838,599616086299076750,738
1711018154845,599616086306753699,743
1711018154853,599616086314430648,740
1711018154861,599616086322107597,740
1711018154868,599616086329784546,745
1711018154876,599616086337461495,753
1711018154884,599616086345138444,753
1711018154891,599616086352815393,748
1711018154899,599616086360492342,748
1711018154907,599616086368169291,755
1711018154913,599616086375846240,758
1711018154921,599616086383523189,750
1711018154929,599616086391200138,738
1711018154937,599616086398877087,736
1711018154945,599616086406554036,745
1711018154953,599616086414230985,743
1711018154960,599616086421907934,736
1711018154968,599616086429584883,743
1711018154976,599616086437261832,750
1711018154983,599616086444938781,750
1711018154991,599616086452615730,748
1711018154999,599616086460292679,740
1711018155007,599616086467969628,743
1711018155014,599616086475646577,750
1711018155022,599616086483323526,750
1711018155030,599616086491000475,745
1711018155037,599616086498677424,748
1711018155045,599616086506354373,750
1711018155053,599616086514031322,748
1711018155060,599616086521708271,736
1711018155068,599616086529385220,731
1711018155076,599616086537062169,738
1711018155083,599616086544739118,753
1711018155091,599616086552416067,762
1711018155099,599616086560093016,758
1711018155105,599616086567769965,750
1711018155113,599616086575446914,755
1711018155121,599616086583123863,750
1711018155129,599616086590800812,736
1711018155137,599616086598477761,731
1711018155145,599616086606154710,738
1711018155152,599616086613831659,740
1711018155160,599616086621508608,743
1711018155168,599616086629185557,745
1711018155175,599616086636862506,738
1711018155183,599616086644539455,736
1711018155191,599616086652216404,762
1711018155198,599616086659893353,897
1711018155206,599616086667570302,1190
1711018155214,599616086675247251,1364
1711018155221,599616086682924200,1002
1711018155229,599616086690601149,405
1711018155237,599616086698278098,317
1711018155245,599616086705955047,626
1711018155252,599616086713631996,731
1711018155260,599616086721308945,677
1711018155268,599616086728985894,699
1711018155275,599616086736662843,723
1711018155283,599616086744339792,706
1711018155291,599616086752016741,714
1711018155297,599616086759693690,736
1711018155305,599616086767370639,733
1711018155313,599616086775047588,728
1711018155321,599616086782724537,728
1711018155329,599616086790401486,736
1711018155337,599616086798078435,753
1711018155344,599616086805755384,755
1711018155352,599616086813432333,748
1711018155360,599616086821109282,755
1711018155367,599616086828786231,765
1711018155375,599616086836463180,767
1711018155383,599616086844140129,775
1711018155390,599616086851817078,789
1711018155398,599616086859474027,797
1711018155406,599616086867151254,802
1711018155413,599616086874828481,811
1711018155421,599616086882505708,819
1711018155429,599616086890182935,819
1711018155436,599616086897860162,826
1711018155444,599616086905537389,833
1711018155452,599616086913214616,838
1711018155459,599616086920891843,831
1711018155467,599616086928569070,811
1711018155475,599616086936246297,797
1711018155481,599616086943923524,784
1711018155489,599616086951600751,750
1711018155497,599616086959277978,701
1711018155505,599616086966955205,662
1711018155513,599616086974632432,640
1711018155521,599616086982309659,630
1711018155529,599616086989986886,633
1711018155536,599616086997664113,635
1711018155544,599616087005341340,633
1711018155552,599616087013018567,643
1711018155559,599616087020695794,657
1711018155567,599616087028373021,662
1711018155575,599616087036050248,667
1711018155582,599616087043727475,674
1711018155590,599616087051404702,684
1711018155598,599616087059081929,692
1711018155605,599616087066759156,689
1711018155613,599616087074436383,689
1711018155621,599616087082113610,694
1711018155628,599616087089790837,696
1711018155636,599616087097468064,694
1711018155644,599616087105145291,689
1711018155651,599616087112822518,692
1711018155659,599616087120499745,696
1711018155667,599616087128176972,692
1711018155673,599616087135854199,684
1711018155681,599616087143531426,687
1711018155689,599616087151208653,689
1711018155697,599616087158885880,692
1711018155705,599616087166563107,696
1711018155713,599616087174240334,701
1711018155720,599616087181917561,701
1711018155728,599616087189594788,696
1711018155736,599616087197272015,694
1711018155744,599616087204949242,692
1711018155751,599616087212626469,689
1711018155759,599616087220303696,696
1711018155767,599616087227980923,696
1711018155774,599616087235658150,692
1711018155782,599616087243335377,687
1711018155790,599616087251012604,689
1711018155797,599616087258689831,692
1711018155805,599616087266367058,696
1711018155813,599616087274044285,696
1711018155820,599616087281721512,692
1711018155828,599616087289398739,692
1711018155836,599616087297075966,699
1711018155843,599616087304753193,699
1711018155851,599616087312430420,692
1711018155859,599616087320107647,694
1711018155865,599616087327784874,714
1711018155873,599616087335462101,723
1711018155881,599616087343139328,711
1711018155889,599616087350816555,701
1711018155897,599616087358493782,701
1711018155905,599616087366171009,692
1711018155912,599616087373848236,682
1711018155920,599616087381525463,682
1711018155928,599616087389202690,682
1711018155935,599616087396879917,687
1711018155943,599616087404557144,696
1711018155951,599616087412234371,694
1711018155958,599616087419926712,687
1711018155966,599616087427603730,704
1711018155974,599616087435280748,819
1711018155982,599616087442957766,1095
1711018155989,599616087450634784,1310
1711018155997,599616087458311802,1029
1711018156005,599616087465988820,425
1711018156012,599616087473665838,251
1711018156020,599616087481342856,533
1711018156028,599616087489019874,674
1711018156035,599616087496696892,630
1711018156043,599616087504373910,643
1711018156051,599616087512050928,672
1711018156057,599616087519727946,662
1711018156065,599616087527404964,667
1711018156073,599616087535081982,684
1711018156081,599616087542759000,684
1711018156089,599616087550436018,677
1711018156097,599616087558113036,679
1711018156104,599616087565790054,687
1711018156112,599616087573467072,694
1711018156120,599616087581144090,694
1711018156127,599616087588821108,696
1711018156135,599616087596498126,706
1711018156143,599616087604175144,714
1711018156150,599616087611852162,721
1711018156158,599616087619529180,726
1711018156166,599616087627206198,726
1711018156173,599616087634883216,736
1711018156181,599616087642560234,750
1711018156189,599616087650237252,750
1711018156196,599616087657914270,753
1711018156204,599616087665591288,762
1711018156212,599616087673268306,772
1711018156219,599616087680945324,775
1711018156227,599616087688622342,777
1711018156235,599616087696299360,777
1711018156243,599616087703976378,770
1711018156249,599616087711653396,758
1711018156257,599616087719330414,738
1711018156265,599616087727007432,706
1711018156273,599616087734684450,667
1711018156281,599616087742361468,633
1711018156289,599616087750038486,601
1711018156296,599616087757715504,586
1711018156304,599616087765392522,586
1711018156312,599616087773069540,591
1711018156319,599616087780746558,599
1711018156327,599616087788423576,608
1711018156335,599616087796100594,613
1711018156342,599616087803777612,613
1711018156350,599616087811454630,621
1711018156358,599616087819131648,633
1711018156365,599616087826808666,635
1711018156373,599616087834485684,633
1711018156381,599616087842162702,635
1711018156388,599616087849839720,643
1711018156396,599616087857516738,643
1711018156404,599616087865193756,640
1711018156411,599616087872870774,640
1711018156419,599616087880547792,648
1711018156427,599616087888224810,652
1711018156433,599616087895901828,652
1711018156441,599616087903578846,652
1711018156449,599616087911255864,657
1711018156457,599616087918932882,660
1711018156465,599616087926609900,657
1711018156473,599616087934286918,652
1711018156481,599616087941963936,650
1711018156488,599616087949640954,652
1711018156496,599616087957317972,655
1711018156504,599616087964994990,652
1711018156511,599616087972672008,650
1711018156519,599616087980379187,648
1711018156527,599616087988055787,650
1711018156534,599616087995732387,650
1711018156542,599616088003408987,650
1711018156550,599616088011085587,655
1711018156557,599616088018762187,655
1711018156565,599616088026438787,652
1711018156573,599616088034115387,652
1711018156580,599616088041791987,650
1711018156588,599616088049468587,645
1711018156596,599616088057145187,645
1711018156603,599616088064821787,648
1711018156611,599616088072498387,643
1711018156619,599616088080174987,635
1711018156625,599616088087851587,635
1711018156633,599616088095528187,638
1711018156641,599616088103204787,640
1711018156649,599616088110881387,650
1711018156657,599616088118557987,660
1711018156665,599616088126234587,657
1711018156672,599616088133911187,655
1711018156680,599616088141587787,655
1711018156688,599616088149264387,648
1711018156695,599616088156940987,635
1711018156703,599616088164617587,635
1711018156711,599616088172294187,643
1711018156719,599616088179970787,640
1711018156726,599616088187647387,633
1711018156734,599616088195323987,633
1711018156742,599616088203000587,640
1711018156749,599616088210677187,643
1711018156757,599616088218353787,687
1711018156765,599616088226030387,885
1711018156772,599616088233706987,1193
1711018156780,599616088241383587,1176
1711018156788,599616088249060187,635
1711018156795,599616088256736787,198
1711018156803,599616088264413387,342
1711018156811,599616088272089987,613
1711018156817,599616088279766587,618
1711018156825,599616088287443187,574
1711018156833,599616088295119787,611
1711018156841,599616088302796387,626
1711018156849,599616088310472987,613
1711018156857,599616088318149587,623
1711018156864,599616088325826187,630
1711018156872,599616088333502787,628
1711018156880,599616088341179387,633
1711018156887,599616088348855987,633
1711018156895,599616088356532587,628
1711018156903,599616088364209187,633
1711018156910,599616088371885787,648
1711018156918,599616088379562387,655
1711018156926,599616088387238987,655
1711018156933,599616088394915587,655
1711018156941,599616088402592187,665
1711018156949,599616088410268787,677
1711018156956,599616088417945387,682
1711018156964,599616088425621987,682
1711018156972,599616088433298587,689
1711018156980,599616088440975187,701
1711018156987,599616088448651787,711
1711018156995,599616088456328387,709
1711018157003,599616088464004987,706
1711018157009,599616088471681587,716
1711018157017,599616088479358187,718
1711018157025,599616088487034787,711
1711018157033,599616088494711387,699
1711018157041,599616088502387987,687
1711018157049,599616088510064587,660
1711018157056,599616088517741187,621
1711018157064,599616088525417787,574
1711018157072,599616088533094387,542
1711018157079,599616088540740954,523
1711018157087,599616088548417972,511
1711018157095,599616088556094990,513
1711018157102,599616088563772008,523
1711018157110,599616088571449026,523
1711018157118,599616088579126044,528
1711018157125,599616088586803062,535
1711018157133,599616088594480080,538
1711018157141,599616088602157098,547
1711018157148,599616088609834116,564
1711018157156,599616088617511134,564
1711018157164,599616088625188152,560
1711018157171,599616088632865170,567
1711018157179,599616088640542188,572
1711018157187,599616088648219206,572
1711018157193,599616088655896224,569
1711018157201,599616088663573242,574
1711018157209,599616088671250260,574
1711018157217,599616088678927278,574
1711018157225,599616088686604296,577
1711018157233,599616088694281314,579
1711018157241,599616088701958332,579
1711018157248,599616088709635350,577
1711018157256,599616088717312368,569
1711018157264,599616088724989386,564
1711018157271,599616088732666404,562
1711018157279,599616088740343422,560
1711018157287,599616088748020440,562
1711018157294,599616088755697458,560
1711018157302,599616088763374476,557
1711018157310,599616088771051494,560
1711018157317,599616088778728512,562
1711018157325,599616088786405530,560
1711018157333,599616088794082548,560
1711018157340,599616088801759566,562
1711018157348,599616088809436584,560
1711018157356,599616088817113602,555
1711018157363,599616088824790620,555
1711018157371,599616088832467638,560
1711018157379,599616088840144656,562
1711018157385,599616088847821674,562
1711018157393,599616088855498692,560
1711018157401,599616088863175710,557
1711018157409,599616088870852728,552
1711018157417,599616088878529746,552
1711018157425,599616088886206764,567
1711018157432,599616088893883782,572
1711018157440,599616088901560800,562
1711018157448,599616088909237818,564
1711018157455,599616088916914836,572
1711018157463,599616088924591854,562
1711018157471,599616088932268872,550
1711018157478,599616088939945890,550
1711018157486,599616088947622908,550
1711018157494,599616088955299926,550
1711018157502,599616088962976944,552
1711018157509,599616088970653962,547
1711018157517,599616088978330980,545
1711018157525,599616088986007998,545
1711018157532,599616088993685016,572
1711018157540,599616089001362034,755
1711018157548,599616089009039052,1080
1711018157555,599616089016716070,1107
1711018157563,599616089024393088,579
1711018157571,599616089032070106,112
1711018157577,599616089039747124,212
1711018157585,599616089047424142,467
1711018157593,599616089055101160,508
1711018157601,599616089062778178,498
1711018157609,599616089070455196,523
1711018157617,599616089078132214,520
1711018157624,599616089085809232,518
1711018157632,599616089093486250,528
1711018157640,599616089101163333,535
1711018157647,599616089108840351,538
1711018157655,599616089116517369,540
1711018157663,599616089124194387,542
1711018157670,599616089131871405,547
1711018157678,599616089139548423,557
1711018157686,599616089147225441,560
1711018157693,599616089154902459,564
1711018157701,599616089162579477,569
1711018157709,599616089170256495,572
1711018157716,599616089177933513,577
1711018157724,599616089185610531,591
1711018157732,599616089193287549,596
1711018157740,599616089200964567,594
1711018157747,599616089208641585,608
1711018157755,599616089216318603,628
1711018157763,599616089223995621,638
1711018157769,599616089231672639,638
1711018157777,599616089239349657,648
1711018157785,599616089247026675,660
1711018157793,599616089254703693,657
1711018157801,599616089262380711,645
1711018157809,599616089270057729,635
1711018157816,599616089277734747,623
1711018157824,599616089285411765,601
1711018157832,599616089293088783,562
1711018157839,599616089300765801,518
1711018157847,599616089308442819,481
1711018157855,599616089316119837,462
1711018157862,599616089323796855,459
1711018157870,599616089331473873,462
1711018157878,599616089339150891,462
1711018157885,599616089346827909,474
1711018157893,599616089354504927,486
1711018157901,599616089362181945,489
1711018157908,599616089369858963,496
1711018157916,599616089377535981,508
1711018157924,599616089385212999,515
1711018157931,599616089392890017,528
1711018157939,599616089400567035,528
1711018157947,599616089408244053,520
1711018157953,599616089415921071,528
1711018157961,599616089423598089,540
1711018157969,599616089431275107,538
1711018157977,599616089438952125,535
1711018157985,599616089446629143,542
1711018157993,599616089454306161,545
1711018158001,599616089461983179,538
1711018158008,599616089469660197,533
1711018158016,599616089477337215,530
1711018158024,599616089485014233,538
1711018158031,599616089492691251,547
1711018158039,599616089500368269,547
1711018158047,599616089508045287,545
1711018158054,599616089515722305,545
1711018158062,599616089523399323,547
1711018158070,599616089531076341,547
1711018158077,599616089538753359,545
1711018158085,599616089546430377,542
1711018158093,599616089554107395,540
1711018158100,599616089561784413,540
1711018158108,599616089569461431,542
1711018158116,599616089577138449,542
1711018158123,599616089584815467,542
1711018158131,599616089592492485,547
1711018158139,599616089600169503,555
1711018158145,599616089607846521,552
1711018158153,599616089615523539,550
1711018158161,599616089623200557,552
1711018158169,599616089630877575,555
1711018158177,599616089638554593,550
1711018158185,599616089646231611,545
1711018158192,599616089653908629,538
1711018158200,599616089661585712,540
1711018158208,599616089669262730,560
1711018158215,599616089676939748,564
1711018158223,599616089684616766,552
1711018158231,599616089692293784,555
1711018158239,599616089699970802,560
1711018158246,599616089707647820,550
1711018158254,599616089715324838,542
1711018158262,599616089723001856,547
1711018158269,599616089730678874,552
1711018158277,599616089738355892,550
1711018158285,599616089746032910,547
1711018158292,599616089753709928,542
1711018158300,599616089761386946,538
1711018158308,599616089769063964,550
1711018158315,599616089776740982,648
1711018158323,599616089784418000,926
1711018158331,599616089792095018,1183
1711018158337,599616089799772036,939
1711018158345,599616089807449054,305
1711018158353,599616089815126072,73
1711018158361,599616089822803090,352
1711018158369,599616089830480108,533
1711018158377,599616089838157126,491
1711018158384,599616089845834144,491
1711018158392,599616089853511162,528
1711018158400,599616089861188180,520
1711018158407,599616089868865198,520
1711018158415,599616089876542216,538
1711018158423,599616089884219234,535
1711018158430,599616089891896252,535
1711018158438,599616089899573270,545
1711018158446,599616089907250288,547
1711018158453,599616089914927306,547
1711018158461,599616089922604324,555
1711018158469,599616089930281342,564
1711018158477,599616089937958360,569
1711018158484,599616089945635378,579
1711018158492,599616089953312396,586
1711018158500,599616089960989414,594
1711018158507,599616089968666432,606
1711018158515,599616089976343450,611
1711018158523,599616089984020468,613
1711018158529,599616089991697486,623
1711018158537,599616089999374504,630
1711018158545,599616090007051522,635
1711018158553,599616090014728540,650
1711018158561,599616090022405558,657
1711018158569,599616090030082576,655
1711018158576,599616090037759594,650
1711018158584,599616090045436612,645
1711018158592,599616090053113630,635
1711018158599,599616090060790648,616
1711018158607,599616090068467666,577
1711018158615,599616090076144684,530
1711018158622,599616090083821702,491
1711018158630,599616090091498720,464
1711018158638,599616090099175738,447
1711018158645,599616090106852756,442
1711018158653,599616090114529774,442
1711018158661,599616090122206792,454
1711018158668,599616090129883810,469
1711018158676,599616090137560828,474
1711018158684,599616090145237846,479
1711018158691,599616090152914864,489
1711018158699,599616090160591882,498
1711018158707,599616090168268900,506
1711018158713,599616090175945918,503
1711018158721,599616090183622936,498
1711018158729,599616090191299954,506
1711018158737,599616090198976972,508
1711018158745,599616090206653990,511
1711018158753,599616090214331008,515
1711018158761,599616090222008091,515
1711018158768,599616090229685109,515
1711018158776,599616090237362127,518
1711018158784,599616090245039145,520
1711018158791,599616090252716163,523
1711018158799,599616090260393181,528
1711018158807,599616090268070199,528
1711018158814,599616090275747217,520
1711018158822,599616090283424235,513
1711018158830,599616090291101253,518
1711018158837,599616090298778271,520
1711018158845,599616090306455289,518
1711018158853,599616090314132307,518
1711018158860,599616090321809325,518
1711018158868,599616090329486343,518
1711018158876,599616090337163361,515
1711018158883,599616090344840379,508
1711018158891,599616090352517397,513
1711018158899,599616090360194415,520
1711018158905,599616090367871433,518
1711018158913,599616090375548451,518
1711018158921,599616090383225469,520
1711018158929,599616090390902487,515
1711018158937,599616090398579505,515
1711018158945,599616090406256523,525
1711018158952,599616090413933541,523
1711018158960,599616090421610559,513
1711018158968,599616090429287577,513
1711018158976,599616090436964595,518
1711018158983,599616090444641613,518
1711018158991,599616090452318631,513
1711018158999,599616090459995649,508
1711018159006,599616090467672667,508
1711018159014,599616090475349685,511
1711018159022,599616090483026703,525
1711018159029,599616090490703721,540
1711018159037,599616090498380739,540
1711018159045,599616090506057757,533
1711018159052,599616090513734775,530
1711018159060,599616090521411793,523
1711018159068,599616090529088811,513
1711018159075,599616090536765829,511
1711018159083,599616090544442847,513
1711018159091,599616090552119865,508
1711018159097,599616090559796883,506
1711018159105,599616090567473901,506
1711018159113,599616090575150919,508
1711018159121,599616090582827937,506
1711018159129,599616090590504955,547
1711018159137,599616090598181973,740
1711018159144,599616090605858991,1049
1711018159152,599616090613536009,1080
1711018159160,599616090621213027,574
1711018159167,599616090628890045,85
1711018159175,599616090636567063,183
1711018159183,599616090644244081,471
1711018159190,599616090651921099,493
1711018159198,599616090659598117,440
1711018159206,599616090667275135,476
1711018159214,599616090674952153,496
1711018159221,599616090682629171,484
1711018159229,599616090690306189,489
1711018159237,599616090697983207,498
1711018159244,599616090705660225,506
1711018159252,599616090713337243,515
1711018159260,599616090721014261,520
1711018159267,599616090728691279,520
1711018159275,599616090736368297,523
1711018159283,599616090744045315,528
1711018159289,599616090751722333,533
1711018159297,599616090759399351,540
1711018159305,599616090767076369,550
1711018159313,599616090774753387,550
1711018159321,599616090782425430,555
1711018159329,599616090790102518,567
1711018159336,599616090797779606,577
1711018159344,599616090805456694,579
1711018159352,599616090813133782,582
1711018159359,599616090820810870,596
1711018159367,599616090828487958,608
1711018159375,599616090836165046,606
1711018159382,599616090843842134,608
1711018159390,599616090851519222,613
1711018159398,599616090859196310,611
1711018159405,599616090866873398,596
1711018159413,599616090874550486,572
1711018159421,599616090882227574,545
1711018159428,599616090889904662,515
1711018159436,599616090897581750,479
1711018159444,599616090905258838,440
1711018159451,599616090912935926,410
1711018159459,599616090920613014,403
1711018159467,599616090928290102,405
1711018159475,599616090935967190,413
1711018159481,599616090943644278,423
1711018159489,599616090951321366,427
1711018159497,599616090958998454,437
1711018159505,599616090966675542,445
1711018159513,599616090974352630,449
1711018159521,599616090982029718,459
1711018159528,599616090989706806,467
1711018159536,599616090997383894,471
1711018159544,599616091005060982,479
1711018159551,599616091012738070,474
1711018159559,599616091020415158,469
1711018159567,599616091028092246,471
1711018159574,599616091035769334,476
1711018159582,599616091043446422,479
1711018159590,599616091051123510,479
1711018159597,599616091058800598,479
1711018159605,599616091066477686,481
1711018159613,599616091074154774,479
1711018159620,599616091081831862,476
1711018159628,599616091089508950,479
1711018159636,599616091097186038,479
1711018159643,599616091104863126,481
1711018159651,599616091112540214,484
1711018159659,599616091120217302,484
1711018159665,599616091127894390,476
1711018159673,599616091135571478,471
1711018159681,599616091143248566,476
1711018159689,599616091150925654,481
1711018159697,599616091158602742,479
1711018159705,599616091166279830,476
1711018159713,599616091173956918,481
1711018159720,599616091181634006,484
1711018159728,599616091189311094,479
1711018159736,599616091196988182,474
1711018159743,599616091204665270,474
1711018159751,599616091212342358,479
1711018159759,599616091220019446,481
1711018159766,599616091227696534,481
1711018159774,599616091235373622,476
1711018159782,599616091243050710,474
1711018159789,599616091250727798,479
1711018159797,599616091258404886,481
1711018159805,599616091266081974,476
1711018159812,599616091273759062,474
1711018159820,599616091281436150,474
1711018159828,599616091289113238,481
1711018159835,599616091296790326,481
1711018159843,599616091304467414,476
1711018159851,599616091312144502,474
1711018159857,599616091319821590,471
1711018159865,599616091327498678,469
1711018159873,599616091335175766,471
1711018159881,599616091342862905,486
1711018159889,599616091350539854,493
1711018159897,599616091358216803,489
1711018159904,599616091365893752,486
1711018159912,599616091373570701,489
1711018159920,599616091381247650,479
1711018159927,599616091388924599,474
1711018159935,599616091396601548,476
1711018159943,599616091404278497,476
1711018159951,599616091411955446,471
1711018159958,599616091419632395,471
1711018159966,599616091427309344,474
1711018159974,599616091434986293,479
1711018159981,599616091442663242,506
1711018159989,599616091450340191,652
1711018159997,599616091458017140,946
1711018160004,599616091465694089,1056
1711018160012,599616091473371038,633
1711018160020,599616091481047987,97
1711018160027,599616091488724936,97
1711018160035,599616091496401885,393
1711018160043,599616091504078834,457
1711018160049,599616091511755783,405
1711018160057,599616091519432732,437
1711018160065,599616091527109681,462
1711018160073,599616091534786630,447
1711018160081,599616091542463579,449
1711018160089,599616091550140528,464
1711018160096,599616091557817477,469
1711018160104,599616091565494426,471
1711018160112,599616091573171375,474
1711018160119,599616091580848324,476
1711018160127,599616091588525273,484
1711018160135,599616091596202222,489
1711018160142,599616091603879171,493
1711018160150,599616091611556120,498
1711018160158,599616091619233069,511
1711018160165,599616091626910018,518
1711018160173,599616091634586967,520
1711018160181,599616091642263916,533
1711018160188,599616091649940865,540
1711018160196,599616091657617814,540
1711018160204,599616091665294763,555
1711018160212,599616091672971712,567
1711018160219,599616091680648661,569
1711018160227,599616091688325610,574
1711018160235,599616091696002559,579
1711018160241,599616091703679508,582
1711018160249,599616091711356457,579
1711018160257,599616091719033406,572
1711018160265,599616091726710355,555
1711018160273,599616091734387304,530
1711018160281,599616091742064253,501
1711018160288,599616091749741202,462
1711018160296,599616091757418151,425
1711018160304,599616091765095100,398
1711018160311,599616091772772049,383
1711018160319,599616091780448998,379
1711018160327,599616091788125947,379
1711018160334,599616091795802896,379
1711018160342,599616091803479845,388
1711018160350,599616091811156794,403
1711018160357,599616091818833743,410
1711018160365,599616091826510692,415
1711018160373,599616091834187641,425
1711018160380,599616091841864590,430
1711018160388,599616091849541539,430
1711018160396,599616091857218488,435
1711018160403,599616091864895437,445
1711018160411,599616091872572386,449
1711018160419,599616091880249335,449
1711018160425,599616091887926284,447
1711018160433,599616091895603233,447
1711018160441,599616091903280198,452
1711018160449,599616091910957147,457
1711018160457,599616091918634096,452
1711018160465,599616091926311045,447
1711018160473,599616091933987994,452
1711018160480,599616091941664943,454
1711018160488,599616091949341892,445
1711018160496,599616091957018841,440
1711018160503,599616091964695790,449
1711018160511,599616091972372739,452
1711018160519,599616091980049688,447
1711018160526,599616091987726637,442
1711018160534,599616091995403586,440
1711018160542,599616092003080535,445
1711018160549,599616092010757484,449
1711018160557,599616092018434433,440
1711018160565,599616092026111382,425
1711018160572,599616092033788331,430
1711018160580,599616092041465280,437
1711018160588,599616092049142229,435
1711018160595,599616092056819178,435
1711018160603,599616092064496127,435
1711018160611,599616092072173076,435
1711018160617,599616092079850025,440
1711018160625,599616092087526974,442
1711018160633,599616092095203923,440
1711018160641,599616092102880872,440
1711018160649,599616092110557821,440
1711018160657,599616092118234770,437
1711018160664,599616092125911719,432
1711018160672,599616092133588668,432
1711018160680,599616092141265617,432
1711018160687,599616092148942566,427
1711018160695,599616092156619515,423
1711018160703,599616092164296464,420
1711018160711,599616092171973413,423
1711018160718,599616092179650362,430
1711018160726,599616092187327311,430
1711018160734,599616092195004260,427
1711018160741,599616092202681209,430
1711018160749,599616092210358158,432
1711018160757,599616092218035107,430
1711018160764,599616092225712056,425
1711018160772,599616092233389005,425
1711018160780,599616092241065954,430
1711018160787,599616092248742903,437
1711018160795,599616092256419852,440
1711018160803,599616092264096801,432
1711018160809,599616092271773750,437
1711018160817,599616092279450699,437
1711018160825,599616092287127648,427
1711018160833,599616092294804597,418
1711018160841,599616092302481546,415
1711018160849,599616092310158495,415
1711018160856,599616092317835444,420
1711018160864,599616092325512393,430
1711018160872,599616092333189342,427
1711018160879,599616092340866291,425
1711018160887,599616092348543240,511
1711018160895,599616092356220189,767
1711018160902,599616092363897138,1022
1711018160910,599616092371574087,824
1711018160918,599616092379251036,224
1711018160925,599616092386927985,-31
1711018160933,599616092394604934,222
1711018160941,599616092402281883,408
1711018160949,599616092409958832,371
1711018160956,599616092417635781,369
1711018160964,599616092425312730,408
1711018160972,599616092432989679,401
1711018160979,599616092440666628,401
1711018160987,599616092448343577,420
1711018160995,599616092456020526,425
1711018161001,599616092463697491,425
1711018161009,599616092471374440,425
1711018161017,599616092479051389,423
1711018161025,599616092486728338,423
1711018161033,599616092494405287,425
1711018161041,599616092502082236,432
1711018161048,599616092509759185,440
1711018161056,599616092517436134,445
1711018161064,599616092525113083,457
1711018161071,599616092532790032,464
1711018161079,599616092540466981,464
1711018161087,599616092548143930,467
1711018161094,599616092555820879,476
1711018161102,599616092563497828,489
1711018161110,599616092571174777,496
1711018161117,599616092578851726,498
1711018161125,599616092586528675,498
1711018161133,599616092594205624,506
1711018161140,599616092601882573,508
1711018161148,599616092609559522,508
1711018161156,599616092617236471,503
1711018161163,599616092624913420,491
1711018161171,599616092632590369,469
1711018161179,599616092640267318,445
1711018161185,599616092647944267,410
1711018161193,599616092655621216,371
1711018161201,599616092663298165,335
1711018161209,599616092670975114,310
1711018161217,599616092678652063,298
1711018161225,599616092686329012,298
1711018161233,599616092694005961,308
1711018161240,599616092701682910,317
1711018161248,599616092709359859,320
1711018161256,599616092717036808,325
1711018161263,599616092724713757,332
1711018161271,599616092732390706,337
1711018161279,599616092740067655,344
1711018161286,599616092747744604,347
1711018161294,599616092755421553,349
1711018161302,599616092763098502,352
1711018161309,599616092770775451,359
1711018161317,599616092778452400,366
1711018161325,599616092786129349,374
1711018161332,599616092793806298,376
1711018161340,599616092801483247,369
1711018161348,599616092809160196,361
1711018161355,599616092816837145,361
1711018161363,599616092824514094,369
1711018161371,599616092832191043,371
1711018161377,599616092839867992,366
1711018161385,599616092847544941,359
1711018161393,599616092855221890,359
1711018161401,599616092862898839,366
1711018161409,599616092870575788,364
1711018161417,599616092878252737,357
1711018161424,599616092885929686,359
1711018161432,599616092893606635,361
1711018161440,599616092901283584,359
1711018161448,599616092908960533,352
1711018161455,599616092916637482,352
1711018161463,599616092924314431,357
1711018161471,599616092931991380,354
1711018161478,599616092939668329,349
1711018161486,599616092947345278,349
1711018161494,599616092955022227,352
1711018161501,599616092962699176,349
1711018161509,599616092970376125,354
1711018161517,599616092978053074,361
1711018161524,599616092985730023,361
1711018161532,599616092993406972,357
1711018161540,599616093001083921,354
1711018161547,599616093008760870,359
1711018161555,599616093016437819,361
1711018161563,599616093024114784,361
1711018161569,599616093031791733,361
1711018161577,599616093039468682,364
1711018161585,599616093047145631,361
1711018161593,599616093054822580,357
1711018161601,599616093062499529,352
1711018161609,599616093070176478,354
1711018161616,599616093077853427,364
1711018161624,599616093085530376,371
1711018161632,599616093093207325,374
1711018161639,599616093100884274,376
1711018161647,599616093108561223,381
1711018161655,599616093116238172,376
1711018161662,599616093123915121,366
1711018161670,599616093131592070,359
1711018161678,599616093139269019,364
1711018161685,599616093146945968,371
1711018161693,599616093154622917,371
1711018161701,599616093162299866,369
1711018161709,599616093169976815,369
1711018161716,599616093177653764,371
1711018161724,599616093185330713,379
1711018161732,599616093193007662,457
1711018161739,599616093200684611,716
1711018161747,599616093208361560,985
1711018161755,599616093216038509,784
1711018161761,599616093223715458,176
1711018161769,599616093231392407,-78
1711018161777,599616093239069356,151
1711018161785,599616093246746305,335
1711018161793,599616093254423254,337
1711018161801,599616093262100203,347
1711018161808,599616093269777152,369
1711018161816,599616093277454101,369
1711018161824,599616093285131050,374
1711018161831,599616093292807999,383
1711018161839,599616093300484948,383
1711018161847,599616093308161897,388
1711018161854,599616093315838846,393
1711018161862,599616093323515795,396
1711018161870,599616093331192744,398
1711018161877,599616093338869693,405
