phoneTimestamp,sensorTimestamp,ecg
1710864436204,599616085231000778,37
1710864436211,599616085238665603,-153
1710864436219,599616085246330428,-691
1710864436225,599616085253995253,-800
1710864436233,599616085261660078,47
1710864436241,599616085269324903,919
1710864436249,599616085276989728,1419
1710864436257,599616085284654553,2069
1710864436265,599616085292319378,2797
1710864436272,599616085299984203,3360
1710864436280,599616085307649028,3888
1710864436288,599616085315313853,4457
1710864436295,599616085322978678,5005
1710864436303,599616085330643503,5528
1710864436311,599616085338308328,6038
1710864436318,599616085345973153,6522
1710864436326,599616085353637978,7037
1710864436334,599616085361302803,7528
1710864436341,599616085368967628,7855
1710864436349,599616085376632453,8177
1710864436357,599616085384297278,8640
1710864436364,599616085391962103,9059
1710864436372,599616085399626928,9366
1710864436380,599616085407291753,9694
1710864436387,599616085414956578,10068
1710864436395,599616085422621403,10407
1710864436403,599616085430286228,10700
1710864436409,599616085437951053,10952
1710864436417,599616085445615878,11198
1710864436425,599616085453280703,11468
1710864436433,599616085460945528,11701
1710864436441,599616085468610353,11892
1710864436449,599616085476275178,12137
1710864436456,599616085483940003,12367
1710864436464,599616085491604828,12471
1710864436472,599616085499269653,12590
1710864436479,599616085506934478,12806
1710864436487,599616085514599303,12987
1710864436495,599616085522264128,13086
1710864436502,599616085529928953,13170
1710864436510,599616085537593778,13279
1710864436518,599616085545258603,13396
1710864436525,599616085552923428,13465
1710864436533,599616085560588253,13520
1710864436541,599616085568253078,13648
1710864436548,599616085575917903,13723
1710864436556,599616085583582728,13663
1710864436564,599616085591247553,13666
1710864436571,599616085598912378,13782
1710864436579,599616085606577203,13901
1710864436587,599616085614242028,13941
1710864436593,599616085621906853,13849
1710864436601,599616085629571678,13792
1710864436609,599616085637236503,13829
1710864436617,599616085644901328,13785
1710864436625,599616085652566153,13740
1710864436633,599616085660230978,13800
1710864436640,599616085667895803,13777
1710864436648,599616085675560628,13636
1710864436656,599616085683225453,13599
1710864436663,599616085690890278,13644
1710864436671,599616085698555103,13594
1710864436679,599616085706219928,13601
1710864436686,599616085713884753,13834
1710864436694,599616085721549578,14047
1710864436702,599616085729214403,13693
1710864436709,599616085736879228,12960
1710864436717,599616085744544053,12843
1710864436725,599616085752208878,13138
1710864436732,599616085759873703,13007
1710864436740,599616085767538528,12771
1710864436748,599616085775203353,12816
1710864436755,599616085782868178,12813
1710864436763,599616085790523040,12660
1710864436771,599616085798188004,12571
1710864436777,599616085805852968,12523
1710864436785,599616085813517932,12405
1710864436793,599616085821182896,12273
1710864436801,599616085828847860,12186
1710864436809,599616085836512824,12139
1710864436817,599616085844177788,12105
1710864436824,599616085851842752,12023
1710864436832,599616085859507716,11934
1710864436840,599616085867172680,11825
1710864436847,599616085874837644,11599
1710864436855,599616085882502608,11339
1710864436863,599616085890167572,11237
1710864436870,599616085897832536,11252
1710864436878,599616085905497500,11148
1710864436886,599616085913162464,10955
1710864436893,599616085920827428,10878
1710864436901,599616085928492392,10821
1710864436909,599616085936157356,10687
1710864436916,599616085943822320,10548
1710864436924,599616085951487284,10430
1710864436932,599616085959152248,10348
1710864436939,599616085966817212,10261
1710864436947,599616085974482176,10120
1710864436955,599616085982147140,10003
1710864436961,599616085989812104,9912
1710864436969,599616085997477068,9755
1710864436977,599616086005142032,9585
1710864436985,599616086012806996,9480
1710864436993,599616086020471960,9411
1710864437001,599616086028136924,9309
1710864437008,599616086035801888,9148
1710864437016,599616086043466852,9007
1710864437024,599616086051131816,8948
1710864437031,599616086058796780,8858
1710864437039,599616086066461744,8712
1710864437047,599616086074126708,8635
1710864437054,599616086081791672,8586
1710864437062,599616086089456636,8455
1710864437070,599616086097121600,8353
1710864437077,599616086104786564,8301
1710864437085,599616086112451528,8167
1710864437093,599616086120116492,8016
1710864437100,599616086127781456,7929
1710864437108,599616086135446420,7847
1710864437116,599616086143111384,7761
1710864437123,599616086150776348,7669
1710864437131,599616086158441312,7572
1710864437139,599616086166106276,7515
1710864437145,599616086173771240,7443
1710864437153,599616086181436204,7302
1710864437161,599616086189101168,7196
1710864437169,599616086196766132,7156
1710864437177,599616086204431096,7097
1710864437185,599616086212096060,7000
1710864437192,599616086219761024,6908
1710864437200,599616086227425988,6831
1710864437208,599616086235090952,6750
1710864437215,599616086242755916,6655
1710864437223,599616086250420880,6574
1710864437231,599616086258085844,6532
1710864437238,599616086265750808,6460
1710864437246,599616086273415772,6331
1710864437254,599616086281080736,6249
1710864437261,599616086288745700,6217
1710864437269,599616086296410664,6143
1710864437277,599616086304075628,6033
1710864437284,599616086311740592,5942
1710864437292,599616086319405556,5870
1710864437300,599616086327070520,5801
1710864437307,599616086334735484,5731
1710864437315,599616086342400448,5701
1710864437323,599616086350055404,5667
1710864437329,599616086357720508,5528
1710864437337,599616086365385612,5367
1710864437345,599616086373050716,5250
1710864437353,599616086380715820,5141
1710864437361,599616086388380924,5075
1710864437369,599616086396046028,5030
1710864437376,599616086403711132,4968
1710864437384,599616086411376236,4918
1710864437392,599616086419041340,4832
1710864437399,599616086426706444,4700
1710864437407,599616086434371548,4708
1710864437415,599616086442036652,4936
1710864437422,599616086449701756,5117
1710864437430,599616086457366860,4767
1710864437438,599616086465031964,4078
1710864437445,599616086472697068,3922
1710864437453,599616086480362172,4177
1710864437461,599616086488027276,4177
1710864437468,599616086495692380,4076
1710864437476,599616086503357484,4083
1710864437484,599616086511022588,4041
1710864437491,599616086518687692,3972
1710864437499,599616086526352796,3959
1710864437507,599616086534017900,3927
1710864437513,599616086541683004,3845
1710864437521,599616086549348108,3791
1710864437529,599616086557013212,3774
1710864437537,599616086564678316,3739
1710864437545,599616086572343420,3682
1710864437553,599616086580008524,3650
1710864437560,599616086587673628,3610
1710864437568,599616086595338732,3523
1710864437576,599616086603003836,3427
1710864437583,599616086610668940,3357
1710864437591,599616086618334044,3330
1710864437598,599616086625999148,3303
1710864437606,599616086633664252,3241
1710864437614,599616086641329356,3201
1710864437621,599616086648994460,3199
1710864437629,599616086656659564,3169
1710864437637,599616086664324668,3127
1710864437644,599616086671989772,3112
1710864437652,599616086679654876,3080
1710864437660,599616086687319980,3013
1710864437667,599616086694985084,2968
1710864437675,599616086702650188,2946
1710864437683,599616086710315292,2906
1710864437689,599616086717980396,2839
1710864437697,599616086725645500,2750
1710864437705,599616086733310604,2681
1710864437713,599616086740975708,2646
1710864437721,599616086748640812,2596
1710864437729,599616086756305916,2544
1710864437736,599616086763971020,2525
1710864437744,599616086771636124,2490
1710864437752,599616086779301228,2425
1710864437759,599616086786966332,2398
1710864437767,599616086794631436,2398
1710864437775,599616086802296540,2376
1710864437782,599616086809961644,2331
1710864437790,599616086817626748,2289
1710864437798,599616086825291852,2267
1710864437805,599616086832956956,2259
1710864437813,599616086840622060,2222
1710864437821,599616086848287164,2158
1710864437828,599616086855952268,2128
1710864437836,599616086863617372,2108
1710864437844,599616086871282476,2056
1710864437851,599616086878947580,1977
1710864437859,599616086886612684,1908
1710864437867,599616086894277788,1893
1710864437873,599616086901942892,1883
1710864437881,599616086909638116,1843
1710864437889,599616086917302802,1826
1710864437897,599616086924967488,1813
1710864437905,599616086932632174,1786
1710864437913,599616086940296860,1774
1710864437920,599616086947961546,1771
1710864437928,599616086955626232,1707
1710864437936,599616086963290918,1618
1710864437943,599616086970955604,1610
1710864437951,599616086978620290,1640
1710864437959,599616086986284976,1615
1710864437966,599616086993949662,1576
1710864437974,599616087001614348,1561
1710864437982,599616087009279034,1558
1710864437989,599616087016943720,1548
1710864437997,599616087024608406,1528
1710864438005,599616087032273092,1514
1710864438012,599616087039937778,1496
1710864438020,599616087047602464,1459
1710864438028,599616087055267150,1429
1710864438035,599616087062931836,1429
1710864438043,599616087070596522,1427
1710864438051,599616087078261208,1409
1710864438057,599616087085925894,1370
1710864438065,599616087093590580,1305
1710864438073,599616087101255266,1258
1710864438081,599616087108919952,1243
1710864438089,599616087116584638,1229
1710864438097,599616087124249324,1216
1710864438104,599616087131914010,1204
1710864438112,599616087139578696,1172
1710864438120,599616087147243382,1157
1710864438127,599616087154908068,1164
1710864438135,599616087162572754,1154
1710864438143,599616087170237440,1142
1710864438150,599616087177902126,1214
1710864438158,599616087185566812,1429
1710864438166,599616087193231498,1682
1710864438173,599616087200896184,1519
1710864438181,599616087208560870,889
1710864438189,599616087216225556,646
1710864438196,599616087223890242,926
1710864438204,599616087231554928,1008
1710864438212,599616087239219614,919
1710864438219,599616087246884300,951
1710864438227,599616087254548986,951
1710864438235,599616087262213672,874
1710864438241,599616087269878358,847
1710864438249,599616087277543044,849
1710864438257,599616087285207730,820
1710864438265,599616087292872416,805
1710864438273,599616087300537102,825
1710864438281,599616087308201788,830
1710864438288,599616087315866474,810
1710864438296,599616087323531160,792
1710864438304,599616087331195846,780
1710864438311,599616087338860532,750
1710864438319,599616087346525218,723
1710864438327,599616087354189904,731
1710864438334,599616087361854590,753
1710864438342,599616087369519276,755
1710864438350,599616087377183962,740
1710864438357,599616087384848648,711
1710864438365,599616087392513334,686
1710864438373,599616087400178020,701
1710864438380,599616087407842706,716
1710864438388,599616087415507392,713
1710864438396,599616087423172078,721
1710864438403,599616087430836764,728
1710864438411,599616087438501450,713
1710864438419,599616087446166136,708
1710864438425,599616087453830822,706
1710864438433,599616087461495508,669
1710864438441,599616087469130118,624
1710864438449,599616087476795222,607
1710864438457,599616087484460326,597
1710864438465,599616087492125430,569
1710864438472,599616087499790534,535
1710864438480,599616087507455638,512
1710864438488,599616087515120742,512
1710864438495,599616087522785846,498
1710864438503,599616087530450950,441
1710864438511,599616087538116054,423
1710864438518,599616087545781158,451
1710864438526,599616087553446262,441
1710864438534,599616087561111366,413
1710864438541,599616087568776470,431
1710864438549,599616087576441574,441
1710864438557,599616087584106678,394
1710864438564,599616087591771782,354
1710864438572,599616087599436886,361
1710864438580,599616087607101990,371
1710864438587,599616087614767094,369
1710864438595,599616087622432198,364
1710864438603,599616087630097302,379
1710864438609,599616087637762406,391
1710864438617,599616087645427510,374
1710864438625,599616087653092614,351
1710864438633,599616087660757718,376
1710864438641,599616087668422822,406
1710864438649,599616087676087926,396
1710864438656,599616087683753030,376
1710864438664,599616087691418134,374
1710864438672,599616087699083238,381
1710864438679,599616087706748342,379
1710864438687,599616087714413446,356
1710864438695,599616087722078550,337
1710864438702,599616087729743654,334
1710864438710,599616087737408758,314
1710864438718,599616087745073862,297
1710864438725,599616087752738966,312
1710864438733,599616087760404070,329
1710864438741,599616087768069174,319
1710864438748,599616087775734278,307
1710864438756,599616087783399382,297
1710864438764,599616087791064486,284
1710864438771,599616087798729590,284
1710864438779,599616087806394694,297
1710864438787,599616087814059798,314
1710864438793,599616087821724902,304
1710864438801,599616087829390006,257
1710864438809,599616087837055110,245
1710864438817,599616087844720214,287
1710864438825,599616087852385318,302
1710864438833,599616087860050422,270
1710864438840,599616087867715526,235
1710864438848,599616087875380630,200
1710864438856,599616087883045734,168
1710864438863,599616087890710838,109
1710864438871,599616087898375942,47
1710864438879,599616087906041046,61
1710864438886,599616087913706150,79
1710864438894,599616087921371254,47
1710864438902,599616087929036358,66
1710864438909,599616087936701462,223
1710864438917,599616087944366566,505
1710864438925,599616087952031670,671
1710864438932,599616087959696774,275
1710864438940,599616087967361878,-324
1710864438948,599616087975026982,-307
1710864438955,599616087982692086,4
1710864438963,599616087990357190,37
1710864438971,599616087998022294,27
1710864438977,599616088005687398,99
1710864438985,599616088013352502,91
1710864438993,599616088021017606,76
1710864439001,599616088028682734,109
1710864439009,599616088036347838,109
1710864439017,599616088044012942,99
1710864439024,599616088051678046,121
1710864439032,599616088059343150,138
1710864439040,599616088067008254,133
1710864439047,599616088074673358,123
1710864439055,599616088082338462,121
1710864439063,599616088090003566,128
1710864439070,599616088097668670,91
1710864439078,599616088105333774,47
1710864439085,599616088112998878,86
1710864439093,599616088120663982,141
1710864439101,599616088128329086,141
1710864439108,599616088135994190,161
1710864439116,599616088143659294,208
1710864439124,599616088151324398,213
1710864439131,599616088158989502,200
1710864439139,599616088166654606,225
1710864439147,599616088174319710,252
1710864439153,599616088181984814,257
1710864439161,599616088189649918,252
1710864439169,599616088197315022,250
1710864439177,599616088204980126,250
1710864439185,599616088212645230,230
1710864439193,599616088220310334,195
1710864439200,599616088227975438,175
1710864439208,599616088235640542,166
1710864439216,599616088243305646,136
1710864439223,599616088250970750,109
1710864439231,599616088258635854,111
1710864439239,599616088266300958,106
1710864439246,599616088273966062,59
1710864439254,599616088281631166,-14
1710864439262,599616088289296270,-49
1710864439269,599616088296961374,-37
1710864439277,599616088304626478,-34
1710864439285,599616088312291582,-59
1710864439292,599616088319956686,-86
1710864439300,599616088327621790,-118
1710864439308,599616088335286894,-156
1710864439315,599616088342951998,-185
1710864439323,599616088350617102,-178
1710864439331,599616088358282206,-153
1710864439337,599616088365947310,-168
1710864439345,599616088373612414,-193
1710864439353,599616088381277518,-185
1710864439361,599616088388942622,-195
1710864439369,599616088396607726,-252
1710864439377,599616088404272830,-280
1710864439384,599616088411937934,-237
1710864439392,599616088419603038,-223
1710864439400,599616088427268142,-250
1710864439407,599616088434933246,-240
1710864439415,599616088442598350,-200
1710864439423,599616088450263454,-193
1710864439430,599616088457928558,-213
1710864439438,599616088465593662,-215
1710864439446,599616088473258766,-203
1710864439453,599616088480923870,-190
1710864439461,599616088488588974,-180
1710864439469,599616088496254078,-195
1710864439476,599616088503919182,-213
1710864439484,599616088511584286,-227
1710864439492,599616088519249390,-267
1710864439499,599616088526914494,-277
1710864439507,599616088534579598,-237
1710864439515,599616088542244702,-218
1710864439521,599616088549909806,-220
1710864439529,599616088557574910,-210
1710864439537,599616088565240014,-242
1710864439545,599616088572905118,-302
1710864439553,599616088580570222,-299
1710864439561,599616088588235352,-255
1710864439568,599616088595900456,-237
1710864439576,599616088603565560,-242
1710864439584,599616088611230664,-250
1710864439591,599616088618895768,-237
1710864439599,599616088626560872,-213
1710864439607,599616088634225976,-208
1710864439614,599616088641891080,-96
1710864439622,599616088649556184,240
1710864439630,599616088657221288,361
1710864439637,599616088664886392,-225
1710864439645,599616088672551496,-815
1710864439653,599616088680216600,-624
1710864439660,599616088687881704,-304
1710864439668,599616088695546808,-351
1710864439676,599616088703211912,-344
1710864439683,599616088710877016,-225
1710864439691,599616088718542120,-213
1710864439699,599616088726207224,-225
1710864439705,599616088733872328,-180
1710864439713,599616088741537432,-158
1710864439721,599616088749202536,-168
1710864439729,599616088756867640,-158
1710864439737,599616088764532744,-123
1710864439745,599616088772197848,-99
1710864439752,599616088779862952,-86
1710864439760,599616088787528056,-84
1710864439768,599616088795193160,-79
1710864439775,599616088802858264,-49
1710864439783,599616088810523368,-29
1710864439791,599616088818188472,-44
1710864439798,599616088825853576,-29
1710864439806,599616088833518680,12
1710864439814,599616088841183784,4
1710864439821,599616088848848888,-34
1710864439829,599616088856513992,-19
1710864439837,599616088864179096,39
1710864439844,599616088871844200,61
1710864439852,599616088879509304,49
1710864439860,599616088887174408,44
1710864439867,599616088894839512,7
1710864439875,599616088902504616,-61
1710864439883,599616088910169720,-81
1710864439889,599616088917834824,-61
1710864439897,599616088925499928,-79
1710864439905,599616088933165032,-131
1710864439913,599616088940830136,-156
1710864439921,599616088948495240,-143
1710864439929,599616088956160344,-131
1710864439936,599616088963825448,-133
1710864439944,599616088971490552,-148
1710864439952,599616088979155656,-153
1710864439959,599616088986820760,-153
1710864439967,599616088994485864,-205
1710864439975,599616089002150968,-270
1710864439982,599616089009816072,-242
1710864439990,599616089017481176,-205
1710864439998,599616089025146280,-232
1710864440005,599616089032811384,-235
1710864440013,599616089040476488,-188
1710864440021,599616089048141592,-166
1710864440028,599616089055806696,-185
1710864440036,599616089063471800,-208
1710864440044,599616089071136904,-208
1710864440051,599616089078802008,-188
1710864440059,599616089086467112,-173
1710864440067,599616089094132216,-163
1710864440073,599616089101797320,-146
1710864440081,599616089109462424,-136
1710864440089,599616089117127528,-153
1710864440097,599616089124792632,-158
1710864440105,599616089132457736,-123
1710864440113,599616089140122840,-109
1710864440120,599616089147787968,-138
1710864440128,599616089155453072,-161
1710864440136,599616089163118176,-168
1710864440143,599616089170783280,-227
1710864440151,599616089178448384,-307
1710864440159,599616089186113488,-302
1710864440166,599616089193778592,-252
1710864440174,599616089201443696,-265
1710864440182,599616089209108800,-292
1710864440189,599616089216773904,-270
1710864440197,599616089224439008,-227
1710864440205,599616089232104112,-223
1710864440212,599616089239769216,-247
1710864440220,599616089247434320,-252
1710864440228,599616089255099424,-242
1710864440235,599616089262764528,-250
1710864440243,599616089270429632,-247
1710864440251,599616089278094736,-220
1710864440257,599616089285759840,-193
1710864440265,599616089293424944,-178
1710864440273,599616089301090048,-175
1710864440281,599616089308755152,-193
1710864440289,599616089316420256,-190
1710864440297,599616089324085360,-146
1710864440304,599616089331750464,0
1710864440312,599616089339415568,324
1710864440320,599616089347080672,525
1710864440327,599616089354745776,39
1710864440335,599616089362410880,-641
1710864440343,599616089370075984,-552
1710864440350,599616089377741088,-185
1710864440358,599616089385406192,-218
1710864440366,599616089393071296,-270
1710864440373,599616089400736400,-215
1710864440381,599616089408401504,-257
1710864440389,599616089416066608,-275
1710864440396,599616089423731712,-203
1710864440404,599616089431396816,-166
1710864440412,599616089439061920,-175
1710864440419,599616089446727024,-166
1710864440427,599616089454392128,-126
1710864440435,599616089462057232,-91
1710864440441,599616089469722336,-76
1710864440449,599616089477387440,-79
1710864440457,599616089485052544,-69
1710864440465,599616089492717648,-32
1710864440473,599616089500382752,-4
1710864440481,599616089508047856,7
1710864440488,599616089515712960,32
1710864440496,599616089523378064,52
1710864440504,599616089531043168,42
1710864440511,599616089538708272,44
1710864440519,599616089546373376,79
1710864440527,599616089554038480,81
1710864440534,599616089561703584,49
1710864440542,599616089569368688,22
1710864440550,599616089577033792,12
1710864440557,599616089584698896,32
1710864440565,599616089592364000,42
1710864440573,599616089600029104,24
1710864440580,599616089607694208,14
1710864440588,599616089615359312,9
1710864440596,599616089623024416,-27
1710864440603,599616089630689520,-69
1710864440611,599616089638354624,-74
1710864440619,599616089646019728,-59
1710864440625,599616089653684832,-61
1710864440633,599616089661349936,-74
1710864440641,599616089669015040,-74
1710864440649,599616089676680144,-66
1710864440657,599616089684345248,-86
1710864440665,599616089692010352,-111
1710864440672,599616089699675456,-96
1710864440680,599616089707340584,-96
1710864440688,599616089715005688,-161
1710864440695,599616089722670792,-203
1710864440703,599616089730335896,-163
1710864440711,599616089738001000,-126
1710864440718,599616089745666104,-138
1710864440726,599616089753331208,-141
1710864440733,599616089760996312,-128
1710864440741,599616089768661416,-141
1710864440749,599616089776326520,-193
1710864440756,599616089783991624,-227
1710864440764,599616089791656728,-208
1710864440772,599616089799321832,-213
1710864440779,599616089806986936,-247
1710864440787,599616089814652040,-225
1710864440795,599616089822317144,-175
1710864440801,599616089829982248,-173
1710864440809,599616089837647352,-198
1710864440817,599616089845312456,-218
1710864440825,599616089852977560,-223
1710864440833,599616089860642664,-240
1710864440841,599616089868307768,-262
1710864440848,599616089875972872,-247
1710864440856,599616089883637976,-232
1710864440864,599616089891303080,-275
1710864440871,599616089898968184,-356
1710864440879,599616089906633288,-418
1710864440887,599616089914298392,-413
1710864440894,599616089921963496,-359
1710864440902,599616089929628600,-322
1710864440910,599616089937293704,-302
1710864440917,599616089944958808,-292
1710864440925,599616089952623912,-289
1710864440933,599616089960289016,-275
1710864440940,599616089967954120,-245
1710864440948,599616089975619224,-220
1710864440956,599616089983284328,-215
1710864440963,599616089990949432,-213
1710864440971,599616089998614536,-188
1710864440979,599616090006279640,-153
1710864440985,599616090013944744,-138
1710864440993,599616090021609848,-69
1710864441001,599616090029274952,166
1710864441009,599616090036940056,483
1710864441017,599616090044605160,389
1710864441025,599616090052270264,-277
1710864441032,599616090059935368,-602
1710864441040,599616090067600472,-297
1710864441048,599616090075265576,-193
1710864441055,599616090082930680,-334
1710864441063,599616090090595784,-262
1710864441071,599616090098260888,-153
1710864441078,599616090105925992,-183
1710864441086,599616090113591096,-175
1710864441094,599616090121256200,-116
1710864441101,599616090128921304,-109
1710864441109,599616090136586408,-118
1710864441117,599616090144251512,-94
1710864441124,599616090151916616,-59
1710864441132,599616090159581720,-32
1710864441140,599616090167246824,-24
1710864441147,599616090174911928,-24
1710864441155,599616090182577032,4
1710864441163,599616090190242136,39
1710864441169,599616090197907240,44
1710864441177,599616090205572344,64
1710864441185,599616090213237448,101
1710864441193,599616090220902552,113
1710864441201,599616090228567656,118
1710864441209,599616090236232760,151
1710864441216,599616090243897864,168
1710864441224,599616090251562968,156
1710864441232,599616090259228072,118
1710864441239,599616090266893200,101
1710864441247,599616090274558304,126
1710864441255,599616090282223408,141
1710864441262,599616090289888512,109
1710864441270,599616090297553616,66
1710864441278,599616090305218720,44
1710864441285,599616090312883824,-14
1710864441293,599616090320548928,-111
1710864441301,599616090328214032,-133
1710864441308,599616090335879136,-96
1710864441316,599616090343544240,-104
1710864441324,599616090351209344,-133
1710864441331,599616090358874448,-128
1710864441339,599616090366539552,-104
1710864441347,599616090374204656,-91
1710864441353,599616090381869760,-89
1710864441361,599616090389534864,-64
1710864441369,599616090397199968,-39
1710864441377,599616090404865072,-66
1710864441385,599616090412530176,-141
1710864441393,599616090420195280,-195
1710864441400,599616090427860384,-188
1710864441408,599616090435525488,-205
1710864441416,599616090443190592,-247
1710864441423,599616090450855696,-230
1710864441431,599616090458520800,-200
1710864441439,599616090466185904,-203
1710864441446,599616090473851008,-190
1710864441454,599616090481516112,-153
1710864441462,599616090489181216,-143
1710864441469,599616090496846320,-156
1710864441477,599616090504511424,-138
1710864441485,599616090512176528,-111
1710864441492,599616090519841632,-104
1710864441500,599616090527506736,-109
1710864441508,599616090535171840,-126
1710864441515,599616090542836944,-151
1710864441523,599616090550502048,-146
1710864441531,599616090558167152,-128
1710864441537,599616090565832256,-133
1710864441545,599616090573497360,-143
1710864441553,599616090581162464,-158
1710864441561,599616090588827568,-195
1710864441569,599616090596492672,-213
1710864441577,599616090604157776,-195
1710864441584,599616090611822880,-210
1710864441592,599616090619487984,-265
1710864441600,599616090627153088,-280
1710864441607,599616090634818192,-252
1710864441615,599616090642483296,-232
1710864441623,599616090650148400,-208
1710864441630,599616090657813504,-166
1710864441638,599616090665478608,-138
1710864441646,599616090673143712,-156
1710864441653,599616090680808816,-178
1710864441661,599616090688473920,-158
1710864441669,599616090696139024,-126
1710864441676,599616090703804128,-121
1710864441684,599616090711469232,-118
1710864441692,599616090719134336,-101
1710864441699,599616090726799440,-91
1710864441707,599616090734464544,-94
1710864441715,599616090742129648,-69
1710864441721,599616090749794752,52
1710864441729,599616090757459856,337
1710864441737,599616090765124960,589
1710864441745,599616090772790064,294
1710864441753,599616090780455168,-391
1710864441761,599616090788120272,-525
1710864441768,599616090795785376,-230
1710864441776,599616090803450480,-203
1710864441784,599616090811115584,-240
1710864441791,599616090818780688,-146
1710864441799,599616090826475912,-131
1710864441807,599616090834140598,-153
1710864441814,599616090841805284,-104
1710864441822,599616090849469970,-66
1710864441830,599616090857134656,-84
1710864441837,599616090864799342,-86
1710864441845,599616090872464028,-64
1710864441853,599616090880128714,-61
1710864441860,599616090887793400,-96
1710864441868,599616090895458086,-106
1710864441876,599616090903122772,-69
1710864441883,599616090910787458,-56
1710864441891,599616090918452144,-91
1710864441899,599616090926116830,-118
1710864441905,599616090933781516,-79
1710864441913,599616090941446202,-24
1710864441921,599616090949110888,-24
1710864441929,599616090956775574,-24
1710864441937,599616090964440260,19
1710864441945,599616090972104946,34
1710864441952,599616090979769632,4
1710864441960,599616090987434318,14
1710864441968,599616090995099004,54
1710864441975,599616091002763690,47
1710864441983,599616091010428376,29
1710864441991,599616091018093062,32
1710864441998,599616091025757748,4
1710864442006,599616091033422434,-61
1710864442014,599616091041087120,-106
1710864442021,599616091048751806,-109
1710864442029,599616091056416492,-101
1710864442037,599616091064081178,-109
1710864442044,599616091071745864,-121
1710864442052,599616091079410550,-113
1710864442060,599616091087075236,-109
1710864442067,599616091094739922,-126
1710864442075,599616091102404608,-121
1710864442083,599616091110069294,-76
1710864442089,599616091117733980,-54
1710864442097,599616091125398666,-69
1710864442105,599616091133063352,-79
1710864442113,599616091140728038,-74
1710864442121,599616091148392724,-76
1710864442129,599616091156057410,-131
1710864442136,599616091163722096,-185
1710864442144,599616091171386782,-161
1710864442152,599616091179051468,-131
1710864442159,599616091186716154,-161
1710864442167,599616091194380840,-163
1710864442175,599616091202045526,-126
1710864442182,599616091209710212,-118
1710864442190,599616091217374898,-131
1710864442198,599616091225039584,-123
1710864442205,599616091232704270,-104
1710864442213,599616091240368956,-86
1710864442221,599616091248033642,-89
1710864442228,599616091255698328,-84
1710864442236,599616091263363014,-59
1710864442244,599616091271027700,-64
1710864442251,599616091278692386,-104
1710864442259,599616091286357072,-109
1710864442267,599616091294021758,-76
1710864442273,599616091301686444,-69
1710864442281,599616091309351130,-101
1710864442289,599616091317015816,-136
1710864442297,599616091324680502,-156
1710864442305,599616091332345188,-200
1710864442313,599616091340009874,-270
1710864442320,599616091347674560,-272
1710864442328,599616091355339246,-227
1710864442336,599616091363003932,-232
1710864442343,599616091370668618,-242
1710864442351,599616091378333304,-200
1710864442358,599616091385967914,-170
1710864442366,599616091393633018,-180
1710864442374,599616091401298122,-185
1710864442381,599616091408963226,-175
1710864442389,599616091416628330,-183
1710864442397,599616091424293434,-218
1710864442404,599616091431958538,-255
1710864442412,599616091439623642,-232
1710864442420,599616091447288746,-198
1710864442427,599616091454953850,-245
1710864442435,599616091462618954,-287
1710864442443,599616091470284058,-148
1710864442449,599616091477949162,163
1710864442457,599616091485614266,413
1710864442465,599616091493279370,151
1710864442473,599616091500944474,-495
1710864442481,599616091508609578,-636
1710864442489,599616091516274682,-312
1710864442496,599616091523939786,-240
1710864442504,599616091531604890,-292
1710864442512,599616091539269994,-210
1710864442519,599616091546935098,-210
1710864442527,599616091554600202,-275
1710864442535,599616091562265306,-220
1710864442542,599616091569930410,-151
1710864442550,599616091577595514,-168
1710864442558,599616091585260618,-168
1710864442565,599616091592925722,-118
1710864442573,599616091600590826,-104
1710864442581,599616091608255930,-113
1710864442588,599616091615921034,-81
1710864442596,599616091623586138,-32
1710864442604,599616091631251242,-9
1710864442611,599616091638916346,-7
1710864442619,599616091646581450,-2
1710864442627,599616091654246554,24
1710864442633,599616091661911658,32
1710864442641,599616091669576762,2
1710864442649,599616091677241866,2
1710864442657,599616091684906970,49
1710864442665,599616091692572074,66
1710864442673,599616091700237178,61
1710864442680,599616091707902282,94
1710864442688,599616091715567386,131
1710864442696,599616091723232490,118
1710864442703,599616091730897594,86
1710864442711,599616091738562698,71
1710864442719,599616091746227802,64
1710864442726,599616091753892906,44
1710864442734,599616091761558010,2
1710864442742,599616091769223114,-47
1710864442749,599616091776888218,-79
1710864442757,599616091784553322,-104
1710864442765,599616091792218426,-118
1710864442772,599616091799883530,-104
1710864442780,599616091807548634,-86
1710864442788,599616091815213738,-79
1710864442795,599616091822878842,-66
1710864442803,599616091830543946,-56
1710864442811,599616091838209050,-59
1710864442817,599616091845874154,-99
1710864442825,599616091853539258,-143
1710864442833,599616091861204362,-121
1710864442841,599616091868869466,-91
1710864442849,599616091876534570,-116
1710864442857,599616091884199674,-113
1710864442864,599616091891864778,-64
1710864442872,599616091899529882,-54
1710864442880,599616091907194986,-81
1710864442887,599616091914860090,-106
1710864442895,599616091922525194,-148
1710864442903,599616091930190298,-213
1710864442910,599616091937855402,-250
1710864442918,599616091945520532,-215
1710864442926,599616091953185636,-180
1710864442933,599616091960850740,-203
1710864442941,599616091968515844,-245
1710864442949,599616091976180948,-240
1710864442956,599616091983846052,-188
1710864442964,599616091991511156,-168
1710864442972,599616091999176260,-190
1710864442979,599616092006841364,-203
1710864442987,599616092014506468,-232
1710864442995,599616092022171572,-307
1710864443001,599616092029836676,-349
1710864443009,599616092037501780,-294
1710864443017,599616092045166884,-225
1710864443025,599616092052831988,-210
1710864443033,599616092060497092,-235
1710864443041,599616092068162196,-245
1710864443048,599616092075827300,-240
1710864443056,599616092083492404,-250
1710864443064,599616092091157508,-270
1710864443071,599616092098822612,-267
1710864443079,599616092106487716,-250
1710864443087,599616092114152820,-245
1710864443094,599616092121817924,-235
1710864443102,599616092129483028,-208
1710864443110,599616092137148132,-173
1710864443117,599616092144813236,-47
1710864443125,599616092152478340,262
1710864443133,599616092160143444,527
1710864443140,599616092167808548,180
1710864443148,599616092175473652,-510
1710864443156,599616092183138756,-547
1710864443163,599616092190803860,-183
1710864443171,599616092198468964,-173
1710864443179,599616092206134068,-267
1710864443185,599616092213799172,-195
1710864443193,599616092221464276,-138
1710864443201,599616092229129380,-146
1710864443209,599616092236794484,-141
1710864443217,599616092244459588,-128
1710864443225,599616092252124692,-113
1710864443232,599616092259789796,-121
1710864443240,599616092267454900,-163
1710864443248,599616092275120004,-153
1710864443255,599616092282785108,-94
1710864443263,599616092290450212,-81
1710864443271,599616092298115316,-89
1710864443278,599616092305780420,-59
1710864443286,599616092313445524,-17
1710864443294,599616092321110628,7
1710864443301,599616092328775732,17
1710864443309,599616092336440836,37
1710864443317,599616092344105940,79
1710864443324,599616092351771044,113
1710864443332,599616092359436148,136
1710864443340,599616092367101252,163
1710864443347,599616092374766356,173
1710864443355,599616092382431460,131
1710864443363,599616092390096564,71
1710864443369,599616092397761668,64
1710864443377,599616092405426772,89
1710864443385,599616092413091876,74
1710864443393,599616092420756980,22
1710864443401,599616092428422084,-24
1710864443409,599616092436087188,-89
1710864443416,599616092443752292,-180
1710864443424,599616092451417396,-208
1710864443432,599616092459082500,-178
1710864443439,599616092466747604,-190
1710864443447,599616092474412708,-218
1710864443455,599616092482077812,-200
1710864443462,599616092489742916,-173
1710864443470,599616092497408020,-168
1710864443478,599616092505073148,-180
1710864443485,599616092512738252,-195
1710864443493,599616092520403356,-188
1710864443501,599616092528068460,-161
1710864443508,599616092535733564,-146
1710864443516,599616092543398668,-136
1710864443524,599616092551063772,-113
1710864443531,599616092558728876,-141
1710864443539,599616092566393980,-247
1710864443547,599616092574059084,-309
1710864443553,599616092581724188,-250
1710864443561,599616092589389292,-205
1710864443569,599616092597054396,-227
1710864443577,599616092604719500,-220
1710864443585,599616092612384604,-195
1710864443593,599616092620049708,-218
1710864443600,599616092627714812,-235
1710864443608,599616092635379916,-205
1710864443616,599616092643045020,-170
1710864443623,599616092650710124,-175
1710864443631,599616092658375228,-188
1710864443639,599616092666040332,-170
1710864443646,599616092673705436,-133
1710864443654,599616092681370540,-118
1710864443662,599616092689035644,-121
1710864443669,599616092696700748,-104
1710864443677,599616092704365852,-101
1710864443685,599616092712030956,-113
1710864443692,599616092719696060,-111
1710864443700,599616092727361164,-99
1710864443708,599616092735026268,-101
1710864443715,599616092742691372,-109
1710864443723,599616092750356476,-128
1710864443731,599616092758021580,-158
1710864443737,599616092765686684,-163
1710864443745,599616092773351788,-188
1710864443753,599616092781016892,-247
1710864443761,599616092788681996,-166
1710864443769,599616092796347100,151
1710864443777,599616092804012204,446
1710864443784,599616092811677308,128
1710864443792,599616092819342412,-602
1710864443800,599616092827007516,-674
1710864443807,599616092834672620,-297
1710864443815,599616092842337724,-292
1710864443823,599616092850002828,-364
1710864443830,599616092857667932,-257
1710864443838,599616092865333036,-237
1710864443845,599616092872998140,-267
1710864443853,599616092880663244,-218
1710864443861,599616092888328348,-190
1710864443868,599616092895993452,-205
1710864443876,599616092903658556,-188
1710864443884,599616092911323660,-151
1710864443891,599616092918988764,-143
1710864443899,599616092926653868,-178
1710864443907,599616092934318972,-225
1710864443913,599616092941984076,-257
1710864443921,599616092949649180,-267
1710864443929,599616092957314284,-230
1710864443937,599616092964979388,-163
1710864443945,599616092972644492,-126
1710864443953,599616092980309596,-116
1710864443960,599616092987974700,-111
1710864443968,599616092995639804,-99
1710864443976,599616093003304908,-74
1710864443983,599616093010970012,-24
1710864443991,599616093018635116,9
1710864443999,599616093026300220,0
1710864444006,599616093033965324,12
1710864444014,599616093041630428,39
1710864444022,599616093049295532,-17
1710864444029,599616093056960636,-96
1710864444037,599616093064625764,-101
1710864444045,599616093072290868,-101
1710864444052,599616093079955972,-131
1710864444060,599616093087621076,-148
1710864444068,599616093095286180,-163
1710864444075,599616093102951284,-193
1710864444083,599616093110616388,-235
1710864444091,599616093118281492,-245
1710864444097,599616093125946596,-198
1710864444105,599616093133611700,-180
1710864444113,599616093141276804,-225
1710864444121,599616093148941908,-230
1710864444129,599616093156607012,-208
1710864444137,599616093164272116,-205
1710864444144,599616093171937220,-188
1710864444152,599616093179602324,-168
1710864444160,599616093187267428,-153
1710864444167,599616093194932532,-96
1710864444175,599616093202597636,-59
1710864444183,599616093210262740,-86
1710864444190,599616093217927844,-96
1710864444198,599616093225592948,-42
1710864444206,599616093233258052,22
1710864444213,599616093240923156,37
1710864444221,599616093248588260,-42
1710864444229,599616093256253364,-156
1710864444236,599616093263918468,-183
1710864444244,599616093271583572,-161
1710864444252,599616093279248676,-200
1710864444259,599616093286913780,-267
1710864444267,599616093294578884,-260
1710864444275,599616093302243988,-223
1710864444281,599616093309909092,-213
1710864444289,599616093317574196,-210
1710864444297,599616093325239300,-218
1710864444305,599616093332904404,-215
1710864444313,599616093340569508,-175
1710864444321,599616093348234612,-163
1710864444328,599616093355899716,-178
1710864444336,599616093363564820,-138
1710864444344,599616093371229924,-109
1710864444351,599616093378895028,-136
1710864444359,599616093386560132,-173
1710864444367,599616093394225236,-180
1710864444374,599616093401890340,-153
1710864444382,599616093409555444,-116
1710864444390,599616093417220548,-118
1710864444397,599616093424885652,-141
1710864444405,599616093432550756,-113
1710864444413,599616093440215860,66
1710864444420,599616093447880964,396
1710864444428,599616093455546068,391
1710864444436,599616093463211172,-302
1710864444443,599616093470876276,-849
1710864444451,599616093478541380,-629
1710864444459,599616093486206484,-401
1710864444465,599616093493871588,-490
1710864444473,599616093501536692,-458
1710864444481,599616093509201796,-359
1710864444489,599616093516866900,-349
1710864444497,599616093524532004,-294
1710864444505,599616093532197108,-260
1710864444512,599616093539862212,-346
1710864444520,599616093547527316,-324
1710864444528,599616093555192420,-175
1710864444535,599616093562857524,-146
1710864444543,599616093570522628,-180
1710864444551,599616093578187732,-185
1710864444558,599616093585852836,-190
1710864444566,599616093593517940,-74
1710864444574,599616093601183044,64
1710864444581,599616093608848148,24
1710864444589,599616093616513252,-54
1710864444597,599616093624178380,-54
1710864444604,599616093631843484,17
1710864444612,599616093639508588,126
1710864444620,599616093647173692,54
1710864444627,599616093654838796,-91
1710864444635,599616093662503900,-17
1710864444643,599616093670169004,44
1710864444649,599616093677834108,-71
1710864444657,599616093685499212,-79
1710864444665,599616093693164316,52
1710864444673,599616093700829420,56
1710864444681,599616093708494524,-61
1710864444689,599616093716159628,-89
1710864444696,599616093723824732,-66
1710864444704,599616093731489836,-161
1710864444712,599616093739154940,-247
1710864444719,599616093746820044,-193
1710864444727,599616093754485148,-153
1710864444735,599616093762150252,-235
1710864444742,599616093769815356,-237
1710864444750,599616093777480460,-138
1710864444758,599616093785145564,-161
1710864444765,599616093792810668,-225
1710864444773,599616093800475772,-166
1710864444781,599616093808140876,-128
1710864444788,599616093815805980,-146
1710864444796,599616093823471084,-96
1710864444804,599616093831136188,-136
1710864444811,599616093838801292,-247
1710864444819,599616093846466396,-218
1710864444827,599616093854131500,-183
1710864444833,599616093861796604,-210
1710864444841,599616093869461708,-128
1710864444849,599616093877126812,-37
1710864444857,599616093884791916,-64
1710864444865,599616093892457020,-138
1710864444873,599616093900122124,-175
1710864444880,599616093907787228,-121
1710864444888,599616093915452332,-66
1710864444896,599616093923117436,-71
1710864444903,599616093930782540,-64
1710864444911,599616093938447644,-74
1710864444919,599616093946112748,-123
1710864444926,599616093953777852,-158
1710864444934,599616093961442956,-175
1710864444942,599616093969108060,-136
1710864444949,599616093976773164,-84
1710864444957,599616093984438268,-126
1710864444965,599616093992103372,-200
1710864444972,599616093999768476,-200
1710864444980,599616094007433580,-190
1710864444988,599616094015098684,-195
1710864444995,599616094022763788,-208
1710864445003,599616094030428892,-272
1710864445011,599616094038093996,-287
1710864445017,599616094045759100,-210
1710864445025,599616094053424204,-175
1710864445033,599616094061089308,-86
1710864445041,599616094068754412,262
1710864445049,599616094076419516,550
1710864445057,599616094084084620,143
1710864445064,599616094091749724,-569
1710864445072,599616094099414828,-617
1710864445080,599616094107079932,-307
1710864445087,599616094114745036,-225
1710864445095,599616094122410140,-148
1710864445103,599616094130075244,-79
1710864445110,599616094137740348,-123
1710864445118,599616094145405452,-131
1710864445126,599616094153070556,-131
1710864445133,599616094160735660,-178
1710864445141,599616094168400764,-170
1710864445149,599616094176065868,-133
1710864445156,599616094183730996,-195
1710864445164,599616094191396100,-284
1710864445172,599616094199061204,-242
1710864445179,599616094206726308,-148
1710864445187,599616094214391412,-163
1710864445195,599616094222056516,-235
1710864445201,599616094229721620,-232
1710864445209,599616094237386724,-183
1710864445217,599616094245051828,-166
1710864445225,599616094252716932,-175
1710864445233,599616094260382036,-148
1710864445241,599616094268047140,-89
1710864445248,599616094275712244,-91
1710864445256,599616094283377348,-109
1710864445264,599616094291042452,-32
1710864445271,599616094298707556,44
1710864445279,599616094306372660,-17
1710864445287,599616094314037764,-37
1710864445294,599616094321702868,111
1710864445302,599616094329367972,126
1710864445310,599616094337033076,-39
1710864445317,599616094344698180,-96
1710864445325,599616094352363284,-76
1710864445333,599616094360028388,-163
1710864445340,599616094367693492,-262
1710864445348,599616094375358596,-252
1710864445356,599616094383023700,-225
1710864445363,599616094390688804,-227
1710864445371,599616094398353908,-213
1710864445379,599616094406019012,-195
1710864445385,599616094413684116,-168
1710864445393,599616094421349220,-138
1710864445401,599616094429014324,-104
1710864445409,599616094436679428,-54
1710864445417,599616094444344532,-64
1710864445425,599616094452009636,-116
1710864445432,599616094459674740,-148
1710864445440,599616094467339844,-168
1710864445448,599616094475004948,-175
1710864445455,599616094482670052,-170
1710864445463,599616094490335156,-161
1710864445470,599616094498000260,-173
1710864445478,599616094505665364,-161
1710864445486,599616094513330468,-156
1710864445493,599616094520995572,-203
1710864445501,599616094528660676,-247
1710864445509,599616094536325780,-252
1710864445516,599616094543990884,-208
1710864445524,599616094551655988,-146
1710864445532,599616094559321092,-104
1710864445539,599616094566986196,-81
1710864445547,599616094574651300,-52
1710864445555,599616094582316404,-32
1710864445561,599616094589981508,-49
1710864445569,599616094597646612,-113
1710864445577,599616094605311716,-131
1710864445585,599616094612976820,-37
1710864445593,599616094620641924,-14
1710864445601,599616094628307028,-56
1710864445608,599616094635972132,-7
1710864445616,599616094643637236,-2
1710864445624,599616094651302340,-101
1710864445631,599616094658967444,-79
1710864445639,599616094666632548,27
1710864445647,599616094674297652,-24
1710864445654,599616094681962756,-2
1710864445662,599616094689627860,386
1710864445670,599616094697292964,770
1710864445677,599616094704958068,443
1710864445685,599616094712623172,-376
1710864445693,599616094720288276,-577
1710864445700,599616094727953380,-280
1710864445708,599616094735618484,-247
1710864445716,599616094743313708,-223
1710864445723,599616094750978394,-86
1710864445731,599616094758643080,-143
1710864445739,599616094766307766,-240
1710864445745,599616094773972452,-180
1710864445753,599616094781637138,-156
1710864445761,599616094789301824,-223
1710864445769,599616094796966510,-223
1710864445777,599616094804631196,-168
1710864445785,599616094812295882,-173
1710864445792,599616094819960568,-190
1710864445800,599616094827625254,-128
1710864445808,599616094835289940,-81
1710864445815,599616094842954626,-69
1710864445823,599616094850619312,0
1710864445831,599616094858283998,7
1710864445838,599616094865948684,-91
1710864445846,599616094873613370,-121
1710864445854,599616094881278056,-66
1710864445861,599616094888942742,-74
1710864445869,599616094896607428,-104
1710864445877,599616094904272114,-76
1710864445884,599616094911936800,-34
1710864445892,599616094919601486,-42
1710864445900,599616094927266172,-66
1710864445907,599616094934930858,-81
1710864445915,599616094942595544,-66
1710864445923,599616094950260230,-104
1710864445929,599616094957924916,-277
1710864445937,599616094965589602,-351
1710864445945,599616094973254288,-275
1710864445953,599616094980918974,-332
1710864445961,599616094988583660,-389
1710864445969,599616094996248346,-287
1710864445976,599616095003913032,-255
1710864445984,599616095011577718,-314
1710864445992,599616095019242404,-339
1710864445999,599616095026907090,-309
1710864446007,599616095034571776,-252
1710864446015,599616095042236462,-235
1710864446022,599616095049901148,-262
1710864446030,599616095057565834,-289
1710864446038,599616095065230520,-265
1710864446045,599616095072895206,-235
1710864446053,599616095080559892,-257
1710864446061,599616095088224578,-235
1710864446068,599616095095889264,-163
1710864446076,599616095103553950,-136
1710864446084,599616095111218636,-136
1710864446091,599616095118883322,-133
1710864446099,599616095126548008,-113
1710864446107,599616095134212694,-89
1710864446113,599616095141877380,-106
1710864446121,599616095149542066,-113
1710864446129,599616095157206752,-52
1710864446137,599616095164871438,-2
1710864446145,599616095172536124,-27
1710864446153,599616095180200810,-52
1710864446160,599616095187865496,-27
1710864446168,599616095195530182,-9
1710864446176,599616095203194868,9
1710864446183,599616095210859554,-7
1710864446191,599616095218524240,-79
1710864446199,599616095226188926,-131
1710864446206,599616095233853612,-156
1710864446214,599616095241518298,-166
1710864446222,599616095249182984,-166
1710864446229,599616095256847670,-163
1710864446237,599616095264512356,-143
1710864446245,599616095272177042,-148
1710864446252,599616095279841728,-166
1710864446260,599616095287506414,-146
1710864446268,599616095295171100,-113
1710864446275,599616095302805712,-17
1710864446283,599616095310470816,307
1710864446291,599616095318135920,674
1710864446297,599616095325801024,351
1710864446305,599616095333466128,-503
1710864446313,599616095341131232,-661
1710864446321,599616095348796336,-242
1710864446329,599616095356461440,-161
1710864446337,599616095364126544,-208
1710864446344,599616095371791648,-116
1710864446352,599616095379456752,-111
1710864446360,599616095387121856,-151
1710864446367,599616095394786960,-104
1710864446375,599616095402452064,-91
1710864446383,599616095410117168,-156
1710864446390,599616095417782272,-170
1710864446398,599616095425447376,-156
1710864446406,599616095433112480,-141
1710864446413,599616095440777584,-116
1710864446421,599616095448442688,-143
1710864446429,599616095456107792,-168
1710864446436,599616095463772896,-195
1710864446444,599616095471438000,-260
1710864446452,599616095479103104,-215
1710864446459,599616095486768208,-99
1710864446467,599616095494433312,-79
1710864446475,599616095502098416,-133
1710864446481,599616095509763520,-121
1710864446489,599616095517428624,-47
1710864446497,599616095525093728,2
1710864446505,599616095532758832,37
1710864446513,599616095540423936,49
1710864446521,599616095548089040,37
1710864446528,599616095555754144,34
1710864446536,599616095563419248,24
1710864446544,599616095571084352,9
1710864446551,599616095578749456,19
1710864446559,599616095586414560,34
1710864446567,599616095594079664,-39
1710864446574,599616095601744768,-170
1710864446582,599616095609409872,-223
1710864446590,599616095617074976,-240
1710864446597,599616095624740080,-257
1710864446605,599616095632405184,-262
1710864446613,599616095640070288,-284
1710864446620,599616095647735392,-275
1710864446628,599616095655400496,-195
1710864446636,599616095663065600,-104
1710864446643,599616095670730704,-76
1710864446651,599616095678395808,-178
1710864446659,599616095686060912,-262
1710864446665,599616095693726016,-200
1710864446673,599616095701391120,-131
1710864446681,599616095709056224,-190
1710864446689,599616095716721328,-282
1710864446697,599616095724386432,-237
1710864446705,599616095732051536,-89
1710864446712,599616095739716640,-39
1710864446720,599616095747381744,-183
1710864446728,599616095755046848,-309
1710864446735,599616095762711952,-230
1710864446743,599616095770377056,-151
1710864446751,599616095778042160,-245
1710864446758,599616095785707264,-317
1710864446766,599616095793372368,-245
1710864446774,599616095801037472,-183
1710864446781,599616095808702576,-200
1710864446789,599616095816367680,-198
1710864446797,599616095824032784,-131
1710864446804,599616095831697888,-74
1710864446812,599616095839362992,-76
1710864446820,599616095847028096,-106
1710864446827,599616095854693200,-153
1710864446835,599616095862358328,-180
1710864446843,599616095870023432,-143
1710864446849,599616095877688536,-106
1710864446857,599616095885353640,-111
1710864446865,599616095893018744,-84
1710864446873,599616095900683848,-22
1710864446881,599616095908348952,-19
1710864446889,599616095916014056,-54
1710864446896,599616095923679160,54
1710864446904,599616095931344264,394
1710864446912,599616095939009368,589
1710864446919,599616095946674472,99
1710864446927,599616095954339576,-567
1710864446935,599616095962004680,-550
1710864446942,599616095969669784,-302
1710864446950,599616095977334888,-364
1710864446957,599616095984999992,-401
1710864446965,599616095992665096,-297
1710864446973,599616096000330200,-284
1710864446980,599616096007995304,-309
1710864446988,599616096015660408,-245
1710864446996,599616096023325512,-188
1710864447003,599616096030990616,-213
1710864447011,599616096038655720,-242
1710864447019,599616096046320824,-235
1710864447025,599616096053985928,-215
1710864447033,599616096061651032,-166
1710864447041,599616096069316136,-121
1710864447049,599616096076981240,-131
1710864447057,599616096084646344,-128
1710864447065,599616096092311448,-79
1710864447072,599616096099976552,-61
1710864447080,599616096107641656,-59
1710864447088,599616096115306760,0
1710864447095,599616096122971864,42
1710864447103,599616096130636968,37
1710864447111,599616096138302072,34
1710864447118,599616096145967176,14
1710864447126,599616096153632280,19
1710864447134,599616096161297384,81
1710864447141,599616096168962488,91
1710864447149,599616096176627592,59
1710864447157,599616096184292696,81
1710864447164,599616096191957800,109
1710864447172,599616096199622904,39
1710864447180,599616096207288008,-49
1710864447187,599616096214953112,-74
1710864447195,599616096222618216,-104
1710864447203,599616096230283320,-91
1710864447209,599616096237948424,-61
1710864447217,599616096245613528,-116
1710864447225,599616096253278632,-61
1710864447233,599616096260943736,56
1710864447241,599616096268608840,-12
1710864447249,599616096276273944,-141
1710864447256,599616096283939048,-141
1710864447264,599616096291604152,-123
1710864447272,599616096299269256,-168
1710864447279,599616096306934360,-158
1710864447287,599616096314599464,-101
1710864447295,599616096322264568,-148
1710864447302,599616096329929672,-193
1710864447310,599616096337594776,-121
1710864447318,599616096345259880,-86
1710864447325,599616096352924984,-138
1710864447333,599616096360590088,-161
1710864447341,599616096368255192,-131
1710864447348,599616096375920296,-109
1710864447356,599616096383585400,-123
1710864447364,599616096391250504,-121
1710864447371,599616096398915608,-69
1710864447379,599616096406580712,-101
1710864447387,599616096414245816,-180
1710864447393,599616096421910944,-76
1710864447401,599616096429576048,32
1710864447409,599616096437241152,-39
1710864447417,599616096444906256,-91
1710864447425,599616096452571360,-84
1710864447433,599616096460236464,-99
1710864447440,599616096467901568,-151
1710864447448,599616096475566672,-237
1710864447456,599616096483231776,-277
1710864447463,599616096490896880,-245
1710864447471,599616096498561984,-275
1710864447479,599616096506227088,-351
1710864447486,599616096513892192,-349
1710864447494,599616096521557296,-292
1710864447502,599616096529222400,-109
1710864447509,599616096536887504,275
1710864447517,599616096544552608,495
1710864447525,599616096552217712,37
1710864447532,599616096559882816,-626
1710864447540,599616096567547920,-550
1710864447548,599616096575213024,-205
1710864447555,599616096582878128,-277
1710864447563,599616096590543232,-292
1710864447571,599616096598208336,-99
1710864447577,599616096605873440,-76
1710864447585,599616096613538544,-143
1710864447593,599616096621203648,-116
1710864447601,599616096628868752,-96
1710864447609,599616096636533856,-148
1710864447617,599616096644198960,-156
1710864447624,599616096651864064,-54
1710864447632,599616096659529168,9
1710864447640,599616096667194272,-44
1710864447647,599616096674859376,-101
1710864447655,599616096682524480,-91
1710864447663,599616096690189584,-86
1710864447670,599616096697854688,-136
1710864447678,599616096705519792,-109
1710864447686,599616096713184896,-9
1710864447693,599616096720850000,4
1710864447701,599616096728515104,32
1710864447709,599616096736180208,86
1710864447716,599616096743845312,71
1710864447724,599616096751510416,86
1710864447732,599616096759175520,143
1710864447739,599616096766840624,161
1710864447747,599616096774505728,173
1710864447755,599616096782170832,195
1710864447761,599616096789835936,148
1710864447769,599616096797501040,47
1710864447777,599616096805166144,-19
1710864447785,599616096812831248,-22
1710864447793,599616096820496352,4
1710864447801,599616096828161456,-27
1710864447808,599616096835826560,-86
1710864447816,599616096843491664,-86
1710864447824,599616096851156768,-79
1710864447831,599616096858821872,-136
1710864447839,599616096866486976,-175
1710864447847,599616096874152080,-123
1710864447854,599616096881817184,-66
1710864447862,599616096889482288,-94
1710864447870,599616096897147392,-138
1710864447877,599616096904812496,-104
1710864447885,599616096912477600,-71
1710864447893,599616096920142704,-121
1710864447900,599616096927807808,-143
1710864447908,599616096935472912,-183
1710864447916,599616096943138016,-257
1710864447923,599616096950803120,-210
1710864447931,599616096958468224,-136
1710864447939,599616096966133328,-158
1710864447945,599616096973798432,-205
1710864447953,599616096981463560,-267
1710864447961,599616096989128664,-265
1710864447969,599616096996793768,-188
1710864447977,599616097004458872,-170
1710864447985,599616097012123976,-215
1710864447992,599616097019789080,-225
1710864448000,599616097027454184,-208
1710864448008,599616097035119288,-299
1710864448015,599616097042784392,-428
1710864448023,599616097050449496,-369
1710864448031,599616097058114600,-247
1710864448038,599616097065779704,-280
1710864448046,599616097073444808,-351
1710864448054,599616097081109912,-307
1710864448061,599616097088775016,-205
1710864448069,599616097096440120,-235
1710864448077,599616097104105224,-299
1710864448084,599616097111770328,-185
1710864448092,599616097119435432,-61
1710864448100,599616097127100536,39
1710864448107,599616097134765640,426
1710864448115,599616097142430744,617
1710864448123,599616097150095848,-42
1710864448129,599616097157760952,-634
1710864448137,599616097165426056,-389
1710864448145,599616097173091160,-106
1710864448153,599616097180756264,-193
1710864448161,599616097188421368,-242
1710864448169,599616097196086472,-158
1710864448176,599616097203751576,-71
1710864448184,599616097211416680,-71
1710864448192,599616097219081784,-126
1710864448199,599616097226746888,-178
1710864448207,599616097234411992,-185
1710864448215,599616097242077096,-109
1710864448222,599616097249742200,-19
1710864448230,599616097257407304,-27
1710864448238,599616097265072408,-96
1710864448245,599616097272737512,-86
1710864448253,599616097280402616,37
1710864448261,599616097288067720,121
1710864448268,599616097295732824,76
1710864448276,599616097303397928,7
1710864448284,599616097311063032,42
1710864448291,599616097318728136,146
1710864448299,599616097326393240,205
1710864448307,599616097334058344,208
1710864448313,599616097341723448,230
1710864448321,599616097349388552,267
1710864448329,599616097357053656,232
1710864448337,599616097364718760,170
1710864448345,599616097372383864,156
1710864448353,599616097380048968,141
1710864448360,599616097387714072,104
1710864448368,599616097395379176,59
1710864448376,599616097403044280,12
1710864448383,599616097410709384,-17
1710864448391,599616097418374488,-59
1710864448399,599616097426039592,-148
1710864448406,599616097433704696,-257
1710864448414,599616097441369800,-277
1710864448422,599616097449034904,-158
1710864448429,599616097456700008,-109
1710864448437,599616097464365112,-158
1710864448445,599616097472030216,-138
1710864448452,599616097479695320,-126
1710864448460,599616097487360424,-195
1710864448468,599616097495025528,-252
1710864448475,599616097502690632,-227
1710864448483,599616097510355736,-168
1710864448491,599616097518020840,-146
1710864448497,599616097525685944,-151
1710864448505,599616097533351048,-183
1710864448513,599616097541016176,-210
1710864448521,599616097548681280,-227
1710864448529,599616097556346384,-240
1710864448537,599616097564011488,-260
1710864448544,599616097571676592,-294
1710864448552,599616097579341696,-284
1710864448560,599616097587006800,-262
1710864448567,599616097594671904,-294
1710864448575,599616097602337008,-307
1710864448583,599616097610002112,-297
1710864448590,599616097617667216,-324
1710864448598,599616097625332320,-341
1710864448605,599616097632997424,-339
1710864448613,599616097640662528,-332
1710864448621,599616097648327632,-312
1710864448628,599616097655992736,-329
1710864448636,599616097663657840,-349
1710864448644,599616097671322944,-332
1710864448651,599616097678988048,-327
1710864448659,599616097686653152,-329
1710864448667,599616097694318256,-337
1710864448673,599616097701983360,-371
1710864448681,599616097709648464,-376
1710864448689,599616097717313568,-262
1710864448697,599616097724978672,-12
1710864448705,599616097732643776,275
1710864448713,599616097740308880,116
1710864448720,599616097747973984,-569
1710864448728,599616097755639088,-830
1710864448736,599616097763304192,-517
1710864448743,599616097770969296,-386
1710864448751,599616097778634400,-398
1710864448759,599616097786299504,-317
1710864448766,599616097793964608,-299
1710864448774,599616097801629712,-312
1710864448782,599616097809294816,-270
1710864448789,599616097816959920,-232
1710864448797,599616097824625024,-195
1710864448805,599616097832290128,-180
1710864448812,599616097839955232,-188
1710864448820,599616097847620336,-163
1710864448828,599616097855285440,-133
1710864448835,599616097862950544,-94
1710864448843,599616097870615648,-37
1710864448851,599616097878280752,-54
1710864448857,599616097885945856,-86
1710864448865,599616097893610960,-12
1710864448873,599616097901276064,34
1710864448881,599616097908941168,-39
1710864448889,599616097916606272,-47
1710864448897,599616097924271376,24
1710864448904,599616097931936480,12
1710864448912,599616097939601584,-7
1710864448920,599616097947266688,27
1710864448927,599616097954931792,17
1710864448935,599616097962596896,-37
1710864448943,599616097970262000,-39
1710864448950,599616097977927104,4
1710864448958,599616097985592208,-44
1710864448966,599616097993257312,-183
1710864448973,599616098000922416,-230
1710864448981,599616098008587520,-183
1710864448989,599616098016252624,-208
1710864448996,599616098023917728,-257
1710864449004,599616098031582832,-237
1710864449012,599616098039247936,-257
1710864449019,599616098046913040,-332
1710864449027,599616098054578144,-304
1710864449035,599616098062243248,-205
1710864449041,599616098069908352,-178
1710864449049,599616098077573456,-240
1710864449057,599616098085238560,-324
1710864449065,599616098092903664,-337
1710864449073,599616098100598888,-280
1710864449081,599616098108263574,-260
1710864449088,599616098115928260,-272
1710864449096,599616098123592946,-193
1710864449104,599616098131257632,-94
1710864449111,599616098138922318,-131
1710864449119,599616098146587004,-213
1710864449127,599616098154251690,-215
1710864449134,599616098161916376,-193
1710864449142,599616098169581062,-227
1710864449150,599616098177245748,-304
1710864449157,599616098184910434,-324
1710864449165,599616098192575120,-260
1710864449173,599616098200239806,-208
1710864449180,599616098207904492,-240
1710864449188,599616098215569178,-282
1710864449196,599616098223233864,-282
1710864449203,599616098230898550,-304
1710864449211,599616098238563236,-346
1710864449219,599616098246227922,-329
1710864449225,599616098253892608,-227
1710864449233,599616098261557294,-166
1710864449241,599616098269221980,-260
1710864449249,599616098276886666,-366
1710864449257,599616098284551352,-327
1710864449265,599616098292216038,-225
1710864449272,599616098299880724,0
1710864449280,599616098307545410,396
1710864449288,599616098315210096,433
1710864449295,599616098322874782,-210
1710864449303,599616098330539468,-696
1710864449311,599616098338204154,-446
1710864449318,599616098345868840,-143
1710864449326,599616098353533526,-148
1710864449334,599616098361198212,-121
1710864449341,599616098368862898,-76
1710864449349,599616098376527584,-118
1710864449357,599616098384192270,-79
1710864449364,599616098391856956,-7
1710864449372,599616098399521642,-39
1710864449380,599616098407186328,-59
1710864449387,599616098414851014,-24
1710864449395,599616098422515700,-27
1710864449403,599616098430180386,-44
1710864449409,599616098437845072,-29
1710864449417,599616098445509758,-44
1710864449425,599616098453174444,-56
1710864449433,599616098460839130,7
1710864449441,599616098468503816,19
1710864449449,599616098476168502,-22
1710864449456,599616098483833188,-2
1710864449464,599616098491497874,39
1710864449472,599616098499162560,49
1710864449479,599616098506827246,61
1710864449487,599616098514491932,81
1710864449495,599616098522156618,79
1710864449502,599616098529821304,89
1710864449510,599616098537485990,141
1710864449518,599616098545150676,161
1710864449525,599616098552815362,131
1710864449533,599616098560480048,104
1710864449541,599616098568144734,99
1710864449548,599616098575809420,113
1710864449556,599616098583474106,89
1710864449564,599616098591138792,27
1710864449571,599616098598803478,-17
1710864449579,599616098606468164,-39
1710864449587,599616098614132850,-24
1710864449593,599616098621797536,19
1710864449601,599616098629462222,32
1710864449609,599616098637126908,-2
1710864449617,599616098644791594,-32
1710864449625,599616098652456280,2
1710864449633,599616098660090892,9
1710864449640,599616098667755996,-54
1710864449648,599616098675421100,-54
1710864449656,599616098683086204,-32
1710864449663,599616098690751308,-74
1710864449671,599616098698416412,-89
1710864449679,599616098706081516,-89
1710864449686,599616098713746620,-104
1710864449694,599616098721411724,-66
1710864449702,599616098729076828,-47
1710864449709,599616098736741932,-84
1710864449717,599616098744407036,-109
1710864449725,599616098752072140,-76
1710864449732,599616098759737244,-39
1710864449740,599616098767402348,-99
1710864449748,599616098775067452,-128
1710864449755,599616098782732556,12
1710864449763,599616098790397660,79
1710864449771,599616098798062764,-47
1710864449777,599616098805727868,-141
1710864449785,599616098813392972,-133
1710864449793,599616098821058076,-143
1710864449801,599616098828723180,-215
1710864449809,599616098836388284,-252
1710864449817,599616098844053388,-198
1710864449824,599616098851718492,-175
1710864449832,599616098859383596,-227
1710864449840,599616098867048700,-218
1710864449847,599616098874713804,-69
1710864449855,599616098882378908,185
1710864449863,599616098890044012,460
1710864449870,599616098897709116,307
1710864449878,599616098905374220,-391
1710864449886,599616098913039324,-713
1710864449893,599616098920704428,-376
1710864449901,599616098928369532,-193
1710864449909,599616098936034636,-260
1710864449916,599616098943699740,-205
1710864449924,599616098951364844,-148
1710864449932,599616098959029948,-183
1710864449939,599616098966695052,-153
1710864449947,599616098974360156,-96
1710864449955,599616098982025260,-104
1710864449961,599616098989690364,-158
1710864449969,599616098997355468,-208
1710864449977,599616099005020572,-237
1710864449985,599616099012685676,-240
1710864449993,599616099020350780,-168
1710864450001,599616099028015884,-121
1710864450008,599616099035680988,-188
1710864450016,599616099043346092,-193
1710864450024,599616099051011196,-71
1710864450031,599616099058676300,-24
1710864450039,599616099066341404,-56
1710864450047,599616099074006508,7
1710864450054,599616099081671612,86
1710864450062,599616099089336716,71
1710864450070,599616099097001820,76
1710864450077,599616099104666924,106
1710864450085,599616099112332028,118
1710864450092,599616099119997132,131
1710864450100,599616099127662236,126
1710864450108,599616099135327340,111
1710864450115,599616099142992444,118
1710864450123,599616099150657548,94
1710864450131,599616099158322652,7
1710864450137,599616099165987756,-76
1710864450145,599616099173652860,-104
1710864450153,599616099181317964,-133
1710864450161,599616099188983068,-232
1710864450169,599616099196648172,-294
1710864450177,599616099204313276,-213
1710864450184,599616099211978380,-128
1710864450192,599616099219643508,-166
1710864450200,599616099227308612,-237
1710864450207,599616099234973716,-208
1710864450215,599616099242638820,-128
1710864450223,599616099250303924,-116
1710864450230,599616099257969028,-131
1710864450238,599616099265634132,-111
1710864450246,599616099273299236,-101
1710864450253,599616099280964340,-146
1710864450261,599616099288629444,-225
1710864450269,599616099296294548,-292
1710864450276,599616099303959652,-275
1710864450284,599616099311624756,-227
1710864450292,599616099319289860,-225
1710864450299,599616099326954964,-203
1710864450307,599616099334620068,-180
1710864450315,599616099342285172,-210
1710864450321,599616099349950276,-218
1710864450329,599616099357615380,-148
1710864450337,599616099365280484,-116
1710864450345,599616099372945588,-185
1710864450353,599616099380610692,-208
1710864450361,599616099388275796,-136
1710864450368,599616099395940900,-91
1710864450376,599616099403606004,-148
1710864450384,599616099411271108,-220
1710864450391,599616099418936212,-185
1710864450399,599616099426601316,-138
1710864450407,599616099434266420,-173
1710864450414,599616099441931524,-198
1710864450422,599616099449596628,-156
1710864450430,599616099457261732,-7
1710864450437,599616099464926836,309
1710864450445,599616099472591940,418
1710864450453,599616099480257044,-126
1710864450460,599616099487922148,-666
1710864450468,599616099495587252,-503
1710864450476,599616099503252356,-322
1710864450483,599616099510917460,-480
1710864450491,599616099518582564,-408
1710864450499,599616099526247668,-223
1710864450505,599616099533912772,-319
1710864450513,599616099541577876,-423
1710864450521,599616099549242980,-339
1710864450529,599616099556908084,-272
1710864450537,599616099564573188,-242
1710864450545,599616099572238292,-220
1710864450552,599616099579903396,-280
1710864450560,599616099587568500,-294
1710864450568,599616099595233604,-161
1710864450575,599616099602898708,-66
1710864450583,599616099610563812,-89
1710864450591,599616099618228916,-81
1710864450598,599616099625894020,-79
1710864450606,599616099633559124,-109
1710864450614,599616099641224228,-59
1710864450621,599616099648889332,-2
1710864450629,599616099656554436,-24
1710864450637,599616099664219540,-32
1710864450644,599616099671884644,42
1710864450652,599616099679549748,123
1710864450660,599616099687214852,113
1710864450667,599616099694879956,64
1710864450675,599616099702545060,74
1710864450683,599616099710210164,94
1710864450689,599616099717875268,-9
1710864450697,599616099725540372,-101
1710864450705,599616099733205476,-66
1710864450713,599616099740870580,-54
1710864450721,599616099748535684,-81
1710864450729,599616099756200788,-56
1710864450736,599616099763865892,-59
1710864450744,599616099771530996,-96
1710864450752,599616099779226220,-96
1710864450759,599616099786890906,-79
1710864450767,599616099794555592,-44
1710864450775,599616099802220278,-9
1710864450782,599616099809884964,-39
1710864450790,599616099817549650,-74
1710864450798,599616099825214336,-79
1710864450805,599616099832879022,-47
1710864450813,599616099840543708,34
1710864450821,599616099848208394,17
1710864450828,599616099855873080,-128
1710864450836,599616099863537766,-173
1710864450844,599616099871202452,-89
1710864450851,599616099878867138,-66
1710864450859,599616099886531824,-133
1710864450867,599616099894196510,-170
1710864450873,599616099901861196,-133
1710864450881,599616099909525882,-86
1710864450889,599616099917190568,-106
1710864450897,599616099924855254,-133
1710864450905,599616099932519940,-94
1710864450913,599616099940184626,-39
1710864450920,599616099947849312,-37
1710864450928,599616099955513998,-79
1710864450936,599616099963178684,-94
1710864450943,599616099970843370,-94
1710864450951,599616099978508056,-69
1710864450959,599616099986172742,2
1710864450966,599616099993837428,-7
1710864450974,599616100001502114,-113
1710864450982,599616100009166800,-173
1710864450989,599616100016831486,-118
1710864450997,599616100024496172,168
1710864451005,599616100032160858,560
1710864451012,599616100039825544,369
1710864451020,599616100047490230,-441
1710864451028,599616100055154916,-773
1710864451035,599616100062819602,-436
1710864451043,599616100070484288,-289
1710864451051,599616100078148974,-411
1710864451057,599616100085813660,-401
1710864451065,599616100093478346,-289
1710864451073,599616100101143032,-220
1710864451081,599616100108807718,-173
1710864451089,599616100116472404,-193
1710864451097,599616100124137090,-302
1710864451104,599616100131801776,-334
1710864451112,599616100139466462,-240
1710864451120,599616100147131148,-163
1710864451127,599616100154795834,-183
1710864451135,599616100162460520,-270
1710864451143,599616100170125206,-312
1710864451150,599616100177789892,-235
1710864451158,599616100185454578,-158
1710864451166,599616100193119264,-146
1710864451173,599616100200783950,-128
1710864451181,599616100208448636,-148
1710864451189,599616100216113322,-141
1710864451196,599616100223778008,-52
1710864451204,599616100231442694,-86
1710864451212,599616100239107380,-143
1710864451219,599616100246772066,-34
1710864451227,599616100254436752,29
1710864451235,599616100262101438,-47
1710864451241,599616100269766124,-54
1710864451249,599616100277430810,39
1710864451257,599616100285095496,39
1710864451265,599616100292760182,-69
1710864451273,599616100300424868,-131
1710864451281,599616100308089554,-104
1710864451288,599616100315754240,-44
1710864451296,599616100323418926,-76
1710864451304,599616100331083612,-178
1710864451311,599616100338718222,-173
1710864451319,599616100346383326,-116
1710864451327,599616100354048430,-136
1710864451334,599616100361713534,-146
1710864451342,599616100369378638,-113
1710864451350,599616100377043742,-104
1710864451357,599616100384708846,-136
1710864451365,599616100392373950,-232
1710864451373,599616100400039054,-327
1710864451380,599616100407704158,-317
1710864451388,599616100415369262,-260
1710864451396,599616100423034366,-245
1710864451403,599616100430699470,-232
1710864451411,599616100438364574,-200
1710864451419,599616100446029678,-158
1710864451425,599616100453694782,-121
1710864451433,599616100461359886,-133
1710864451441,599616100469024990,-148
1710864451449,599616100476690094,-106
1710864451457,599616100484355198,-89
1710864451465,599616100492020302,-138
1710864451472,599616100499685406,-146
1710864451480,599616100507350510,-94
1710864451488,599616100515015614,-96
1710864451495,599616100522680718,-156
1710864451503,599616100530345822,-185
1710864451511,599616100538010926,-180
1710864451518,599616100545676030,-163
1710864451526,599616100553341134,-111
1710864451534,599616100561006238,-74
1710864451541,599616100568671342,-66
1710864451549,599616100576336446,109
1710864451557,599616100584001550,505
1710864451564,599616100591666654,555
1710864451572,599616100599331758,-163
1710864451579,599616100606996862,-701
1710864451587,599616100614661966,-396
1710864451595,599616100622327070,-104
1710864451601,599616100629992174,-178
1710864451609,599616100637657278,-178
1710864451617,599616100645322382,-101
1710864451625,599616100652987486,-99
1710864451633,599616100660652590,-126
1710864451641,599616100668317694,-156
1710864451648,599616100675982798,-175
1710864451656,599616100683647902,-168
1710864451664,599616100691313006,-126
1710864451671,599616100698978110,-84
1710864451679,599616100706643214,-113
1710864451687,599616100714308318,-158
1710864451694,599616100721973422,-126
1710864451702,599616100729638526,-56
1710864451710,599616100737303630,-19
1710864451717,599616100744968734,-44
1710864451725,599616100752633838,-148
1710864451733,599616100760298942,-215
1710864451740,599616100767964046,-81
1710864451748,599616100775629150,44
1710864451756,599616100783294254,-42
1710864451763,599616100790959358,-79
1710864451771,599616100798624462,29
1710864451779,599616100806289566,64
1710864451785,599616100813954670,27
1710864451793,599616100821619774,22
1710864451801,599616100829284878,4
1710864451809,599616100836949982,-22
1710864451817,599616100844615086,-59
1710864451825,599616100852280190,-106
1710864451832,599616100859945294,-84
1710864451840,599616100867610398,-59
1710864451848,599616100875275502,-109
1710864451855,599616100882940606,-136
1710864451863,599616100890605710,-126
1710864451871,599616100898270838,-143
1710864451878,599616100905935942,-185
1710864451886,599616100913601046,-200
1710864451894,599616100921266150,-178
1710864451901,599616100928931254,-183
1710864451909,599616100936596358,-245
1710864451917,599616100944261462,-267
1710864451924,599616100951926566,-218
1710864451932,599616100959591670,-200
1710864451940,599616100967256774,-203
1710864451947,599616100974921878,-195
1710864451955,599616100982586982,-198
1710864451963,599616100990252086,-188
1710864451969,599616100997917190,-180
1710864451977,599616101005582294,-168
1710864451985,599616101013247398,-109
1710864451993,599616101020912502,-86
1710864452001,599616101028577606,-185
1710864452009,599616101036242710,-240
1710864452016,599616101043907814,-111
1710864452024,599616101051572918,-66
1710864452032,599616101059238022,-203
1710864452039,599616101066903126,-210
1710864452047,599616101074568230,-118
1710864452055,599616101082233334,-158
1710864452062,599616101089898438,-193
1710864452070,599616101097563542,-148
1710864452078,599616101105228646,-168
1710864452085,599616101112893750,-235
1710864452093,599616101120558854,-153
1710864452101,599616101128223958,136
1710864452108,599616101135889062,364
1710864452116,599616101143554166,86
1710864452124,599616101151219270,-530
1710864452131,599616101158884374,-706
1710864452139,599616101166549478,-448
1710864452147,599616101174214582,-334
1710864452153,599616101181879686,-297
1710864452161,599616101189544790,-146
1710864452169,599616101197209894,-106
1710864452177,599616101204874998,-275
1710864452185,599616101212540102,-361
1710864452193,599616101220205206,-223
1710864452200,599616101227870310,-185
1710864452208,599616101235535414,-307
1710864452216,599616101243200518,-272
1710864452223,599616101250865622,-148
1710864452231,599616101258530726,-170
1710864452239,599616101266195830,-235
1710864452246,599616101273860934,-215
1710864452254,599616101281526038,-200
1710864452262,599616101289191142,-267
1710864452269,599616101296856246,-337
1710864452277,599616101304521350,-309
1710864452285,599616101312186454,-203
1710864452292,599616101319851558,-109
1710864452300,599616101327516662,-136
1710864452308,599616101335181766,-208
1710864452315,599616101342846870,-123
1710864452323,599616101350511974,-42
1710864452331,599616101358177078,-111
1710864452337,599616101365842182,-156
1710864452345,599616101373507286,-123
1710864452353,599616101381172390,-116
1710864452361,599616101388837494,-146
1710864452369,599616101396502598,-185
1710864452377,599616101404167702,-227
1710864452384,599616101411832806,-240
1710864452392,599616101419497910,-200
1710864452400,599616101427163014,-146
1710864452407,599616101434828118,-175
1710864452415,599616101442493222,-277
1710864452423,599616101450158326,-280
1710864452430,599616101457853548,-188
1710864452438,599616101465518234,-156
1710864452446,599616101473182920,-193
1710864452453,599616101480847606,-250
1710864452461,599616101488512292,-287
1710864452469,599616101496176978,-284
1710864452476,599616101503841664,-302
1710864452484,599616101511506350,-332
1710864452492,599616101519171036,-337
1710864452499,599616101526835722,-408
1710864452507,599616101534500408,-458
1710864452515,599616101542165094,-376
1710864452521,599616101549829780,-381
1710864452529,599616101557494466,-418
1710864452537,599616101565159152,-284
1710864452545,599616101572823838,-213
1710864452553,599616101580488524,-317
1710864452561,599616101588153210,-339
1710864452568,599616101595817896,-255
1710864452576,599616101603482582,-250
1710864452584,599616101611147268,-294
1710864452591,599616101618811954,-275
1710864452599,599616101626476640,-255
1710864452607,599616101634141326,-312
1710864452614,599616101641806012,-324
1710864452622,599616101649470698,-225
1710864452630,599616101657135384,-203
1710864452637,599616101664800070,-260
1710864452645,599616101672464756,-146
1710864452653,599616101680129442,242
1710864452660,599616101687794128,552
1710864452668,599616101695458814,66
1710864452676,599616101703123500,-760
1710864452683,599616101710788186,-731
1710864452691,599616101718452872,-312
1710864452699,599616101726117558,-349
1710864452705,599616101733782244,-403
1710864452713,599616101741446930,-198
1710864452721,599616101749111616,-143
1710864452729,599616101756776302,-280
1710864452737,599616101764440988,-227
1710864452745,599616101772105674,-76
1710864452752,599616101779770360,-99
1710864452760,599616101787435046,-136
1710864452768,599616101795099732,-81
1710864452775,599616101802764418,-86
1710864452783,599616101810429104,-116
1710864452791,599616101818093790,-49
1710864452798,599616101825758476,37
1710864452806,599616101833423162,-14
1710864452814,599616101841087848,-101
1710864452821,599616101848752534,-52
1710864452829,599616101856417220,-7
1710864452837,599616101864081906,-61
1710864452844,599616101871746592,-91
1710864452852,599616101879411278,-64
1710864452860,599616101887075964,-12
1710864452867,599616101894740650,9
1710864452875,599616101902405336,-7
1710864452883,599616101910070022,22
1710864452889,599616101917734708,74
1710864452897,599616101925399394,54
1710864452905,599616101933064080,-2
1710864452913,599616101940728766,-39
1710864452921,599616101948393452,-96
1710864452929,599616101956058138,-156
1710864452936,599616101963722824,-151
1710864452944,599616101971387510,-96
1710864452952,599616101979052196,-94
1710864452959,599616101986716882,-146
1710864452967,599616101994381568,-156
1710864452975,599616102002046254,-111
1710864452982,599616102009710940,-128
1710864452990,599616102017345554,-198
1710864452998,599616102025010658,-213
1710864453005,599616102032675762,-265
1710864453013,599616102040340866,-346
1710864453021,599616102048005970,-339
1710864453028,599616102055671074,-379
1710864453036,599616102063336178,-441
1710864453044,599616102071001282,-324
1710864453051,599616102078666386,-255
1710864453059,599616102086331490,-329
1710864453065,599616102093996594,-280
1710864453073,599616102101661698,-163
1710864453081,599616102109326802,-168
1710864453089,599616102116991906,-213
1710864453097,599616102124657010,-225
1710864453105,599616102132322114,-223
1710864453112,599616102139987218,-198
1710864453120,599616102147652322,-175
1710864453128,599616102155317426,-138
1710864453135,599616102162982530,-94
1710864453143,599616102170647634,-133
1710864453151,599616102178312738,-170
1710864453158,599616102185977842,-113
1710864453166,599616102193642946,-109
1710864453174,599616102201308050,-213
1710864453181,599616102208973154,-213
1710864453189,599616102216638258,37
1710864453197,599616102224303362,398
1710864453204,599616102231968466,560
1710864453212,599616102239633570,128
1710864453220,599616102247298674,-525
1710864453227,599616102254963778,-527
1710864453235,599616102262628882,-190
1710864453243,599616102270293986,-151
1710864453249,599616102277959090,-170
1710864453257,599616102285624194,-133
1710864453265,599616102293289298,-168
1710864453273,599616102300954402,-136
1710864453281,599616102308619506,-37
1710864453289,599616102316284610,-42
1710864453296,599616102323949714,-56
1710864453304,599616102331614818,-4
1710864453312,599616102339279922,19
1710864453319,599616102346945026,-7
1710864453327,599616102354610130,-32
1710864453335,599616102362275234,-54
1710864453342,599616102369940338,-71
1710864453350,599616102377605442,-61
1710864453358,599616102385270546,-32
1710864453365,599616102392935650,2
1710864453373,599616102400600754,22
1710864453381,599616102408265858,37
1710864453388,599616102415930962,34
1710864453396,599616102423596066,-7
1710864453404,599616102431261170,29
1710864453411,599616102438926274,116
1710864453419,599616102446591378,66
1710864453427,599616102454256482,-17
1710864453433,599616102461921586,2
1710864453441,599616102469586690,-37
1710864453449,599616102477251794,-116
1710864453457,599616102484916898,-76
1710864453465,599616102492582002,-71
1710864453473,599616102500247106,-158
1710864453480,599616102507912210,-173
1710864453488,599616102515577314,-113
1710864453496,599616102523242418,-123
1710864453503,599616102530907522,-205
1710864453511,599616102538572626,-218
1710864453519,599616102546237730,-170
1710864453526,599616102553902834,-180
1710864453534,599616102561567938,-230
1710864453542,599616102569233042,-277
1710864453549,599616102576898170,-297
1710864453557,599616102584563274,-195
1710864453565,599616102592228378,-116
1710864453572,599616102599893482,-255
1710864453580,599616102607558586,-329
1710864453588,599616102615223690,-175
1710864453595,599616102622888794,-84
1710864453603,599616102630553898,-116
1710864453611,599616102638219002,-138
1710864453617,599616102645884106,-166
1710864453625,599616102653549210,-151
1710864453633,599616102661214314,-113
1710864453641,599616102668879418,-161
1710864453649,599616102676544522,-180
1710864453657,599616102684209626,-126
1710864453664,599616102691874730,-111
1710864453672,599616102699539834,-146
1710864453680,599616102707204938,-190
1710864453687,599616102714870042,-190
1710864453695,599616102722535146,-133
1710864453703,599616102730200250,-131
1710864453710,599616102737865354,-146
1710864453718,599616102745530458,-52
1710864453726,599616102753195562,104
1710864453733,599616102760860666,364
1710864453741,599616102768525770,686
1710864453749,599616102776190874,455
1710864453756,599616102783855978,-292
1710864453764,599616102791521082,-446
1710864453772,599616102799186186,-34
1710864453779,599616102806851290,61
1710864453787,599616102814516394,-56
1710864453795,599616102822181498,-49
1710864453801,599616102829846602,-4
1710864453809,599616102837511706,7
1710864453817,599616102845176810,14
1710864453825,599616102852841914,-32
1710864453833,599616102860507018,-89
1710864453841,599616102868172122,-64
1710864453848,599616102875837226,-29
1710864453856,599616102883502330,-89
1710864453864,599616102891167434,-168
1710864453871,599616102898832538,-138
1710864453879,599616102906497642,-86
1710864453887,599616102914162746,-96
1710864453894,599616102921827850,-116
1710864453902,599616102929492954,-126
1710864453910,599616102937158058,-109
1710864453917,599616102944823162,-54
1710864453925,599616102952488266,-12
1710864453933,599616102960153370,14
1710864453940,599616102967818474,34
1710864453948,599616102975483578,14
1710864453956,599616102983148682,-7
1710864453963,599616102990813786,37
1710864453971,599616102998478890,52
1710864453979,599616103006143994,-27
1710864453985,599616103013809098,-52
1710864453993,599616103021474202,-34
1710864454001,599616103029139306,-148
1710864454009,599616103036804410,-299
1710864454017,599616103044469514,-334
1710864454025,599616103052134618,-334
1710864454032,599616103059799722,-394
1710864454040,599616103067464826,-455
1710864454048,599616103075129930,-451
1710864454055,599616103082795034,-431
1710864454063,599616103090460138,-406
1710864454071,599616103098125242,-391
1710864454078,599616103105790346,-421
1710864454086,599616103113455450,-446
1710864454094,599616103121120554,-465
1710864454101,599616103128785658,-441
1710864454109,599616103136480882,-337
1710864454117,599616103144145568,-287
1710864454124,599616103151810254,-307
1710864454132,599616103159474940,-304
1710864454140,599616103167139626,-304
1710864454147,599616103174804312,-284
1710864454155,599616103182468998,-235
1710864454163,599616103190133684,-210
1710864454169,599616103197798370,-200
1710864454177,599616103205463056,-227
1710864454185,599616103213127742,-337
1710864454193,599616103220792428,-426
1710864454201,599616103228457114,-376
1710864454209,599616103236121800,-277
1710864454216,599616103243786486,-270
1710864454224,599616103251451172,-297
1710864454232,599616103259115858,-284
1710864454239,599616103266780544,-289
1710864454247,599616103274445230,-275
1710864454255,599616103282109916,-76
1710864454262,599616103289774602,334
1710864454270,599616103297439288,542
1710864454278,599616103305103974,12
1710864454285,599616103312768660,-651
1710864454293,599616103320433346,-535
1710864454301,599616103328098032,-215
1710864454308,599616103335762718,-220
1710864454316,599616103343427404,-188
1710864454324,599616103351092090,-116
1710864454331,599616103358756776,-158
1710864454339,599616103366421462,-168
1710864454347,599616103374086148,-113
1710864454353,599616103381750834,-94
1710864454361,599616103389415520,-94
1710864454369,599616103397080206,-89
1710864454377,599616103404744892,-104
1710864454385,599616103412409578,-79
1710864454393,599616103420074264,-32
1710864454400,599616103427738950,-64
1710864454408,599616103435403636,-118
1710864454416,599616103443068322,-99
1710864454423,599616103450733008,-52
1710864454431,599616103458397694,-32
1710864454439,599616103466062380,0
1710864454446,599616103473727066,24
1710864454454,599616103481391752,14
1710864454462,599616103489056438,52
1710864454469,599616103496721124,148
1710864454477,599616103504385810,215
1710864454485,599616103512050496,175
1710864454492,599616103519715182,109
1710864454500,599616103527379868,138
1710864454508,599616103535044554,168
1710864454515,599616103542709240,69
1710864454523,599616103550373926,-54
1710864454531,599616103558038612,-84
1710864454537,599616103565703298,-37
1710864454545,599616103573367984,-17
1710864454553,599616103581032670,-79
1710864454561,599616103588697356,-161
1710864454569,599616103596362042,-257
1710864454577,599616103604026728,-319
1710864454584,599616103611691414,-287
1710864454592,599616103619356100,-257
1710864454600,599616103627020786,-265
1710864454607,599616103634685472,-252
1710864454615,599616103642350158,-223
1710864454623,599616103650014844,-193
1710864454630,599616103657679530,-175
1710864454638,599616103665344216,-168
1710864454646,599616103673008902,-175
1710864454653,599616103680673588,-178
1710864454661,599616103688338274,-151
1710864454668,599616103695972884,-123
1710864454676,599616103703637988,-106
1710864454684,599616103711303092,-61
1710864454691,599616103718968196,-17
1710864454699,599616103726633300,-9
1710864454707,599616103734298404,-14
1710864454713,599616103741963508,-39
1710864454721,599616103749628612,-81
1710864454729,599616103757293716,-81
1710864454737,599616103764958820,-76
1710864454745,599616103772623924,-91
1710864454753,599616103780289028,-74
1710864454760,599616103787954132,-111
1710864454768,599616103795619236,-230
1710864454776,599616103803284340,-153
1710864454783,599616103810949444,203
1710864454791,599616103818614548,584
1710864454799,599616103826279652,512
1710864454806,599616103833944756,-170
1710864454814,599616103841609860,-629
1710864454822,599616103849274964,-408
1710864454829,599616103856940068,-190
1710864454837,599616103864605172,-227
1710864454845,599616103872270276,-195
1710864454852,599616103879935380,-104
1710864454860,599616103887600484,-91
1710864454868,599616103895265588,-111
1710864454875,599616103902930692,-66
1710864454883,599616103910595796,-24
1710864454891,599616103918260900,-89
1710864454897,599616103925926004,-101
1710864454905,599616103933591108,9
1710864454913,599616103941256212,24
1710864454921,599616103948921316,-76
1710864454929,599616103956586420,-74
1710864454937,599616103964251524,-12
1710864454944,599616103971916628,-47
1710864454952,599616103979581732,-89
1710864454960,599616103987246836,-22
1710864454967,599616103994911940,52
1710864454975,599616104002577044,27
1710864454983,599616104010242148,12
1710864454990,599616104017907252,76
1710864454998,599616104025572356,96
1710864455006,599616104033237460,91
1710864455013,599616104040902564,151
1710864455021,599616104048567668,59
1710864455029,599616104056232772,-126
1710864455036,599616104063897876,-76
1710864455044,599616104071562980,14
1710864455052,599616104079228084,-118
1710864455059,599616104086893188,-247
1710864455067,599616104094558292,-170
1710864455075,599616104102223396,-101
1710864455081,599616104109888500,-213
1710864455089,599616104117553604,-275
1710864455097,599616104125218708,-151
1710864455105,599616104132883812,-22
1710864455113,599616104140548916,-79
1710864455121,599616104148214020,-307
1710864455128,599616104155879124,-418
1710864455136,599616104163544228,-307
1710864455144,599616104171209332,-215
1710864455151,599616104178874436,-240
1710864455159,599616104186539540,-245
1710864455167,599616104194204644,-235
1710864455174,599616104201869748,-275
1710864455182,599616104209534852,-262
1710864455190,599616104217199956,-213
1710864455197,599616104224865060,-282
1710864455205,599616104232530164,-275
1710864455213,599616104240195268,-96
1710864455220,599616104247860372,-37
1710864455228,599616104255525500,-101
1710864455236,599616104263190604,-106
1710864455243,599616104270855708,-118
1710864455251,599616104278520812,-148
1710864455259,599616104286185916,-94
1710864455265,599616104293851020,-59
1710864455273,599616104301516124,-146
1710864455281,599616104309181228,-213
1710864455289,599616104316846332,-153
1710864455297,599616104324511436,-79
1710864455305,599616104332176540,-14
1710864455312,599616104339841644,232
1710864455320,599616104347506748,579
1710864455328,599616104355171852,277
1710864455335,599616104362836956,-582
1710864455343,599616104370502060,-738
1710864455351,599616104378167164,-287
1710864455358,599616104385832268,-168
1710864455366,599616104393497372,-242
1710864455374,599616104401162476,-218
1710864455381,599616104408827580,-227
1710864455389,599616104416492684,-245
1710864455397,599616104424157788,-151
1710864455404,599616104431822892,-27
1710864455412,599616104439487996,-76
1710864455420,599616104447153100,-205
1710864455427,599616104454818204,-143
1710864455435,599616104462483308,-4
1710864455443,599616104470148412,9
1710864455449,599616104477813516,-66
1710864455457,599616104485478620,-59
1710864455465,599616104493143724,47
1710864455473,599616104500808828,54
1710864455481,599616104508473932,14
1710864455489,599616104516139036,66
1710864455496,599616104523804140,86
1710864455504,599616104531469244,34
1710864455512,599616104539134348,76
1710864455519,599616104546799452,128
1710864455527,599616104554464556,42
1710864455535,599616104562129660,-17
1710864455542,599616104569794764,0
1710864455550,599616104577459868,-32
1710864455558,599616104585124972,-39
1710864455565,599616104592790076,-12
1710864455573,599616104600455180,-32
1710864455581,599616104608120284,-96
1710864455588,599616104615785388,-188
1710864455596,599616104623450492,-210
1710864455604,599616104631115596,-178
1710864455611,599616104638780700,-185
1710864455619,599616104646445804,-161
1710864455627,599616104654110908,-121
1710864455633,599616104661776012,-138
1710864455641,599616104669441116,-166
1710864455649,599616104677106220,-170
1710864455657,599616104684771324,-170
1710864455665,599616104692436428,-195
1710864455673,599616104700101532,-213
1710864455680,599616104707766636,-213
1710864455688,599616104715431740,-185
1710864455696,599616104723096844,-148
1710864455703,599616104730761948,-188
1710864455711,599616104738427052,-240
1710864455719,599616104746092156,-220
1710864455726,599616104753757260,-188
1710864455734,599616104761422364,-180
1710864455742,599616104769087468,-180
1710864455749,599616104776752572,-131
1710864455757,599616104784417676,-89
1710864455765,599616104792082780,-156
1710864455772,599616104799747884,-188
1710864455780,599616104807412988,-153
1710864455788,599616104815108212,-200
1710864455795,599616104822772898,-240
1710864455803,599616104830437584,-245
1710864455811,599616104838102270,-314
1710864455817,599616104845766956,-339
1710864455825,599616104853431642,-230
1710864455833,599616104861096328,-54
1710864455841,599616104868761014,208
1710864455849,599616104876425700,406
1710864455857,599616104884090386,-27
1710864455864,599616104891755072,-768
1710864455872,599616104899419758,-788
1710864455880,599616104907084444,-458
1710864455887,599616104914749130,-480
1710864455895,599616104922413816,-411
1710864455903,599616104930078502,-151
1710864455910,599616104937743188,-190
1710864455918,599616104945407874,-356
1710864455926,599616104953072560,-327
1710864455933,599616104960737246,-270
1710864455941,599616104968401932,-260
1710864455949,599616104976066618,-200
1710864455956,599616104983731304,-143
1710864455964,599616104991395990,-193
1710864455972,599616104999060676,-225
1710864455979,599616105006725362,-116
1710864455987,599616105014390048,-61
1710864455995,599616105022054734,-116
1710864456001,599616105029719420,-113
1710864456009,599616105037384106,-74
1710864456017,599616105045048792,-71
1710864456025,599616105052713478,-52
1710864456033,599616105060378164,-34
1710864456041,599616105068042850,-116
1710864456048,599616105075707536,-218
1710864456056,599616105083372222,-227
1710864456064,599616105091036908,-252
1710864456071,599616105098701594,-262
1710864456079,599616105106366280,-148
1710864456087,599616105114030966,-94
1710864456094,599616105121695652,-195
1710864456102,599616105129360338,-237
1710864456110,599616105137025024,-183
1710864456117,599616105144689710,-205
1710864456125,599616105152354396,-302
1710864456133,599616105160019082,-337
1710864456140,599616105167683768,-260
1710864456148,599616105175348454,-232
1710864456156,599616105183013140,-289
1710864456163,599616105190677826,-304
1710864456171,599616105198342512,-309
1710864456179,599616105206007198,-319
1710864456185,599616105213671884,-317
1710864456193,599616105221336570,-351
1710864456201,599616105229001256,-334
1710864456209,599616105236665942,-250
1710864456217,599616105244330628,-232
1710864456224,599616105251995314,-260
1710864456232,599616105259660000,-242
1710864456240,599616105267324686,-218
1710864456247,599616105274989372,-235
1710864456255,599616105282654058,-240
1710864456263,599616105290318744,-220
1710864456270,599616105297983430,-245
1710864456278,599616105305648116,-267
1710864456286,599616105313312802,-265
1710864456293,599616105320977488,-284
1710864456301,599616105328642174,-294
1710864456309,599616105336306860,-270
1710864456316,599616105343971546,-242
1710864456324,599616105351636232,-240
1710864456332,599616105359300918,-240
1710864456339,599616105366965604,-225
1710864456347,599616105374600216,-250
1710864456355,599616105382265320,-158
1710864456361,599616105389930424,240
1710864456369,599616105397595528,530
1710864456377,599616105405260632,79
1710864456385,599616105412925736,-674
1710864456393,599616105420590840,-728
1710864456401,599616105428255944,-381
1710864456408,599616105435921048,-317
1710864456416,599616105443586152,-304
1710864456424,599616105451251256,-158
1710864456431,599616105458916360,-104
1710864456439,599616105466581464,-163
1710864456447,599616105474246568,-163
1710864456454,599616105481911672,-96
1710864456462,599616105489576776,-49
1710864456470,599616105497241880,-29
1710864456477,599616105504906984,-4
1710864456485,599616105512572088,22
1710864456493,599616105520237192,42
1710864456500,599616105527902296,2
1710864456508,599616105535567400,-7
1710864456516,599616105543232504,113
1710864456523,599616105550897608,170
1710864456531,599616105558562712,76
1710864456539,599616105566227816,2
1710864456545,599616105573892920,49
1710864456553,599616105581558024,156
1710864456561,599616105589223128,128
1710864456569,599616105596888232,4
1710864456577,599616105604553336,89
1710864456585,599616105612218440,275
1710864456592,599616105619883544,250
1710864456600,599616105627548648,143
1710864456608,599616105635213752,133
1710864456615,599616105642878856,116
1710864456623,599616105650543960,56
1710864456631,599616105658209064,12
1710864456638,599616105665874168,27
1710864456646,599616105673539272,27
1710864456654,599616105681204376,-56
1710864456661,599616105688869480,-84
1710864456669,599616105696534584,-24
1710864456677,599616105704199688,19
1710864456684,599616105711864792,14
1710864456692,599616105719529896,14
1710864456700,599616105727195000,52
1710864456707,599616105734860104,34
1710864456715,599616105742525208,-22
1710864456723,599616105750190312,-2
1710864456729,599616105757855416,0
1710864456737,599616105765520520,-44
1710864456745,599616105773185624,-4
1710864456753,599616105780850728,52
1710864456761,599616105788515832,-2
1710864456769,599616105796180936,-19
1710864456776,599616105803846040,34
1710864456784,599616105811511144,-37
1710864456792,599616105819176248,-146
1710864456799,599616105826841352,-126
1710864456807,599616105834506456,-91
1710864456815,599616105842171560,-126
1710864456822,599616105849836664,-133
1710864456830,599616105857501768,-126
1710864456838,599616105865166872,-151
1710864456845,599616105872831976,-128
1710864456853,599616105880497080,-141
1710864456861,599616105888162184,-242
1710864456868,599616105895827288,-230
1710864456876,599616105903492392,-71
1710864456884,599616105911157496,153
1710864456891,599616105918822600,413
1710864456899,599616105926487704,379
1710864456907,599616105934182928,-227
1710864456913,599616105941847614,-706
1710864456921,599616105949512300,-535
1710864456929,599616105957176986,-369
1710864456937,599616105964841672,-384
1710864456945,599616105972506358,-220
1710864456953,599616105980171044,-141
1710864456960,599616105987835730,-260
1710864456968,599616105995500416,-275
1710864456976,599616106003165102,-218
1710864456983,599616106010829788,-240
1710864456991,599616106018494474,-205
1710864456999,599616106026159160,-113
1710864457006,599616106033823846,-99
1710864457014,599616106041488532,-136
1710864457022,599616106049153218,-173
1710864457029,599616106056817904,-188
1710864457037,599616106064482590,-198
1710864457045,599616106072147276,-183
1710864457052,599616106079811962,-153
1710864457060,599616106087476648,-180
1710864457068,599616106095141334,-213
1710864457075,599616106102806020,-163
1710864457083,599616106110470706,-49
1710864457091,599616106118135392,17
1710864457097,599616106125800078,-49
1710864457105,599616106133464764,-104
1710864457113,599616106141129450,-19
1710864457121,599616106148794136,34
1710864457129,599616106156458822,-2
1710864457137,599616106164123508,-22
1710864457144,599616106171788194,-12
1710864457152,599616106179452880,-32
1710864457160,599616106187117566,-89
1710864457167,599616106194782252,-175
1710864457175,599616106202446938,-193
1710864457183,599616106210111624,-101
1710864457190,599616106217776310,-89
1710864457198,599616106225440996,-151
1710864457206,599616106233105682,-158
1710864457213,599616106240770368,-151
1710864457221,599616106248435054,-151
1710864457229,599616106256099740,-128
1710864457236,599616106263764426,-123
1710864457244,599616106271429112,-156
1710864457252,599616106279093798,-175
1710864457259,599616106286758484,-148
1710864457267,599616106294423170,-146
1710864457275,599616106302087856,-193
1710864457281,599616106309752542,-223
1710864457289,599616106317417228,-245
1710864457297,599616106325081914,-235
1710864457305,599616106332746600,-175
1710864457313,599616106340411286,-185
1710864457321,599616106348075972,-205
1710864457328,599616106355740658,-166
1710864457336,599616106363405344,-190
1710864457344,599616106371070030,-282
1710864457351,599616106378734716,-277
1710864457359,599616106386399402,-210
1710864457367,599616106394064088,-220
1710864457374,599616106401728774,-257
1710864457382,599616106409393460,-287
1710864457390,599616106417058146,-282
1710864457397,599616106424722832,-213
1710864457405,599616106432387518,-44
1710864457413,599616106440052204,299
1710864457420,599616106447716890,535
1710864457428,599616106455381576,27
1710864457436,599616106463046262,-721
1710864457443,599616106470710948,-607
1710864457451,599616106478375634,-245
1710864457459,599616106486040320,-376
1710864457465,599616106493674930,-423
1710864457473,599616106501340034,-210
1710864457481,599616106509005138,-156
1710864457489,599616106516670242,-198
1710864457497,599616106524335346,-156
1710864457504,599616106532000450,-146
1710864457512,599616106539665554,-178
1710864457520,599616106547330658,-188
1710864457527,599616106554995762,-153
1710864457535,599616106562660866,-138
1710864457543,599616106570325970,-232
1710864457550,599616106577991074,-337
1710864457558,599616106585656178,-284
1710864457566,599616106593321282,-161
1710864457573,599616106600986386,-168
1710864457581,599616106608651490,-218
1710864457589,599616106616316594,-156
1710864457596,599616106623981698,-79
1710864457604,599616106631646802,-66
1710864457612,599616106639311906,-69
1710864457619,599616106646977010,-56
1710864457627,599616106654642114,-42
1710864457635,599616106662307218,7
1710864457641,599616106669972322,76
1710864457649,599616106677637426,37
1710864457657,599616106685302530,-37
1710864457665,599616106692967634,-29
1710864457673,599616106700632738,-29
1710864457681,599616106708297842,-69
1710864457688,599616106715962946,-71
1710864457696,599616106723628050,-47
1710864457704,599616106731293154,-109
1710864457711,599616106738958258,-195
1710864457719,599616106746623362,-161
1710864457727,599616106754288466,-106
1710864457734,599616106761953570,-180
1710864457742,599616106769618674,-262
1710864457750,599616106777283778,-232
1710864457757,599616106784948882,-205
1710864457765,599616106792613986,-237
1710864457773,599616106800279090,-232
1710864457780,599616106807944194,-188
1710864457788,599616106815609298,-210
1710864457796,599616106823274402,-284
1710864457803,599616106830939506,-299
1710864457811,599616106838604610,-282
1710864457819,599616106846269714,-270
1710864457825,599616106853934818,-208
1710864457833,599616106861599922,-170
1710864457841,599616106869265026,-215
1710864457849,599616106876930130,-255
1710864457857,599616106884595234,-265
1710864457865,599616106892260338,-250
1710864457872,599616106899925442,-242
1710864457880,599616106907590546,-287
1710864457888,599616106915255650,-312
1710864457895,599616106922920754,-349
1710864457903,599616106930585858,-379
1710864457911,599616106938250962,-284
1710864457918,599616106945916066,-161
1710864457926,599616106953581170,7
1710864457934,599616106961246274,366
1710864457941,599616106968911378,406
1710864457949,599616106976576482,-267
1710864457957,599616106984241586,-728
1710864457964,599616106991906690,-520
1710864457972,599616106999571794,-384
1710864457980,599616107007236898,-453
1710864457987,599616107014902002,-379
1710864457995,599616107022567106,-245
1710864458003,599616107030232210,-232
1710864458009,599616107037897314,-294
1710864458017,599616107045562418,-292
1710864458025,599616107053257642,-247
1710864458033,599616107060922328,-250
1710864458041,599616107068587014,-275
1710864458049,599616107076251700,-294
1710864458056,599616107083916386,-287
1710864458064,599616107091581072,-250
1710864458072,599616107099245758,-218
1710864458079,599616107106910444,-213
1710864458087,599616107114575130,-252
1710864458095,599616107122239816,-230
1710864458102,599616107129904502,-121
1710864458110,599616107137569188,-89
1710864458118,599616107145233874,-128
1710864458125,599616107152898560,-101
1710864458133,599616107160563246,-32
1710864458141,599616107168227932,-14
1710864458148,599616107175892618,-42
1710864458156,599616107183557304,-61
1710864458164,599616107191221990,-64
1710864458171,599616107198886676,-49
1710864458179,599616107206551362,7
1710864458187,599616107214216048,52
1710864458193,599616107221880734,7
1710864458201,599616107229545420,-59
1710864458209,599616107237210106,-94
1710864458217,599616107244874792,-131
1710864458225,599616107252539478,-163
1710864458233,599616107260204164,-190
1710864458240,599616107267868850,-153
1710864458248,599616107275533536,-106
1710864458256,599616107283198222,-148
1710864458263,599616107290862908,-205
1710864458271,599616107298527594,-255
1710864458279,599616107306192280,-287
1710864458286,599616107313856966,-205
1710864458294,599616107321521652,-116
1710864458302,599616107329186338,-146
1710864458309,599616107336851024,-183
1710864458317,599616107344515710,-133
1710864458325,599616107352180396,-86
1710864458332,599616107359845082,-133
1710864458340,599616107367509768,-163
1710864458348,599616107375174454,-111
1710864458355,599616107382839140,-116
1710864458363,599616107390503826,-99
1710864458371,599616107398168512,-19
1710864458377,599616107405833198,-76
1710864458385,599616107413497884,-131
1710864458393,599616107421162570,-32
1710864458401,599616107428827256,-14
1710864458409,599616107436491942,-170
1710864458417,599616107444156628,-257
1710864458424,599616107451821314,-158
1710864458432,599616107459486000,-64
1710864458440,599616107467150686,-29
1710864458447,599616107474815372,190
1710864458455,599616107482480058,574
1710864458463,599616107490144744,512
1710864458470,599616107497809430,-185
1710864458478,599616107505474116,-589
1710864458486,599616107513138802,-337
1710864458493,599616107520803488,-158
1710864458501,599616107528468174,-242
1710864458509,599616107536132860,-227
1710864458516,599616107543797546,-138
1710864458524,599616107551462232,-161
1710864458532,599616107559126918,-193
1710864458539,599616107566791604,-190
1710864458547,599616107574456290,-163
1710864458555,599616107582120976,-136
1710864458561,599616107589785662,-205
1710864458569,599616107597450348,-230
1710864458577,599616107605115034,-106
1710864458585,599616107612749644,-39
1710864458593,599616107620414748,-118
1710864458601,599616107628079852,-109
1710864458608,599616107635744956,12
1710864458616,599616107643410060,19
1710864458624,599616107651075164,-37
1710864458631,599616107658740268,-47
1710864458639,599616107666405372,-14
1710864458647,599616107674070476,49
1710864458654,599616107681735580,71
1710864458662,599616107689400684,64
1710864458670,599616107697065788,96
1710864458677,599616107704730892,131
1710864458685,599616107712395996,94
1710864458693,599616107720061100,52
1710864458700,599616107727726204,96
1710864458708,599616107735391308,104
1710864458716,599616107743056412,-19
1710864458723,599616107750721516,-104
1710864458731,599616107758386620,-24
1710864458739,599616107766051724,32
1710864458745,599616107773716828,-29
1710864458753,599616107781381932,-101
1710864458761,599616107789047036,-116
1710864458769,599616107796712140,-76
1710864458777,599616107804377244,-81
1710864458785,599616107812042348,-121
1710864458792,599616107819707452,-94
1710864458800,599616107827372556,-94
1710864458808,599616107835037660,-153
1710864458815,599616107842702764,-99
1710864458823,599616107850367868,14
1710864458831,599616107858032972,-71
1710864458838,599616107865698076,-210
1710864458846,599616107873363180,-173
1710864458854,599616107881028284,-136
1710864458861,599616107888693388,-138
1710864458869,599616107896358492,-94
1710864458877,599616107904023596,-118
1710864458884,599616107911688700,-203
1710864458892,599616107919353804,-220
1710864458900,599616107927018908,-193
1710864458907,599616107934684012,-178
1710864458915,599616107942349116,-151
1710864458923,599616107950014220,-151
1710864458929,599616107957679324,-242
1710864458937,599616107965344428,-312
1710864458945,599616107973009532,-247
1710864458953,599616107980674636,-133
1710864458961,599616107988339740,86
1710864458969,599616107996004844,465
1710864458976,599616108003669948,374
1710864458984,599616108011335052,-413
1710864458991,599616108019000156,-733
1710864458999,599616108026665260,-287
1710864459007,599616108034330364,-166
1710864459014,599616108041995468,-413
1710864459022,599616108049660572,-364
1710864459030,599616108057325676,-175
1710864459037,599616108064990780,-195
1710864459045,599616108072655884,-260
1710864459053,599616108080320988,-250
1710864459060,599616108087986092,-272
1710864459068,599616108095651196,-287
1710864459076,599616108103316300,-262
1710864459083,599616108110981404,-272
1710864459091,599616108118646508,-277
1710864459099,599616108126311612,-227
1710864459105,599616108133976716,-133
1710864459113,599616108141641820,-74
1710864459121,599616108149306924,-121
1710864459129,599616108156972028,-118
1710864459137,599616108164637132,-7
1710864459145,599616108172302260,37
1710864459152,599616108179967364,14
1710864459160,599616108187632468,52
1710864459168,599616108195297572,94
1710864459175,599616108202962676,84
1710864459183,599616108210627780,121
1710864459191,599616108218292884,131
1710864459198,599616108225957988,24
1710864459206,599616108233623092,-47
1710864459214,599616108241288196,-19
1710864459221,599616108248953300,-2
1710864459229,599616108256618404,-79
1710864459237,599616108264283508,-203
1710864459244,599616108271948612,-257
1710864459252,599616108279613716,-247
1710864459260,599616108287278820,-227
1710864459267,599616108294943924,-252
1710864459275,599616108302609028,-282
1710864459283,599616108310274132,-240
1710864459289,599616108317939236,-225
1710864459297,599616108325604340,-262
1710864459305,599616108333269444,-223
1710864459313,599616108340934548,-168
1710864459321,599616108348599652,-223
1710864459329,599616108356264756,-250
1710864459336,599616108363929860,-185
1710864459344,599616108371594964,-141
1710864459352,599616108379260068,-131
1710864459359,599616108386925172,-121
1710864459367,599616108394590276,-121
1710864459375,599616108402255380,-195
1710864459382,599616108409920484,-299
1710864459390,599616108417585588,-287
1710864459398,599616108425250692,-225
1710864459405,599616108432915796,-215
1710864459413,599616108440580900,-198
1710864459421,599616108448246004,-170
1710864459428,599616108455911108,-185
1710864459436,599616108463576212,-198
1710864459444,599616108471241316,-175
1710864459451,599616108478906420,-223
1710864459459,599616108486571524,-314
1710864459467,599616108494236628,-148
1710864459473,599616108501901732,302
1710864459481,599616108509566836,540
1710864459489,599616108517231940,71
1710864459497,599616108524897044,-666
1710864459505,599616108532562148,-711
1710864459513,599616108540227252,-339
1710864459520,599616108547892356,-287
1710864459528,599616108555557460,-324
1710864459536,599616108563222564,-223
1710864459543,599616108570887668,-178
1710864459551,599616108578552772,-225
1710864459559,599616108586217876,-287
1710864459566,599616108593882980,-337
1710864459574,599616108601548084,-319
1710864459582,599616108609213188,-275
1710864459589,599616108616878292,-284
1710864459597,599616108624543396,-245
1710864459605,599616108632208500,-151
1710864459612,599616108639873604,-161
1710864459620,599616108647538708,-215
1710864459628,599616108655203812,-185
1710864459635,599616108662868916,-141
1710864459643,599616108670534020,-138
1710864459651,599616108678199124,-99
1710864459657,599616108685864228,-44
1710864459665,599616108693529332,-24
1710864459673,599616108701194436,-2
1710864459681,599616108708859540,-14
1710864459689,599616108716524644,-44
1710864459697,599616108724189748,2
1710864459704,599616108731884974,29
1710864459712,599616108739549660,4
1710864459720,599616108747214346,9
1710864459727,599616108754879032,-17
1710864459735,599616108762543718,-198
1710864459743,599616108770208404,-446
1710864459750,599616108777873090,-458
1710864459758,599616108785537776,-337
1710864459766,599616108793202462,-396
1710864459773,599616108800867148,-446
1710864459781,599616108808531834,-351
1710864459789,599616108816196520,-346
1710864459796,599616108823861206,-398
1710864459804,599616108831525892,-386
1710864459812,599616108839190578,-381
1710864459819,599616108846855264,-351
1710864459827,599616108854519950,-307
1710864459835,599616108862184636,-329
1710864459841,599616108869849322,-297
1710864459849,599616108877514008,-200
1710864459857,599616108885178694,-262
1710864459865,599616108892843380,-349
1710864459873,599616108900508066,-205
1710864459881,599616108908172752,-111
1710864459888,599616108915837438,-175
1710864459896,599616108923502124,-178
1710864459904,599616108931166810,-168
1710864459911,599616108938831496,-213
1710864459919,599616108946496182,-275
1710864459927,599616108954160868,-314
1710864459934,599616108961825554,-218
1710864459942,599616108969490240,-118
1710864459950,599616108977154926,-232
1710864459957,599616108984819612,-317
1710864459965,599616108992484298,-195
1710864459973,599616109000148984,-12
1710864459980,599616109007813670,267
1710864459988,599616109015478356,493
1710864459996,599616109023143042,49
1710864460003,599616109030807728,-733
1710864460011,599616109038472414,-822
1710864460019,599616109046137100,-493
1710864460025,599616109053801786,-391
1710864460033,599616109061466472,-304
1710864460041,599616109069131158,-190
1710864460049,599616109076795844,-227
1710864460057,599616109084460530,-297
1710864460065,599616109092125216,-294
1710864460072,599616109099789902,-262
1710864460080,599616109107454588,-232
1710864460088,599616109115119274,-210
1710864460095,599616109122783960,-237
1710864460103,599616109130448646,-294
1710864460111,599616109138113332,-297
1710864460118,599616109145778018,-230
1710864460126,599616109153442704,-158
1710864460134,599616109161107390,-158
1710864460141,599616109168772076,-198
1710864460149,599616109176436762,-131
1710864460157,599616109184101448,-47
1710864460164,599616109191766134,-64
1710864460172,599616109199430820,-42
1710864460180,599616109207095506,54
1710864460187,599616109214760192,116
1710864460195,599616109222424878,128
1710864460203,599616109230089564,131
1710864460209,599616109237754250,163
1710864460217,599616109245418936,210
1710864460225,599616109253083622,143
1710864460233,599616109260748308,-4
1710864460241,599616109268412994,-4
1710864460249,599616109276077680,76
1710864460256,599616109283742366,61
1710864460264,599616109291376976,4
1710864460272,599616109299042080,-27
1710864460279,599616109306707184,-81
1710864460287,599616109314372288,-136
1710864460295,599616109322037392,-101
1710864460302,599616109329702496,-27
1710864460310,599616109337367600,-22
1710864460318,599616109345032704,0
1710864460325,599616109352697808,49
1710864460333,599616109360362912,-64
1710864460341,599616109368028016,-200
1710864460348,599616109375693120,-168
1710864460356,599616109383358224,-153
1710864460364,599616109391023328,-146
1710864460371,599616109398688432,-84
1710864460379,599616109406353536,-84
1710864460387,599616109414018640,-113
1710864460393,599616109421683744,-94
1710864460401,599616109429348848,-66
1710864460409,599616109437013952,-79
1710864460417,599616109444679056,-113
1710864460425,599616109452344160,-118
1710864460433,599616109460009264,-106
1710864460440,599616109467674368,-126
1710864460448,599616109475339472,-131
1710864460456,599616109483004576,-166
1710864460463,599616109490669680,-250
1710864460471,599616109498334784,-227
1710864460478,599616109505999888,-101
1710864460486,599616109513664992,116
1710864460494,599616109521330096,413
1710864460501,599616109528995200,223
1710864460509,599616109536660304,-522
1710864460517,599616109544325408,-758
1710864460524,599616109551990512,-431
1710864460532,599616109559655616,-319
1710864460540,599616109567320720,-304
1710864460547,599616109574985824,-227
1710864460555,599616109582650928,-267
1710864460563,599616109590316032,-317
1710864460569,599616109597981136,-262
1710864460577,599616109605646240,-220
1710864460585,599616109613311344,-237
1710864460593,599616109620976448,-237
1710864460601,599616109628641552,-215
1710864460609,599616109636306656,-218
1710864460616,599616109643971760,-208
1710864460624,599616109651636864,-163
1710864460632,599616109659301968,-118
1710864460639,599616109666967072,-158
1710864460647,599616109674632176,-195
1710864460655,599616109682297280,-156
1710864460662,599616109689962384,-170
1710864460670,599616109697627488,-180
1710864460678,599616109705292592,-81
1710864460685,599616109712957696,-17
