phoneTimestamp,sensorTimestamp,ecg
1712089049694,599616078533124186,18097
1712089049701,599616078540789429,18111
1712089049709,599616078548454672,18006
1712089049716,599616078556119915,17932
1712089049724,599616078563785158,17841
1712089049732,599616078571450401,17735
1712089049739,599616078579115644,17763
1712089049747,599616078586780887,17802
1712089049755,599616078594446130,17694
1712089049761,599616078602111373,17538
1712089049769,599616078609776616,17410
1712089049777,599616078617441859,17311
1712089049785,599616078625107102,17252
1712089049793,599616078632772345,17247
1712089049801,599616078640437588,17270
1712089049808,599616078648102831,17130
1712089049816,599616078655768074,16860
1712089049824,599616078663433317,16732
1712089049831,599616078671098560,16709
1712089049839,599616078678763803,16798
1712089049847,599616078686429046,16826
1712089049854,599616078694094289,16336
1712089049862,599616078701759532,15820
1712089049870,599616078709424775,15880
1712089049877,599616078717090018,15912
1712089049885,599616078724755261,15557
1712089049893,599616078732420504,15412
1712089049900,599616078740085747,15442
1712089049908,599616078747750990,15160
1712089049916,599616078755416233,14918
1712089049923,599616078763081476,14924
1712089049931,599616078770746719,14858
1712089049939,599616078778411962,14798
1712089049945,599616078786077205,14780
1712089049953,599616078793742448,14556
1712089049961,599616078801407691,14313
1712089049969,599616078809072934,14301
1712089049977,599616078816738177,14322
1712089049985,599616078824403420,14203
1712089049992,599616078832068663,14003
1712089050000,599616078839733906,13777
1712089050008,599616078847399149,13571
1712089050015,599616078855064392,13447
1712089050023,599616078862729635,13369
1712089050031,599616078870394878,13298
1712089050038,599616078878060121,13229
1712089050046,599616078885725364,13069
1712089050054,599616078893390607,12847
1712089050061,599616078901055850,12711
1712089050069,599616078908721093,12640
1712089050077,599616078916386336,12565
1712089050084,599616078924051579,12487
1712089050092,599616078931716822,12354
1712089050100,599616078939382065,12162
1712089050107,599616078947047308,12008
1712089050115,599616078954712551,11992
1712089050123,599616078962377794,12006
1712089050129,599616078970043037,11825
1712089050137,599616078977708280,11529
1712089050145,599616078985373523,11342
1712089050153,599616078993038766,11216
1712089050161,599616079000704009,11025
1712089050169,599616079008369252,10856
1712089050176,599616079016034495,10764
1712089050184,599616079023699738,10663
1712089050192,599616079031364981,10531
1712089050199,599616079039030224,10356
1712089050207,599616079046695467,10214
1712089050215,599616079054360710,10171
1712089050222,599616079062025953,10086
1712089050230,599616079069691196,9942
1712089050238,599616079077356439,9855
1712089050245,599616079085021682,9754
1712089050253,599616079092646798,9598
1712089050261,599616079100312599,9529
1712089050268,599616079107978400,9481
1712089050276,599616079115644201,9348
1712089050284,599616079123310002,9261
1712089050291,599616079130975803,9179
1712089050299,599616079138641604,9012
1712089050307,599616079146307405,8906
1712089050313,599616079153973206,8844
1712089050321,599616079161639007,8689
1712089050329,599616079169304808,8563
1712089050337,599616079176970609,8579
1712089050345,599616079184636410,8556
1712089050353,599616079192302211,8320
1712089050360,599616079199968012,8091
1712089050368,599616079207633813,8027
1712089050376,599616079215299614,7960
1712089050383,599616079222965415,7958
1712089050391,599616079230631216,8011
1712089050399,599616079238297017,7903
1712089050406,599616079245962818,7481
1712089050414,599616079253628619,6812
1712089050422,599616079261294420,6638
1712089050429,599616079268960221,7097
1712089050437,599616079276626022,7245
1712089050445,599616079284291823,7007
1712089050452,599616079291957624,6936
1712089050460,599616079299623425,6916
1712089050468,599616079307289226,6801
1712089050475,599616079314955027,6758
1712089050483,599616079322620828,6739
1712089050491,599616079330286629,6638
1712089050497,599616079337952430,6524
1712089050505,599616079345618231,6439
1712089050513,599616079353284032,6373
1712089050521,599616079360949833,6331
1712089050529,599616079368615634,6295
1712089050537,599616079376281435,6221
1712089050544,599616079383947236,6107
1712089050552,599616079391613037,6008
1712089050560,599616079399278838,5963
1712089050567,599616079406944639,5928
1712089050575,599616079414610440,5894
1712089050583,599616079422276241,5850
1712089050590,599616079429942042,5747
1712089050598,599616079437607843,5635
1712089050606,599616079445273644,5612
1712089050613,599616079452939445,5594
1712089050621,599616079460605246,5472
1712089050629,599616079468271047,5342
1712089050636,599616079475936848,5250
1712089050644,599616079483602649,5147
1712089050652,599616079491268450,5069
1712089050659,599616079498934251,5016
1712089050667,599616079506600052,4948
1712089050675,599616079514265853,4879
1712089050681,599616079521931654,4767
1712089050689,599616079529597455,4620
1712089050697,599616079537263256,4556
1712089050705,599616079544929057,4545
1712089050713,599616079552594858,4503
1712089050721,599616079560260659,4474
1712089050728,599616079567926460,4421
1712089050736,599616079575592261,4309
1712089050744,599616079583258062,4247
1712089050751,599616079590923863,4242
1712089050759,599616079598589664,4215
1712089050767,599616079606255465,4183
1712089050774,599616079613921266,4134
1712089050782,599616079621587067,4034
1712089050790,599616079629252868,3972
1712089050797,599616079636918669,3933
1712089050805,599616079644584470,3832
1712089050813,599616079652270366,3763
1712089050820,599616079659935888,3731
1712089050828,599616079667601410,3637
1712089050836,599616079675266932,3548
1712089050843,599616079682932454,3548
1712089050851,599616079690597976,3509
1712089050859,599616079698263498,3330
1712089050865,599616079705929020,3156
1712089050873,599616079713594542,3051
1712089050881,599616079721260064,2936
1712089050889,599616079728925586,2893
1712089050897,599616079736591108,2936
1712089050905,599616079744256630,2950
1712089050912,599616079751922152,2925
1712089050920,599616079759587674,2893
1712089050928,599616079767253196,2856
1712089050935,599616079774918718,2836
1712089050943,599616079782584240,2849
1712089050951,599616079790249762,2829
1712089050958,599616079797915284,2742
1712089050966,599616079805580806,2664
1712089050974,599616079813246328,2606
1712089050981,599616079820911850,2529
1712089050989,599616079828577372,2499
1712089050997,599616079836242894,2513
1712089051004,599616079843908416,2483
1712089051012,599616079851573938,2437
1712089051020,599616079859239460,2416
1712089051027,599616079866904982,2387
1712089051035,599616079874570504,2368
1712089051043,599616079882236026,2373
1712089051049,599616079889901548,2350
1712089051057,599616079897567070,2316
1712089051065,599616079905232592,2306
1712089051073,599616079912898114,2283
1712089051081,599616079920563636,2256
1712089051089,599616079928229158,2265
1712089051096,599616079935894680,2267
1712089051104,599616079943560202,2231
1712089051112,599616079951225724,2160
1712089051119,599616079958891246,2070
1712089051127,599616079966556768,2027
1712089051135,599616079974222290,2027
1712089051142,599616079981887812,2011
1712089051150,599616079989553334,1990
1712089051158,599616079997218856,2004
1712089051165,599616080004884378,2004
1712089051173,599616080012549900,1970
1712089051181,599616080020215422,1958
1712089051188,599616080027880944,1947
1712089051196,599616080035546466,1915
1712089051204,599616080043211988,1963
1712089051211,599616080050877510,2121
1712089051219,599616080058543032,2274
1712089051227,599616080066208554,2309
1712089051233,599616080073874076,1949
1712089051241,599616080081539598,1312
1712089051249,599616080089205120,1257
1712089051257,599616080096870642,1770
1712089051265,599616080104536164,1910
1712089051273,599616080112201686,1741
1712089051280,599616080119867208,1754
1712089051288,599616080127532730,1796
1712089051296,599616080135198252,1752
1712089051303,599616080142863774,1759
1712089051311,599616080150529296,1773
1712089051319,599616080158194818,1722
1712089051326,599616080165860340,1676
1712089051334,599616080173525862,1674
1712089051342,599616080181191384,1683
1712089051349,599616080188856906,1674
1712089051357,599616080196522428,1585
1712089051365,599616080204187950,1424
1712089051372,599616080211823404,1344
1712089051380,599616080219489344,1379
1712089051388,599616080227155284,1418
1712089051395,599616080234821224,1436
1712089051403,599616080242487164,1466
1712089051411,599616080250153104,1466
1712089051417,599616080257819044,1422
1712089051425,599616080265484984,1413
1712089051433,599616080273150924,1452
1712089051441,599616080280816864,1477
1712089051449,599616080288482804,1484
1712089051457,599616080296148744,1452
1712089051464,599616080303814684,1340
1712089051472,599616080311480624,1264
1712089051480,599616080319146564,1282
1712089051487,599616080326812504,1282
1712089051495,599616080334478444,1243
1712089051503,599616080342144384,1209
1712089051510,599616080349810324,1133
1712089051518,599616080357476264,1062
1712089051526,599616080365142204,1072
1712089051533,599616080372808144,1104
1712089051541,599616080380474084,1115
1712089051549,599616080388140024,1117
1712089051556,599616080395805964,1083
1712089051564,599616080403471904,1035
1712089051572,599616080411137844,1046
1712089051579,599616080418803784,1058
1712089051587,599616080426469724,1005
1712089051595,599616080434135664,946
1712089051601,599616080441801604,872
1712089051609,599616080449467544,785
1712089051617,599616080457133484,778
1712089051625,599616080464799424,826
1712089051633,599616080472465364,838
1712089051641,599616080480131304,840
1712089051648,599616080487797244,836
1712089051656,599616080495463184,797
1712089051664,599616080503129124,778
1712089051671,599616080510795064,808
1712089051679,599616080518461004,836
1712089051687,599616080526126944,838
1712089051694,599616080533792884,817
1712089051702,599616080541458824,788
1712089051710,599616080549124764,778
1712089051717,599616080556790704,792
1712089051725,599616080564456644,810
1712089051732,599616080572122584,799
1712089051740,599616080579788524,742
1712089051748,599616080587454464,671
1712089051755,599616080595120404,604
1712089051763,599616080602786344,549
1712089051771,599616080610452284,540
1712089051777,599616080618118224,558
1712089051785,599616080625784164,545
1712089051793,599616080633450104,503
1712089051801,599616080641116044,410
1712089051809,599616080648781984,295
1712089051817,599616080656447924,281
1712089051824,599616080664113864,318
1712089051832,599616080671779804,295
1712089051840,599616080679445744,263
1712089051847,599616080687111684,238
1712089051855,599616080694777624,183
1712089051863,599616080702443564,109
1712089051870,599616080710109504,45
1712089051878,599616080717775444,41
1712089051886,599616080725441384,77
1712089051893,599616080733107324,84
1712089051901,599616080740773264,59
1712089051909,599616080748439204,68
1712089051916,599616080756105144,105
1712089051924,599616080763771084,109
1712089051932,599616080771406960,121
1712089051939,599616080779073318,162
1712089051947,599616080786739676,169
1712089051955,599616080794406034,155
1712089051961,599616080802072392,158
1712089051969,599616080809738750,137
1712089051977,599616080817405108,114
1712089051985,599616080825071466,123
1712089051993,599616080832737824,75
1712089052001,599616080840404182,-11
1712089052008,599616080848070540,-13
1712089052016,599616080855736898,29
1712089052024,599616080863403256,43
1712089052031,599616080871069614,68
1712089052039,599616080878735972,109
1712089052047,599616080886402330,164
1712089052054,599616080894068688,318
1712089052062,599616080901735046,531
1712089052070,599616080909401404,611
1712089052077,599616080917067762,242
1712089052085,599616080924734120,-421
1712089052093,599616080932400478,-485
1712089052100,599616080940066836,20
1712089052108,599616080947733194,171
1712089052116,599616080955399552,71
1712089052123,599616080963065910,155
1712089052131,599616080970732268,226
1712089052139,599616080978398626,180
1712089052145,599616080986064984,162
1712089052153,599616080993731342,169
1712089052161,599616081001397700,162
1712089052169,599616081009064058,167
1712089052177,599616081016730416,197
1712089052185,599616081024396774,183
1712089052192,599616081032063132,77
1712089052200,599616081039729490,9
1712089052208,599616081047395848,59
1712089052215,599616081055062206,123
1712089052223,599616081062728564,146
1712089052231,599616081070394922,178
1712089052238,599616081078061280,187
1712089052246,599616081085727638,164
1712089052254,599616081093393996,178
1712089052261,599616081101060354,231
1712089052269,599616081108726712,272
1712089052277,599616081116393070,300
1712089052284,599616081124059428,300
1712089052292,599616081131725786,268
1712089052300,599616081139392144,261
1712089052307,599616081147058502,295
1712089052315,599616081154724860,309
1712089052323,599616081162391218,297
1712089052329,599616081170057576,251
1712089052337,599616081177723934,137
1712089052345,599616081185390292,16
1712089052353,599616081193056650,-6
1712089052361,599616081200723008,-22
1712089052369,599616081208389366,-151
1712089052376,599616081216055724,-279
1712089052384,599616081223722082,-343
1712089052392,599616081231388440,-382
1712089052399,599616081239054798,-352
1712089052407,599616081246721156,-272
1712089052415,599616081254387514,-226
1712089052422,599616081262053872,-206
1712089052430,599616081269720230,-208
1712089052438,599616081277386588,-219
1712089052445,599616081285052946,-192
1712089052453,599616081292719304,-137
1712089052461,599616081300385662,-103
1712089052468,599616081308052020,-84
1712089052476,599616081315718378,-89
1712089052484,599616081323384736,-103
1712089052491,599616081331076186,-89
1712089052499,599616081338742196,-52
1712089052507,599616081346408206,-22
1712089052513,599616081354074216,-22
1712089052521,599616081361740226,-84
1712089052529,599616081369406236,-242
1712089052537,599616081377072246,-377
1712089052545,599616081384738256,-382
1712089052553,599616081392404266,-352
1712089052560,599616081400070276,-355
1712089052568,599616081407736286,-343
1712089052576,599616081415402296,-320
1712089052583,599616081423068306,-334
1712089052591,599616081430734316,-359
1712089052599,599616081438400326,-329
1712089052606,599616081446066336,-284
1712089052614,599616081453732346,-277
1712089052622,599616081461398356,-272
1712089052629,599616081469064366,-258
1712089052637,599616081476730376,-245
1712089052645,599616081484396386,-206
1712089052652,599616081492062396,-167
1712089052660,599616081499728406,-167
1712089052668,599616081507394416,-162
1712089052675,599616081515060426,-137
1712089052683,599616081522726436,-130
1712089052691,599616081530392446,-119
1712089052697,599616081538058456,-105
1712089052705,599616081545724466,-112
1712089052713,599616081553390476,-100
1712089052721,599616081561056486,-96
1712089052729,599616081568722496,-148
1712089052737,599616081576388506,-158
1712089052744,599616081584054516,-89
1712089052752,599616081591720526,-68
1712089052760,599616081599386536,-77
1712089052767,599616081607052546,-59
1712089052775,599616081614718556,-57
1712089052783,599616081622384566,-68
1712089052790,599616081630050576,-43
1712089052798,599616081637716586,-20
1712089052806,599616081645382596,-13
1712089052813,599616081653048606,20
1712089052821,599616081660714616,59
1712089052829,599616081668380626,43
1712089052836,599616081676046636,-9
1712089052844,599616081683712646,11
1712089052852,599616081691378656,176
1712089052859,599616081699044666,403
1712089052867,599616081706710676,490
1712089052875,599616081714376686,98
1712089052881,599616081722042696,-641
1712089052889,599616081729708706,-753
1712089052897,599616081737374716,-155
1712089052905,599616081745040726,96
1712089052913,599616081752706736,-32
1712089052921,599616081760372746,-36
1712089052928,599616081768038756,-38
1712089052936,599616081775704766,-84
1712089052944,599616081783370776,-36
1712089052951,599616081791036786,32
1712089052959,599616081798702796,57
1712089052967,599616081806368806,68
1712089052974,599616081814034816,66
1712089052982,599616081821700826,57
1712089052990,599616081829366836,77
1712089052997,599616081837032846,121
1712089053005,599616081844698856,158
1712089053013,599616081852364866,178
1712089053020,599616081860030876,169
1712089053028,599616081867696886,151
1712089053036,599616081875362896,171
1712089053043,599616081883028906,217
1712089053051,599616081890674910,238
1712089053059,599616081898341198,231
1712089053065,599616081906007486,169
1712089053073,599616081913673774,43
1712089053081,599616081921340062,-13
1712089053089,599616081929006350,36
1712089053097,599616081936672638,96
1712089053105,599616081944338926,125
1712089053112,599616081952005214,100
1712089053120,599616081959671502,0
1712089053128,599616081967337790,-61
1712089053135,599616081975004078,-32
1712089053143,599616081982670366,-18
1712089053151,599616081990336654,-27
1712089053158,599616081998002942,-27
1712089053166,599616082005669230,-59
1712089053174,599616082013335518,-87
1712089053181,599616082021001806,-75
1712089053189,599616082028668094,-91
1712089053197,599616082036334382,-105
1712089053204,599616082044000670,-84
1712089053212,599616082051666958,-100
1712089053220,599616082059333246,-130
1712089053227,599616082066999534,-103
1712089053235,599616082074665822,-75
1712089053243,599616082082332110,-64
1712089053249,599616082089998398,-41
1712089053257,599616082097664686,-75
1712089053265,599616082105330974,-174
1712089053273,599616082112997262,-190
1712089053281,599616082120663550,-112
1712089053289,599616082128329838,-66
1712089053296,599616082135996126,-57
1712089053304,599616082143662414,-52
1712089053312,599616082151328702,-64
1712089053319,599616082158994990,-89
1712089053327,599616082166661278,-114
1712089053335,599616082174327566,-135
1712089053342,599616082181993854,-155
1712089053350,599616082189660142,-185
1712089053358,599616082197326430,-224
1712089053365,599616082204992718,-274
1712089053373,599616082212659006,-341
1712089053381,599616082220325294,-377
1712089053388,599616082227991582,-348
1712089053396,599616082235657870,-316
1712089053404,599616082243324158,-320
1712089053411,599616082250990446,-323
1712089053419,599616082258656734,-295
1712089053427,599616082266323022,-245
1712089053433,599616082273989310,-208
1712089053441,599616082281655598,-219
1712089053449,599616082289321886,-272
1712089053457,599616082296988174,-341
1712089053465,599616082304654462,-368
1712089053473,599616082312320750,-318
1712089053480,599616082319987038,-268
1712089053488,599616082327653326,-261
1712089053496,599616082335319614,-235
1712089053503,599616082342985902,-203
1712089053511,599616082350652190,-194
1712089053519,599616082358318478,-155
1712089053526,599616082365984766,-96
1712089053534,599616082373651054,-84
1712089053542,599616082381317342,-87
1712089053549,599616082388983630,-75
1712089053557,599616082396649918,-77
1712089053565,599616082404316206,-98
1712089053572,599616082411982494,-135
1712089053580,599616082419648782,-169
1712089053588,599616082427315070,-162
1712089053595,599616082434981358,-146
1712089053603,599616082442647646,-213
1712089053611,599616082450339050,-295
1712089053617,599616082458004990,-286
1712089053625,599616082465670930,-231
1712089053633,599616082473336870,-96
1712089053641,599616082481002810,139
1712089053649,599616082488668750,247
1712089053657,599616082496334690,-100
1712089053664,599616082504000630,-726
1712089053672,599616082511666570,-781
1712089053680,599616082519332510,-242
1712089053687,599616082526998450,-16
1712089053695,599616082534664390,-137
1712089053703,599616082542330330,-158
1712089053710,599616082549996270,-144
1712089053718,599616082557662210,-153
1712089053726,599616082565328150,-109
1712089053733,599616082572994090,-48
1712089053741,599616082580660030,-13
1712089053749,599616082588325970,-2
1712089053756,599616082595991910,-4
1712089053764,599616082603657850,-16
1712089053772,599616082611323790,-6
1712089053779,599616082618989730,45
1712089053787,599616082626655670,96
1712089053795,599616082634321610,80
1712089053801,599616082641987550,0
1712089053809,599616082649653490,-52
1712089053817,599616082657319430,-50
1712089053825,599616082664985370,-32
1712089053833,599616082672651310,22
1712089053841,599616082680317250,89
1712089053848,599616082687983190,98
1712089053856,599616082695649130,89
1712089053864,599616082703315070,121
1712089053871,599616082710981010,114
1712089053879,599616082718646950,48
1712089053887,599616082726312890,54
1712089053894,599616082733978830,91
1712089053902,599616082741644770,50
1712089053910,599616082749310710,25
1712089053917,599616082756976650,54
1712089053925,599616082764642590,64
1712089053933,599616082772308530,57
1712089053940,599616082779974470,25
1712089053948,599616082787640410,-73
1712089053956,599616082795306350,-109
1712089053963,599616082802972290,-29
1712089053971,599616082810638230,32
1712089053979,599616082818304170,57
1712089053985,599616082825970110,87
1712089053993,599616082833636050,68
1712089054001,599616082841301990,4
1712089054009,599616082848967930,-6
1712089054017,599616082856633870,36
1712089054025,599616082864299810,71
1712089054032,599616082871965750,80
1712089054040,599616082879631690,66
1712089054048,599616082887297630,48
1712089054055,599616082894963570,54
1712089054063,599616082902629510,43
1712089054071,599616082910295450,11
1712089054078,599616082917961390,20
1712089054086,599616082925627330,34
1712089054094,599616082933293270,16
1712089054101,599616082940959210,34
1712089054109,599616082948625150,87
1712089054117,599616082956291090,105
1712089054124,599616082963957030,98
1712089054132,599616082971622970,75
1712089054140,599616082979288910,9
1712089054147,599616082986954850,-57
1712089054155,599616082994620790,-59
1712089054163,599616083002286730,-50
1712089054169,599616083009922606,-68
1712089054177,599616083017588964,-100
1712089054185,599616083025255322,-139
1712089054193,599616083032921680,-153
1712089054201,599616083040588038,-121
1712089054209,599616083048254396,-82
1712089054216,599616083055920754,-64
1712089054224,599616083063587112,-64
1712089054232,599616083071253470,-87
1712089054239,599616083078919828,-155
1712089054247,599616083086586186,-190
1712089054255,599616083094252544,-132
1712089054262,599616083101918902,-77
1712089054270,599616083109585260,-77
1712089054278,599616083117251618,-59
1712089054285,599616083124917976,-29
1712089054293,599616083132584334,-18
1712089054301,599616083140250692,-11
1712089054308,599616083147917050,-38
1712089054316,599616083155583408,-105
1712089054324,599616083163249766,-109
1712089054331,599616083170916124,-105
1712089054339,599616083178582482,-176
1712089054347,599616083186248840,-190
1712089054353,599616083193915198,-112
1712089054361,599616083201581556,-80
1712089054369,599616083209247914,-73
1712089054377,599616083216914272,-54
1712089054385,599616083224580630,-105
1712089054393,599616083232246988,-135
1712089054400,599616083239913346,-25
1712089054408,599616083247579704,162
1712089054416,599616083255246062,368
1712089054423,599616083262912420,485
1712089054431,599616083270578778,160
1712089054439,599616083278245136,-471
1712089054446,599616083285911494,-503
1712089054454,599616083293577852,25
1712089054462,599616083301244210,203
1712089054469,599616083308910568,107
1712089054477,599616083316576926,123
1712089054485,599616083324243284,84
1712089054492,599616083331909642,18
1712089054500,599616083339576000,61
1712089054508,599616083347242358,114
1712089054515,599616083354908716,135
1712089054523,599616083362575074,169
1712089054531,599616083370241432,183
1712089054537,599616083377907790,171
1712089054545,599616083385574148,171
1712089054553,599616083393240506,153
1712089054561,599616083400906864,119
1712089054569,599616083408573222,139
1712089054577,599616083416239580,178
1712089054584,599616083423905938,174
1712089054592,599616083431572296,174
1712089054600,599616083439238654,213
1712089054607,599616083446905012,261
1712089054615,599616083454571370,302
1712089054623,599616083462237728,329
1712089054630,599616083469904086,323
1712089054638,599616083477570444,300
1712089054646,599616083485236802,313
1712089054653,599616083492903160,334
1712089054661,599616083500569518,336
1712089054669,599616083508235876,327
1712089054676,599616083515902234,242
1712089054684,599616083523568592,107
1712089054692,599616083531234950,73
1712089054699,599616083538901308,109
1712089054707,599616083546567666,107
1712089054715,599616083554234024,105
1712089054721,599616083561900382,100
1712089054729,599616083569596872,59
1712089054737,599616083577262812,54
1712089054745,599616083584928752,107
1712089054753,599616083592594692,142
1712089054761,599616083600260632,162
1712089054768,599616083607926572,176
1712089054776,599616083615592512,151
1712089054784,599616083623258452,132
1712089054791,599616083630924392,162
1712089054799,599616083638590332,160
1712089054807,599616083646256272,103
1712089054814,599616083653922212,68
1712089054822,599616083661588152,4
1712089054830,599616083669254092,-116
1712089054837,599616083676920032,-151
1712089054845,599616083684585972,-87
1712089054853,599616083692251912,-45
1712089054860,599616083699917852,-43
1712089054868,599616083707583792,-89
1712089054876,599616083715249732,-169
1712089054883,599616083722915672,-201
1712089054891,599616083730581612,-229
1712089054899,599616083738247552,-265
1712089054905,599616083745913492,-229
1712089054913,599616083753579432,-194
1712089054921,599616083761245372,-213
1712089054929,599616083768911312,-190
1712089054937,599616083776577252,-123
1712089054945,599616083784243192,-80
1712089054952,599616083791909132,-57
1712089054960,599616083799575072,-45
1712089054968,599616083807241012,-52
1712089054975,599616083814906952,-50
1712089054983,599616083822572892,-41
1712089054991,599616083830238832,-61
1712089054998,599616083837904772,-89
1712089055006,599616083845570712,-135
1712089055014,599616083853236652,-226
1712089055021,599616083860902592,-295
1712089055029,599616083868568532,-277
1712089055037,599616083876234472,-226
1712089055044,599616083883900412,-233
1712089055052,599616083891566352,-279
1712089055060,599616083899232292,-272
1712089055067,599616083906898232,-226
1712089055075,599616083914564172,-206
1712089055083,599616083922230112,-185
1712089055089,599616083929896052,-164
1712089055097,599616083937561992,-164
1712089055105,599616083945227932,-155
1712089055113,599616083952893872,-135
1712089055121,599616083960559812,-125
1712089055129,599616083968225752,-98
1712089055136,599616083975891692,-61
1712089055144,599616083983557632,-52
1712089055152,599616083991223572,-45
1712089055159,599616083998889512,-16
1712089055167,599616084006555452,41
1712089055175,599616084014221392,192
1712089055182,599616084021887332,412
1712089055190,599616084029553272,481
1712089055198,599616084037219212,116
1712089055205,599616084044885152,-547
1712089055213,599616084052551092,-710
1712089055221,599616084060217032,-247
1712089055228,599616084067882972,-4
1712089055236,599616084075548912,-89
1712089055244,599616084083214852,-50
1712089055251,599616084090880792,41
1712089055259,599616084098546732,29
1712089055267,599616084106212672,16
1712089055273,599616084113878612,45
1712089055281,599616084121544552,57
1712089055289,599616084129210524,36
1712089055297,599616084136876464,6
1712089055305,599616084144542404,-2
1712089055313,599616084152208344,11
1712089055320,599616084159874284,20
1712089055328,599616084167540224,29
1712089055336,599616084175206164,57
1712089055343,599616084182872104,98
1712089055351,599616084190538044,121
1712089055359,599616084198203984,75
1712089055366,599616084205869924,-2
1712089055374,599616084213535864,-6
1712089055382,599616084221201804,57
1712089055389,599616084228867744,82
1712089055397,599616084236533684,27
1712089055405,599616084244199624,-77
1712089055412,599616084251865564,-144
1712089055420,599616084259531504,-125
1712089055428,599616084267197444,-68
1712089055435,599616084274863384,-27
1712089055443,599616084282529324,-9
1712089055451,599616084290195264,-16
1712089055457,599616084297861204,-71
1712089055465,599616084305527144,-142
1712089055473,599616084313193084,-148
1712089055481,599616084320859024,-109
1712089055489,599616084328524964,-80
1712089055497,599616084336190904,-64
1712089055504,599616084343856844,-68
1712089055512,599616084351522784,-93
1712089055520,599616084359188724,-73
1712089055527,599616084366854664,-20
1712089055535,599616084374520604,-11
1712089055543,599616084382186544,-77
1712089055550,599616084389852484,-174
1712089055558,599616084397518424,-245
1712089055566,599616084405184364,-235
1712089055573,599616084412850304,-174
1712089055581,599616084420516244,-123
1712089055589,599616084428182184,-82
1712089055596,599616084435848124,-57
1712089055604,599616084443514064,-77
1712089055612,599616084451180004,-87
1712089055619,599616084458845944,-41
1712089055627,599616084466511884,4
1712089055635,599616084474177824,25
1712089055641,599616084481843764,43
1712089055649,599616084489509704,27
1712089055657,599616084497175644,0
1712089055665,599616084504841584,13
1712089055673,599616084512507524,11
1712089055681,599616084520173464,-25
1712089055688,599616084527839404,-36
1712089055696,599616084535505344,-48
1712089055704,599616084543171284,-77
1712089055711,599616084550837224,-66
1712089055719,599616084558503164,-38
1712089055727,599616084566169104,-41
1712089055734,599616084573835044,-43
1712089055742,599616084581500984,-59
1712089055750,599616084589166924,-130
1712089055757,599616084596832864,-180
1712089055765,599616084604498804,-144
1712089055773,599616084612164744,-93
1712089055780,599616084619830684,-93
1712089055788,599616084627496624,-151
1712089055796,599616084635162564,-208
1712089055803,599616084642828504,-192
1712089055811,599616084650494444,-125
1712089055819,599616084658160384,-87
1712089055825,599616084665826324,-96
1712089055833,599616084673492264,-139
1712089055841,599616084681158204,-192
1712089055849,599616084688794080,-247
1712089055857,599616084696460438,-284
1712089055865,599616084704126796,-270
1712089055872,599616084711793154,-247
1712089055880,599616084719459512,-251
1712089055888,599616084727125870,-265
1712089055895,599616084734792228,-332
1712089055903,599616084742458586,-460
1712089055911,599616084750124944,-526
1712089055918,599616084757791302,-467
1712089055926,599616084765457660,-323
1712089055933,599616084773124018,-114
1712089055941,599616084780790376,36
1712089055949,599616084788456734,-100
1712089055956,599616084796123092,-634
1712089055964,599616084803789450,-1044
1712089055972,599616084811455808,-714
1712089055979,599616084819122166,-240
1712089055987,599616084826788524,-235
1712089055995,599616084834454882,-286
1712089056001,599616084842121240,-178
1712089056009,599616084849787598,-142
1712089056017,599616084857453956,-164
1712089056025,599616084865120314,-132
1712089056033,599616084872786672,-130
1712089056041,599616084880453030,-180
1712089056048,599616084888119388,-171
1712089056056,599616084895785746,-123
1712089056064,599616084903452104,-112
1712089056071,599616084911118462,-91
1712089056079,599616084918784820,-50
1712089056087,599616084926451178,-75
1712089056094,599616084934117536,-148
1712089056102,599616084941783894,-148
1712089056110,599616084949450252,-87
1712089056117,599616084957116610,-45
1712089056125,599616084964782968,-2
1712089056133,599616084972449326,43
1712089056140,599616084980115684,64
1712089056148,599616084987782042,75
1712089056156,599616084995448400,100
1712089056163,599616085003114758,135
1712089056171,599616085010781116,176
1712089056179,599616085018447474,203
1712089056185,599616085026113832,197
1712089056193,599616085033780190,153
1712089056201,599616085041446548,109
1712089056209,599616085049112906,93
1712089056217,599616085056779264,89
1712089056225,599616085064445622,84
1712089056232,599616085072111980,64
1712089056240,599616085079778338,22
1712089056248,599616085087444696,-9
1712089056255,599616085095111054,-13
1712089056263,599616085102777412,-6
1712089056271,599616085110443770,16
1712089056278,599616085118110128,-13
1712089056286,599616085125776486,-132
1712089056294,599616085133442844,-203
1712089056301,599616085141109202,-162
1712089056309,599616085148775560,-103
1712089056317,599616085156441918,-57
1712089056324,599616085164108276,-13
1712089056332,599616085171774634,-9
1712089056340,599616085179440992,-38
1712089056347,599616085187107350,-29
1712089056355,599616085194773708,22
1712089056363,599616085202440066,64
1712089056369,599616085210106424,91
1712089056377,599616085217772782,91
1712089056385,599616085225439140,50
1712089056393,599616085233105498,52
1712089056401,599616085240771856,91
1712089056409,599616085248468348,54
1712089056417,599616085256134288,-32
1712089056424,599616085263800228,-103
1712089056432,599616085271466168,-194
1712089056440,599616085279132108,-258
1712089056447,599616085286798048,-203
1712089056455,599616085294463988,-125
1712089056463,599616085302129928,-93
1712089056470,599616085309795868,-105
1712089056478,599616085317461808,-201
1712089056486,599616085325127748,-290
1712089056493,599616085332793688,-286
1712089056501,599616085340459628,-229
1712089056509,599616085348125568,-171
1712089056516,599616085355791508,-146
1712089056524,599616085363457448,-171
1712089056531,599616085371123388,-206
1712089056539,599616085378789328,-171
1712089056547,599616085386455268,-116
1712089056553,599616085394121208,-98
1712089056561,599616085401787148,-91
1712089056569,599616085409453088,-68
1712089056577,599616085417119028,-54
1712089056585,599616085424784968,-50
1712089056593,599616085432450908,-16
1712089056600,599616085440116848,43
1712089056608,599616085447782788,52
1712089056616,599616085455448728,-6
1712089056623,599616085463114668,-100
1712089056631,599616085470780608,-194
1712089056639,599616085478446548,-224
1712089056646,599616085486112488,-210
1712089056654,599616085493778428,-231
1712089056662,599616085501444368,-245
1712089056669,599616085509110308,-229
1712089056677,599616085516776248,-226
1712089056685,599616085524442188,-226
1712089056692,599616085532108128,-180
1712089056700,599616085539774068,-68
1712089056708,599616085547440008,107
1712089056715,599616085555105948,288
1712089056723,599616085562771888,263
1712089056731,599616085570437828,-238
1712089056737,599616085578103768,-742
1712089056745,599616085585769708,-492
1712089056753,599616085593435648,-27
1712089056761,599616085601101588,-34
1712089056769,599616085608767528,-128
1712089056777,599616085616433468,-80
1712089056784,599616085624099408,-66
1712089056792,599616085631765348,-84
1712089056800,599616085639431288,-84
1712089056807,599616085647097228,-64
1712089056815,599616085654763168,-48
1712089056823,599616085662429108,-93
1712089056830,599616085670095048,-139
1712089056838,599616085677760988,-98
1712089056846,599616085685426928,-61
1712089056853,599616085693092868,-50
1712089056861,599616085700758808,-6
1712089056869,599616085708424748,16
1712089056876,599616085716090688,9
1712089056884,599616085723756628,38
1712089056892,599616085731422568,80
1712089056899,599616085739088508,98
1712089056907,599616085746754448,128
1712089056915,599616085754420388,155
1712089056921,599616085762086328,103
1712089056929,599616085769752268,29
1712089056937,599616085777418208,59
1712089056945,599616085785084148,125
1712089056953,599616085792750088,132
1712089056961,599616085800416028,116
1712089056968,599616085808082000,96
1712089056976,599616085815747940,48
1712089056984,599616085823413880,0
1712089056991,599616085831079820,-11
1712089056999,599616085838745760,0
1712089057007,599616085846411700,-2
1712089057014,599616085854077640,-38
1712089057022,599616085861743580,-103
1712089057030,599616085869409520,-144
1712089057037,599616085877075460,-128
1712089057045,599616085884741400,-84
1712089057053,599616085892407340,-43
1712089057060,599616085900073280,-77
1712089057068,599616085907739220,-215
1712089057076,599616085915405160,-295
1712089057083,599616085923071100,-229
1712089057091,599616085930737040,-167
1712089057099,599616085938402980,-148
1712089057105,599616085946068920,-112
1712089057113,599616085953734860,-105
1712089057121,599616085961400800,-142
1712089057129,599616085969066740,-128
1712089057137,599616085976732680,-64
1712089057145,599616085984398620,-43
1712089057152,599616085992064560,-59
1712089057160,599616085999730500,-103
1712089057168,599616086007396440,-185
1712089057175,599616086015062380,-197
1712089057183,599616086022728320,-116
1712089057191,599616086030394260,-71
1712089057198,599616086038060200,-66
1712089057206,599616086045726140,-57
1712089057214,599616086053392080,-77
1712089057221,599616086061058020,-93
1712089057229,599616086068723960,-48
1712089057237,599616086076389900,4
1712089057244,599616086084055840,16
1712089057252,599616086091721780,-16
1712089057260,599616086099387720,-98
1712089057267,599616086107053660,-171
1712089057275,599616086114719600,-171
1712089057283,599616086122385540,-132
1712089057289,599616086130051480,-98
1712089057297,599616086137717420,-82
1712089057305,599616086145383360,-98
1712089057313,599616086153049300,-123
1712089057321,599616086160715240,-109
1712089057329,599616086168381180,-80
1712089057336,599616086176047120,-61
1712089057344,599616086183713060,-41
1712089057352,599616086191379000,-64
1712089057359,599616086199044940,-142
1712089057367,599616086206710880,-169
1712089057375,599616086214376820,-119
1712089057382,599616086222042760,-73
1712089057390,599616086229708700,-48
1712089057398,599616086237374640,-29
1712089057405,599616086245040580,-64
1712089057413,599616086252706520,-123
1712089057421,599616086260372460,-192
1712089057428,599616086268038400,-297
1712089057436,599616086275704340,-355
1712089057444,599616086283370280,-323
1712089057451,599616086291036220,-313
1712089057459,599616086298702160,-327
1712089057467,599616086306368100,-290
1712089057473,599616086314034040,-238
1712089057481,599616086321699980,-224
1712089057489,599616086329365920,-222
1712089057497,599616086337031860,-192
1712089057505,599616086344697800,-96
1712089057513,599616086352363740,68
1712089057520,599616086360029680,240
1712089057528,599616086367695652,160
1712089057536,599616086375361592,-416
1712089057543,599616086383027532,-865
1712089057551,599616086390693472,-570
1712089057559,599616086398359412,-217
1712089057566,599616086406025352,-247
1712089057574,599616086413691292,-242
1712089057582,599616086421357232,-158
1712089057589,599616086429023172,-151
1712089057597,599616086436689112,-171
1712089057605,599616086444355052,-210
1712089057612,599616086452020992,-229
1712089057620,599616086459686932,-183
1712089057628,599616086467352872,-151
1712089057635,599616086475018812,-132
1712089057643,599616086482684752,-98
1712089057651,599616086490350692,-87
1712089057657,599616086498016632,-75
1712089057665,599616086505682572,-29
1712089057673,599616086513348512,-4
1712089057681,599616086521014452,-18
1712089057689,599616086528680392,-18
1712089057697,599616086536346332,-36
1712089057704,599616086544012272,-75
1712089057712,599616086551678212,-59
1712089057720,599616086559344152,-16
1712089057727,599616086567010092,11
1712089057735,599616086574676032,52
1712089057743,599616086582341972,105
1712089057750,599616086590007912,125
1712089057758,599616086597673852,77
1712089057766,599616086605339792,11
1712089057773,599616086613005732,9
1712089057781,599616086620671672,29
1712089057789,599616086628337612,-2
1712089057796,599616086636003552,-61
1712089057804,599616086643669492,-112
1712089057812,599616086651335432,-146
1712089057819,599616086659001372,-155
1712089057827,599616086666667312,-142
1712089057835,599616086674333252,-130
1712089057841,599616086681999192,-142
1712089057849,599616086689665132,-151
1712089057857,599616086697331072,-151
1712089057865,599616086704997012,-155
1712089057873,599616086712662952,-146
1712089057881,599616086720328892,-109
1712089057888,599616086727994832,-114
1712089057896,599616086735660772,-210
1712089057904,599616086743326712,-286
1712089057911,599616086750992652,-249
1712089057919,599616086758658592,-229
1712089057927,599616086766324532,-302
1712089057934,599616086773990472,-359
1712089057942,599616086781656412,-352
1712089057950,599616086789322352,-359
1712089057957,599616086796988292,-350
1712089057965,599616086804654232,-279
1712089057973,599616086812320172,-219
1712089057980,599616086819986112,-203
1712089057988,599616086827652052,-213
1712089057996,599616086835317992,-254
1712089058003,599616086842983932,-306
1712089058011,599616086850649872,-323
1712089058019,599616086858315812,-306
1712089058025,599616086865981752,-325
1712089058033,599616086873647692,-407
1712089058041,599616086881313632,-492
1712089058049,599616086888979572,-501
1712089058057,599616086896645512,-449
1712089058065,599616086904311452,-405
1712089058072,599616086911977392,-377
1712089058080,599616086919643332,-359
1712089058088,599616086927309304,-380
1712089058095,599616086934975244,-394
1712089058103,599616086942641184,-350
1712089058111,599616086950307124,-300
1712089058118,599616086957973064,-268
1712089058126,599616086965639004,-242
1712089058134,599616086973304944,-316
1712089058141,599616086980970884,-437
1712089058149,599616086988636824,-414
1712089058157,599616086996302764,-320
1712089058164,599616087003968704,-302
1712089058172,599616087011634644,-295
1712089058180,599616087019300584,-329
1712089058187,599616087026966524,-435
1712089058195,599616087034632464,-485
1712089058203,599616087042298404,-481
1712089058209,599616087049964344,-492
1712089058217,599616087057630284,-506
1712089058225,599616087065296224,-515
1712089058233,599616087072962164,-561
1712089058241,599616087080628104,-623
1712089058249,599616087088294044,-648
1712089058256,599616087095959984,-623
1712089058264,599616087103625924,-494
1712089058272,599616087111291864,-242
1712089058279,599616087118957804,2
1712089058287,599616087126623744,-13
1712089058295,599616087134289684,-561
1712089058302,599616087141955624,-1120
1712089058310,599616087149621564,-877
1712089058318,599616087157287504,-405
1712089058325,599616087164953444,-382
1712089058333,599616087172619384,-389
1712089058341,599616087180285324,-272
1712089058348,599616087187951264,-245
1712089058356,599616087195617204,-235
1712089058364,599616087203283144,-201
1712089058371,599616087210949084,-192
1712089058379,599616087218615024,-176
1712089058387,599616087226280964,-160
1712089058393,599616087233946904,-167
1712089058401,599616087241612844,-155
1712089058409,599616087249278784,-121
1712089058417,599616087256944724,-87
1712089058425,599616087264610664,-68
1712089058433,599616087272276604,-114
1712089058440,599616087279942544,-171
1712089058448,599616087287608484,-135
1712089058456,599616087295274424,-75
1712089058463,599616087302940364,-50
1712089058471,599616087310606304,-29
1712089058479,599616087318272244,-61
1712089058486,599616087325938184,-123
1712089058494,599616087333604124,-137
1712089058502,599616087341270064,-139
1712089058509,599616087348936004,-112
1712089058517,599616087356601944,-38
1712089058525,599616087364267884,-13
1712089058532,599616087371933824,-41
1712089058540,599616087379599764,-52
1712089058548,599616087387265704,-66
1712089058555,599616087394931644,-98
1712089058563,599616087402597584,-112
1712089058571,599616087410263524,-142
1712089058577,599616087417929464,-226
1712089058585,599616087425595404,-277
1712089058593,599616087433261344,-245
1712089058601,599616087440927284,-199
1712089058609,599616087448593224,-160
1712089058617,599616087456259164,-116
1712089058624,599616087463925104,-98
1712089058632,599616087471591044,-103
1712089058640,599616087479256984,-91
1712089058647,599616087486892860,-59
1712089058655,599616087494559218,-16
1712089058663,599616087502225576,25
1712089058670,599616087509891934,38
1712089058678,599616087517558292,22
1712089058686,599616087525224650,9
1712089058693,599616087532891008,25
1712089058701,599616087540557366,59
1712089058709,599616087548223724,89
1712089058716,599616087555890082,84
1712089058724,599616087563556440,0
1712089058732,599616087571222798,-87
1712089058739,599616087578889156,-98
1712089058747,599616087586555514,-116
1712089058755,599616087594221872,-139
1712089058761,599616087601888230,-107
1712089058769,599616087609554588,-135
1712089058777,599616087617220946,-222
1712089058785,599616087624887304,-210
1712089058793,599616087632553662,-171
1712089058801,599616087640220020,-187
1712089058808,599616087647886378,-169
1712089058816,599616087655552736,-142
1712089058824,599616087663219094,-167
1712089058831,599616087670885452,-164
1712089058839,599616087678551810,-116
1712089058847,599616087686218168,-80
1712089058854,599616087693884526,-61
1712089058862,599616087701550884,-48
1712089058870,599616087709217242,-64
1712089058877,599616087716883600,-80
1712089058885,599616087724549958,-52
1712089058893,599616087732216316,-4
1712089058900,599616087739882674,20
1712089058908,599616087747549032,13
1712089058916,599616087755215390,-20
1712089058923,599616087762881748,-48
1712089058931,599616087770548106,-68
1712089058939,599616087778214464,-142
1712089058945,599616087785880822,-226
1712089058953,599616087793547180,-233
1712089058961,599616087801213538,-258
1712089058969,599616087808879896,-377
1712089058977,599616087816546254,-437
1712089058985,599616087824212612,-410
1712089058992,599616087831878970,-432
1712089059000,599616087839545328,-451
1712089059008,599616087847211686,-414
1712089059015,599616087854878044,-403
1712089059023,599616087862544402,-391
1712089059031,599616087870210760,-336
1712089059038,599616087877877118,-284
1712089059046,599616087885543476,-261
1712089059054,599616087893209834,-210
1712089059061,599616087900876192,-61
1712089059069,599616087908542550,164
1712089059077,599616087916208908,345
1712089059084,599616087923875266,151
1712089059092,599616087931541624,-536
1712089059100,599616087939207982,-865
1712089059107,599616087946874340,-407
1712089059115,599616087954540698,-142
1712089059123,599616087962207056,-293
1712089059129,599616087969873414,-229
1712089059137,599616087977539772,-93
1712089059145,599616087985206130,-132
1712089059153,599616087992872488,-125
1712089059161,599616088000538846,-57
1712089059169,599616088008205204,-54
1712089059176,599616088015871562,-34
1712089059184,599616088023537920,13
1712089059192,599616088031204278,-6
1712089059199,599616088038870636,-16
1712089059207,599616088046567124,36
1712089059215,599616088054233064,50
1712089059222,599616088061899004,48
1712089059230,599616088069564944,66
1712089059238,599616088077230884,29
1712089059245,599616088084896824,-2
1712089059253,599616088092562764,32
1712089059261,599616088100228704,0
1712089059268,599616088107894644,-54
1712089059276,599616088115560584,-11
1712089059284,599616088123226524,29
1712089059291,599616088130892464,34
1712089059299,599616088138558404,71
1712089059307,599616088146224344,52
1712089059313,599616088153890284,-29
1712089059321,599616088161556224,-34
1712089059329,599616088169222164,2
1712089059337,599616088176888104,-20
1712089059345,599616088184554044,-48
1712089059353,599616088192219984,-54
1712089059360,599616088199885924,-87
1712089059368,599616088207551864,-121
1712089059376,599616088215217804,-135
1712089059383,599616088222883744,-125
1712089059391,599616088230549684,-87
1712089059399,599616088238215624,-38
1712089059406,599616088245881564,-18
1712089059414,599616088253547504,-25
1712089059422,599616088261213444,-34
1712089059429,599616088268879384,-22
1712089059437,599616088276545324,2
1712089059445,599616088284211264,-20
1712089059452,599616088291877204,-116
1712089059460,599616088299543144,-187
1712089059468,599616088307209084,-187
1712089059475,599616088314875024,-174
1712089059483,599616088322540964,-190
1712089059491,599616088330206904,-201
1712089059497,599616088337872844,-206
1712089059505,599616088345538784,-263
1712089059513,599616088353204724,-297
1712089059521,599616088360870664,-265
1712089059529,599616088368536604,-231
1712089059537,599616088376202544,-185
1712089059544,599616088383868484,-176
1712089059552,599616088391534424,-247
1712089059560,599616088399200364,-288
1712089059567,599616088406866304,-247
1712089059575,599616088414532244,-194
1712089059583,599616088422198184,-167
1712089059590,599616088429864124,-144
1712089059598,599616088437530064,-135
1712089059606,599616088445196004,-164
1712089059613,599616088452861944,-176
1712089059621,599616088460527884,-125
1712089059629,599616088468193824,-77
1712089059636,599616088475859764,-80
1712089059644,599616088483525704,-132
1712089059652,599616088491191644,-224
1712089059659,599616088498857584,-263
1712089059667,599616088506523524,-194
1712089059675,599616088514189464,-112
1712089059681,599616088521855404,-84
1712089059689,599616088529521344,-91
1712089059697,599616088537187284,-142
1712089059705,599616088544853224,-201
1712089059713,599616088552519164,-203
1712089059721,599616088560185104,-231
1712089059728,599616088567851044,-332
1712089059736,599616088575516984,-380
1712089059744,599616088583182924,-373
1712089059751,599616088590848864,-377
1712089059759,599616088598514804,-352
1712089059767,599616088606180780,-297
1712089059774,599616088613846720,-265
1712089059782,599616088621512660,-249
1712089059790,599616088629178600,-281
1712089059797,599616088636844540,-361
1712089059805,599616088644510480,-334
1712089059813,599616088652176420,-142
1712089059820,599616088659842360,80
1712089059828,599616088667508300,247
1712089059836,599616088675174240,160
1712089059843,599616088682840180,-499
1712089059851,599616088690506120,-1044
1712089059859,599616088698172060,-629
1712089059865,599616088705838000,-130
1712089059873,599616088713503940,-215
1712089059881,599616088721169880,-249
1712089059889,599616088728835820,-116
1712089059897,599616088736501760,-121
1712089059905,599616088744167700,-123
1712089059912,599616088751833640,-43
1712089059920,599616088759499580,-13
1712089059928,599616088767165520,-29
1712089059935,599616088774831460,-4
1712089059943,599616088782497400,22
1712089059951,599616088790163340,-41
1712089059958,599616088797829280,-112
1712089059966,599616088805495220,-82
1712089059974,599616088813161160,-84
1712089059981,599616088820827100,-142
1712089059989,599616088828493040,-123
1712089059997,599616088836158980,-87
1712089060004,599616088843824920,-64
1712089060012,599616088851490860,0
1712089060020,599616088859156800,50
1712089060027,599616088866822740,73
1712089060035,599616088874488680,77
1712089060043,599616088882154620,25
1712089060049,599616088889820560,9
1712089060057,599616088897486500,80
1712089060065,599616088905152440,109
1712089060073,599616088912818380,93
1712089060081,599616088920484320,100
1712089060089,599616088928150260,73
1712089060096,599616088935816200,9
1712089060104,599616088943482140,-22
1712089060112,599616088951148080,-52
1712089060119,599616088958814020,-77
1712089060127,599616088966479960,-57
1712089060135,599616088974145900,-45
1712089060142,599616088981811840,-64
1712089060150,599616088989477780,-52
1712089060158,599616088997143720,-29
1712089060165,599616089004809660,-29
1712089060173,599616089012475600,-13
1712089060181,599616089020141540,-20
1712089060188,599616089027807480,-107
1712089060196,599616089035473420,-162
1712089060204,599616089043139360,-121
1712089060211,599616089050805300,-87
1712089060219,599616089058471240,-109
1712089060227,599616089066137180,-148
1712089060233,599616089073803120,-167
1712089060241,599616089081469060,-158
1712089060249,599616089089135000,-125
1712089060257,599616089096800940,-82
1712089060265,599616089104466880,-57
1712089060273,599616089112132820,-32
1712089060280,599616089119798760,0
1712089060288,599616089127464700,-25
1712089060296,599616089135130640,-59
1712089060303,599616089142796580,-18
1712089060311,599616089150462520,48
1712089060319,599616089158128460,43
1712089060326,599616089165794432,-32
1712089060334,599616089173460372,-87
1712089060342,599616089181126312,-84
1712089060349,599616089188792252,-68
1712089060357,599616089196458192,-75
1712089060364,599616089204124132,-77
1712089060372,599616089211790072,-66
1712089060380,599616089219456012,-93
1712089060387,599616089227121952,-151
1712089060395,599616089234787892,-137
1712089060403,599616089242453832,-80
1712089060409,599616089250119772,-54
1712089060417,599616089257785712,-43
1712089060425,599616089265451652,-82
1712089060433,599616089273117592,-162
1712089060441,599616089280783532,-169
1712089060449,599616089288449472,-151
1712089060456,599616089296115412,-213
1712089060464,599616089303781352,-263
1712089060472,599616089311447292,-272
1712089060479,599616089319113232,-336
1712089060487,599616089326779172,-400
1712089060495,599616089334445112,-380
1712089060502,599616089342111052,-355
1712089060510,599616089349776992,-341
1712089060518,599616089357442932,-318
1712089060525,599616089365108872,-316
1712089060533,599616089372774812,-318
1712089060541,599616089380440752,-304
1712089060548,599616089388106692,-288
1712089060556,599616089395772632,-219
1712089060564,599616089403438572,-61
1712089060571,599616089411104512,96
1712089060579,599616089418770452,217
1712089060587,599616089426436392,242
1712089060593,599616089434102332,-183
1712089060601,599616089441768272,-824
1712089060609,599616089449434212,-742
1712089060617,599616089457100152,-190
1712089060625,599616089464766092,-71
1712089060633,599616089472432032,-139
1712089060640,599616089480097972,-32
1712089060648,599616089487763912,29
1712089060656,599616089495429852,18
1712089060663,599616089503095792,27
1712089060671,599616089510761732,11
1712089060679,599616089518427672,6
1712089060686,599616089526093612,52
1712089060694,599616089533759552,91
1712089060702,599616089541425492,82
1712089060709,599616089549091432,22
1712089060717,599616089556757372,-61
1712089060725,599616089564423312,-160
1712089060732,599616089572089252,-187
1712089060740,599616089579755192,-77
1712089060748,599616089587421132,9
1712089060755,599616089595087072,0
1712089060763,599616089602753012,18
1712089060771,599616089610418952,66
1712089060777,599616089618084892,80
1712089060785,599616089625750832,139
1712089060793,599616089633416772,219
1712089060801,599616089641082712,187
1712089060809,599616089648748652,132
1712089060817,599616089656414592,190
1712089060824,599616089664080532,233
1712089060832,599616089671746472,208
1712089060840,599616089679412412,185
1712089060847,599616089687078352,144
1712089060855,599616089694744292,91
1712089060863,599616089702410232,66
1712089060870,599616089710076172,38
1712089060878,599616089717742112,9
1712089060886,599616089725408084,0
1712089060893,599616089733074024,11
1712089060901,599616089740739964,-4
1712089060909,599616089748405904,-50
1712089060916,599616089756071844,-61
1712089060924,599616089763737784,-61
1712089060932,599616089771403724,-82
1712089060939,599616089779069664,-71
1712089060947,599616089786735604,-25
1712089060955,599616089794401544,-25
1712089060961,599616089802067484,-144
1712089060969,599616089809733424,-288
1712089060977,599616089817399364,-274
1712089060985,599616089825065304,-176
1712089060993,599616089832731244,-123
1712089061001,599616089840397184,-121
1712089061008,599616089848063124,-132
1712089061016,599616089855729064,-112
1712089061024,599616089863395004,-82
1712089061031,599616089871060944,-66
1712089061039,599616089878726884,-22
1712089061047,599616089886392824,0
1712089061054,599616089894058764,-6
1712089061062,599616089901724704,9
1712089061070,599616089909390644,-4
1712089061077,599616089917056584,-64
1712089061085,599616089924722524,-48
1712089061093,599616089932388464,50
1712089061100,599616089940054404,87
1712089061108,599616089947720344,34
1712089061116,599616089955386284,-38
1712089061123,599616089963052224,-100
1712089061131,599616089970718164,-116
1712089061139,599616089978384104,-77
1712089061145,599616089986050044,-2
1712089061153,599616089993715984,18
1712089061161,599616090001381924,-77
1712089061169,599616090009047864,-137
1712089061177,599616090016713804,-66
1712089061185,599616090024379744,-11
1712089061192,599616090032045684,-20
1712089061200,599616090039711624,-22
1712089061208,599616090047377564,-82
1712089061215,599616090055043504,-174
1712089061223,599616090062709444,-162
1712089061231,599616090070375384,-89
1712089061238,599616090078041324,-54
1712089061246,599616090085707264,-32
1712089061254,599616090093373204,-61
1712089061261,599616090101039144,-169
1712089061269,599616090108705084,-222
1712089061277,599616090116371024,-206
1712089061284,599616090124036964,-194
1712089061292,599616090131702904,-194
1712089061300,599616090139368844,-242
1712089061307,599616090147034784,-306
1712089061315,599616090154700724,-288
1712089061323,599616090162366664,-254
1712089061329,599616090170032604,-261
1712089061337,599616090177698544,-240
1712089061345,599616090185364484,-185
1712089061353,599616090193030424,-130
1712089061361,599616090200696364,-32
1712089061369,599616090208362304,187
1712089061376,599616090216028244,421
1712089061384,599616090223694184,167
1712089061392,599616090231360124,-579
1712089061399,599616090239026064,-735
1712089061407,599616090246692004,-197
1712089061415,599616090254357944,-41
1712089061422,599616090262023884,-190
1712089061430,599616090269689824,-103
1712089061438,599616090277355764,-22
1712089061445,599616090285026776,-73
1712089061453,599616090292692646,-100
1712089061461,599616090300358516,-109
1712089061468,599616090308024386,-148
1712089061476,599616090315690256,-190
1712089061484,599616090323356126,-164
1712089061491,599616090331021996,-128
1712089061499,599616090338687866,-217
1712089061507,599616090346353736,-364
1712089061513,599616090354019606,-334
1712089061521,599616090361685476,-151
1712089061529,599616090369351346,-43
1712089061537,599616090377017216,-93
1712089061545,599616090384683086,-135
1712089061553,599616090392348956,-61
1712089061560,599616090400014826,9
1712089061568,599616090407680696,29
1712089061576,599616090415346566,50
1712089061583,599616090423012436,82
1712089061591,599616090430678306,84
1712089061599,599616090438344176,22
1712089061606,599616090446010046,6
1712089061614,599616090453675916,105
1712089061622,599616090461341786,137
1712089061629,599616090469007656,84
1712089061637,599616090476673526,98
1712089061645,599616090484339396,109
1712089061652,599616090492005266,25
1712089061660,599616090499671136,-16
1712089061668,599616090507337006,68
1712089061675,599616090515002876,73
1712089061683,599616090522668746,-4
1712089061691,599616090530334616,48
1712089061697,599616090538000486,80
1712089061705,599616090545666356,-22
1712089061713,599616090553332226,-9
1712089061721,599616090560998096,89
1712089061729,599616090568663966,57
1712089061737,599616090576329836,77
1712089061744,599616090583995706,215
1712089061752,599616090591661576,208
1712089061760,599616090599327446,125
1712089061767,599616090606993316,148
1712089061775,599616090614659186,148
1712089061783,599616090622325056,125
1712089061790,599616090629990926,123
1712089061798,599616090637656796,27
1712089061806,599616090645322666,-36
1712089061813,599616090652988536,45
1712089061821,599616090660654406,93
1712089061829,599616090668320276,75
1712089061836,599616090675986146,98
1712089061844,599616090683652016,109
1712089061852,599616090691317886,80
1712089061859,599616090698983756,77
1712089061867,599616090706649626,91
1712089061875,599616090714315496,93
1712089061881,599616090721981366,93
1712089061889,599616090729647236,61
1712089061897,599616090737313106,16
1712089061905,599616090744978976,9
1712089061913,599616090752644846,20
1712089061921,599616090760310716,25
1712089061928,599616090767976586,38
1712089061936,599616090775642456,45
1712089061944,599616090783308326,-4
1712089061951,599616090790974196,-84
1712089061959,599616090798640066,-96
1712089061967,599616090806305936,-66
1712089061974,599616090813971806,-112
1712089061982,599616090821637676,-217
1712089061990,599616090829303546,-284
1712089061997,599616090836969416,-306
1712089062005,599616090844625260,-297
1712089062013,599616090852291270,-247
1712089062020,599616090859957280,-187
1712089062028,599616090867623290,-137
1712089062036,599616090875289300,-142
1712089062043,599616090882955310,-206
1712089062051,599616090890621320,-231
1712089062059,599616090898287330,-219
1712089062065,599616090905953340,-251
1712089062073,599616090913619350,-274
1712089062081,599616090921285360,-293
1712089062089,599616090928951370,-371
1712089062097,599616090936617380,-398
1712089062105,599616090944283390,-323
1712089062112,599616090951949400,-272
1712089062120,599616090959615410,-265
1712089062128,599616090967281420,-277
1712089062135,599616090974947430,-350
1712089062143,599616090982613440,-361
1712089062151,599616090990279450,-128
1712089062158,599616090997945460,176
1712089062166,599616091005611470,281
1712089062174,599616091013277480,-13
1712089062181,599616091020943490,-689
1712089062189,599616091028609500,-957
1712089062197,599616091036275510,-485
1712089062204,599616091043941520,-174
1712089062212,599616091051607530,-242
1712089062220,599616091059273540,-210
1712089062227,599616091066939550,-176
1712089062235,599616091074605560,-206
1712089062243,599616091082271570,-171
1712089062249,599616091089937580,-125
1712089062257,599616091097603590,-52
1712089062265,599616091105269600,20
1712089062273,599616091112935610,-9
1712089062281,599616091120601620,-61
1712089062289,599616091128267630,-54
1712089062296,599616091135933640,-18
1712089062304,599616091143599650,25
1712089062312,599616091151265660,41
1712089062319,599616091158931670,22
1712089062327,599616091166597680,-9
1712089062335,599616091174263690,-59
1712089062342,599616091181929700,-43
1712089062350,599616091189595710,48
1712089062358,599616091197261720,89
1712089062365,599616091204927730,75
1712089062373,599616091212593740,82
1712089062381,599616091220259750,98
1712089062388,599616091227925760,114
1712089062396,599616091235591770,153
1712089062404,599616091243257780,178
1712089062411,599616091250923790,176
1712089062419,599616091258589800,185
1712089062427,599616091266255810,171
1712089062433,599616091273921820,80
1712089062441,599616091281587830,-27
1712089062449,599616091289253840,-61
1712089062457,599616091296919850,-71
1712089062465,599616091304585860,-109
1712089062473,599616091312251870,-142
1712089062480,599616091319917880,-167
1712089062488,599616091327583890,-226
1712089062496,599616091335249900,-274
1712089062503,599616091342915910,-231
1712089062511,599616091350581920,-135
1712089062519,599616091358247930,-128
1712089062526,599616091365913940,-224
1712089062534,599616091373579950,-268
1712089062542,599616091381245960,-203
1712089062549,599616091388911970,-162
1712089062557,599616091396577980,-160
1712089062565,599616091404249040,-121
1712089062572,599616091411914980,-96
1712089062580,599616091419580920,-98
1712089062588,599616091427246860,-84
1712089062595,599616091434912800,-73
1712089062603,599616091442578740,-57
1712089062611,599616091450244680,-27
1712089062617,599616091457910620,-48
1712089062625,599616091465576560,-114
1712089062633,599616091473242500,-121
1712089062641,599616091480908440,-96
1712089062649,599616091488574380,-98
1712089062657,599616091496240320,-80
1712089062664,599616091503906260,-66
1712089062672,599616091511572200,-167
1712089062680,599616091519238140,-323
1712089062687,599616091526904080,-366
1712089062695,599616091534570020,-316
1712089062703,599616091542235960,-279
1712089062710,599616091549901900,-258
1712089062718,599616091557567840,-249
1712089062726,599616091565233780,-265
1712089062733,599616091572899720,-235
1712089062741,599616091580565660,-151
1712089062749,599616091588231600,-96
1712089062756,599616091595897540,-80
1712089062764,599616091603563480,-75
1712089062772,599616091611229420,-105
1712089062779,599616091618895360,-146
1712089062787,599616091626561300,-112
1712089062795,599616091634227240,-27
1712089062801,599616091641893180,0
1712089062809,599616091649559120,-6
1712089062817,599616091657225060,-4
1712089062825,599616091664891000,-32
1712089062833,599616091672556940,-89
1712089062841,599616091680222880,-121
1712089062848,599616091687888820,-142
1712089062856,599616091695554760,-203
1712089062864,599616091703220700,-284
1712089062871,599616091710886640,-339
1712089062879,599616091718552580,-311
1712089062887,599616091726218520,-155
1712089062894,599616091733884460,96
1712089062902,599616091741550400,359
1712089062910,599616091749216340,428
1712089062917,599616091756882280,-114
1712089062925,599616091764548220,-927
1712089062933,599616091772214160,-904
1712089062940,599616091779880100,-302
1712089062948,599616091787546040,-139
1712089062956,599616091795211980,-231
1712089062963,599616091802877920,-187
1712089062971,599616091810543860,-160
1712089062979,599616091818209800,-176
1712089062985,599616091825875740,-206
1712089062993,599616091833541680,-245
1712089063001,599616091841207620,-213
1712089063009,599616091848873560,-160
1712089063017,599616091856539500,-178
1712089063025,599616091864205440,-201
1712089063032,599616091871871380,-171
1712089063040,599616091879537320,-109
1712089063048,599616091887203260,-52
1712089063055,599616091894869200,-45
1712089063063,599616091902535140,-114
1712089063071,599616091910201080,-162
1712089063078,599616091917867020,-98
1712089063086,599616091925532960,-16
1712089063094,599616091933198900,16
1712089063101,599616091940864840,38
1712089063109,599616091948530780,61
1712089063117,599616091956196720,82
1712089063124,599616091963862694,121
1712089063132,599616091971528634,164
1712089063140,599616091979194574,176
1712089063147,599616091986860514,171
1712089063155,599616091994526454,132
1712089063163,599616092002192394,20
1712089063169,599616092009858334,-89
1712089063177,599616092017524274,-151
1712089063185,599616092025190214,-190
1712089063193,599616092032856154,-219
1712089063201,599616092040522094,-277
1712089063209,599616092048188034,-375
1712089063216,599616092055853974,-421
1712089063224,599616092063519914,-368
1712089063232,599616092071185854,-313
1712089063239,599616092078851794,-284
1712089063247,599616092086517734,-247
1712089063255,599616092094183674,-231
1712089063262,599616092101849614,-222
1712089063270,599616092109515554,-171
1712089063278,599616092117181494,-130
1712089063285,599616092124847434,-112
1712089063293,599616092132513374,-64
1712089063301,599616092140179314,-48
1712089063308,599616092147845254,-84
1712089063316,599616092155511194,-64
1712089063324,599616092163177134,-18
1712089063331,599616092170843074,-34
1712089063339,599616092178509014,-22
1712089063347,599616092186174954,45
1712089063353,599616092193840894,48
1712089063361,599616092201506834,4
1712089063369,599616092209172774,11
1712089063377,599616092216838714,9
1712089063385,599616092224504654,-27
1712089063393,599616092232170594,-25
1712089063400,599616092239836534,-36
1712089063408,599616092247502474,-93
1712089063416,599616092255168414,-128
1712089063423,599616092262834354,-176
1712089063431,599616092270500294,-261
1712089063439,599616092278166234,-254
1712089063446,599616092285832174,-199
1712089063454,599616092293498114,-213
1712089063462,599616092301164054,-245
1712089063469,599616092308829994,-231
1712089063477,599616092316495934,-197
1712089063485,599616092324161874,-197
1712089063492,599616092331827814,-265
1712089063500,599616092339493754,-316
1712089063508,599616092347159694,-284
1712089063515,599616092354825634,-272
1712089063523,599616092362491574,-293
1712089063531,599616092370157514,-245
1712089063537,599616092377823454,-180
1712089063545,599616092385489394,-192
1712089063553,599616092393155334,-242
1712089063561,599616092400821274,-240
1712089063569,599616092408487214,-190
1712089063577,599616092416153154,-164
1712089063584,599616092423819094,-160
1712089063592,599616092431485034,-107
1712089063600,599616092439150974,-11
1712089063607,599616092446816914,100
1712089063615,599616092454482854,121
1712089063623,599616092462148794,-355
1712089063630,599616092469814734,-989
1712089063638,599616092477480674,-801
1712089063646,599616092485146614,-274
1712089063653,599616092492812554,-279
1712089063661,599616092500478494,-364
1712089063669,599616092508144434,-272
1712089063676,599616092515810374,-277
1712089063684,599616092523476346,-270
1712089063692,599616092531142286,-219
1712089063699,599616092538808226,-272
1712089063707,599616092546474166,-295
1712089063715,599616092554140106,-201
1712089063721,599616092561806046,-121
1712089063729,599616092569471986,-109
1712089063737,599616092577137926,-151
1712089063745,599616092584803866,-256
1712089063753,599616092592469806,-332
1712089063761,599616092600135746,-279
1712089063768,599616092607801686,-194
1712089063776,599616092615467626,-158
1712089063784,599616092623133566,-109
1712089063791,599616092630799506,-61
1712089063799,599616092638465446,-45
1712089063807,599616092646131386,-4
1712089063814,599616092653797326,84
1712089063822,599616092661463266,146
1712089063830,599616092669129206,142
1712089063837,599616092676795146,105
1712089063845,599616092684461086,116
1712089063853,599616092692127026,180
1712089063860,599616092699792966,197
1712089063868,599616092707458906,162
1712089063876,599616092715124846,155
1712089063883,599616092722790786,112
1712089063891,599616092730456726,2
1712089063897,599616092738122666,-27
1712089063905,599616092745788606,11
1712089063913,599616092753454546,-66
1712089063921,599616092761120486,-171
1712089063929,599616092768786426,-155
1712089063937,599616092776452366,-178
1712089063944,599616092784118306,-254
1712089063952,599616092791784246,-213
1712089063960,599616092799450186,-123
1712089063967,599616092807116126,-87
1712089063975,599616092814782066,-73
1712089063983,599616092822448006,-84
1712089063990,599616092830113946,-87
1712089063998,599616092837779886,-105
1712089064006,599616092845445826,-199
1712089064013,599616092853111766,-233
1712089064021,599616092860777706,-151
1712089064029,599616092868443646,-100
1712089064036,599616092876109586,-107
1712089064044,599616092883775526,-91
1712089064052,599616092891441466,-57
1712089064059,599616092899107406,-32
1712089064067,599616092906773346,-16
1712089064075,599616092914439286,11
1712089064081,599616092922105226,18
1712089064089,599616092929771166,-20
1712089064097,599616092937437106,-38
1712089064105,599616092945103046,4
1712089064113,599616092952768986,43
1712089064121,599616092960434926,77
1712089064128,599616092968100866,100
1712089064136,599616092975766806,18
1712089064144,599616092983432746,-52
1712089064151,599616092991098686,-13
1712089064159,599616092998764626,-27
1712089064167,599616093006430566,-64
1712089064174,599616093014096506,-27
1712089064182,599616093021762446,-52
1712089064190,599616093029428386,-116
1712089064197,599616093037094326,-77
1712089064205,599616093044760266,-41
1712089064213,599616093052426206,-43
1712089064220,599616093060092146,2
1712089064228,599616093067758086,22
1712089064236,599616093075424026,-11
1712089064243,599616093083089998,-20
1712089064251,599616093090755938,-20
1712089064259,599616093098421878,-11
1712089064265,599616093106087818,34
1712089064273,599616093113753758,16
1712089064281,599616093121419698,-98
1712089064289,599616093129085638,-146
1712089064297,599616093136751578,-91
1712089064305,599616093144417518,-59
1712089064312,599616093152083458,-13
1712089064320,599616093159749398,162
1712089064328,599616093167415338,332
1712089064335,599616093175081278,366
1712089064343,599616093182747218,215
1712089064351,599616093190413158,-327
1712089064358,599616093198079098,-815
1712089064366,599616093205745038,-542
1712089064374,599616093213410978,-114
1712089064381,599616093221076918,-190
1712089064389,599616093228742858,-297
1712089064397,599616093236408798,-180
1712089064404,599616093244074738,-139
1712089064412,599616093251740678,-219
1712089064420,599616093259406618,-245
1712089064427,599616093267072558,-215
1712089064435,599616093274738498,-203
1712089064443,599616093282404438,-206
1712089064449,599616093290070378,-155
1712089064457,599616093297736318,-57
1712089064465,599616093305402258,-22
1712089064473,599616093313068198,-121
1712089064481,599616093320734138,-229
1712089064489,599616093328400078,-185
1712089064496,599616093336066018,-142
1712089064504,599616093343731958,-224
1712089064512,599616093351397898,-192
1712089064519,599616093359063838,-68
1712089064527,599616093366729778,-135
1712089064535,599616093374395718,-187
1712089064542,599616093382061658,-2
1712089064550,599616093389727598,96
1712089064558,599616093397393538,64
1712089064565,599616093405059478,119
1712089064573,599616093412725418,116
1712089064581,599616093420391358,59
1712089064588,599616093428057298,116
1712089064596,599616093435723238,155
1712089064604,599616093443389178,98
1712089064611,599616093451055118,66
1712089064619,599616093458721058,29
1712089064627,599616093466386998,-50
1712089064633,599616093474052938,-57
1712089064641,599616093481718878,-9
1712089064649,599616093489384818,-27
1712089064657,599616093497050758,-93
1712089064665,599616093504716698,-130
1712089064673,599616093512382638,-151
1712089064680,599616093520048578,-144
1712089064688,599616093527714518,-89
1712089064696,599616093535380458,-20
1712089064703,599616093543046398,41
1712089064711,599616093550712338,34
1712089064719,599616093558378278,-11
1712089064726,599616093566044218,25
1712089064734,599616093573710158,93
1712089064742,599616093581376098,121
1712089064749,599616093589042038,148
1712089064757,599616093596707978,174
1712089064765,599616093604373918,146
1712089064772,599616093612039858,121
1712089064780,599616093619705798,162
1712089064788,599616093627371738,203
1712089064795,599616093635037678,201
1712089064803,599616093642703650,176
1712089064811,599616093650369590,151
1712089064817,599616093658035530,91
1712089064825,599616093665701470,45
1712089064833,599616093673367410,87
1712089064841,599616093681033350,139
1712089064849,599616093688699290,132
1712089064857,599616093696365230,114
1712089064864,599616093704031170,43
1712089064872,599616093711697110,-45
1712089064880,599616093719363050,0
1712089064887,599616093727028990,80
1712089064895,599616093734694930,32
1712089064903,599616093742360870,-36
1712089064910,599616093750026810,-25
1712089064918,599616093757692750,-9
1712089064926,599616093765358690,11
1712089064933,599616093773024630,68
1712089064941,599616093780690570,96
1712089064949,599616093788356510,96
1712089064956,599616093796022450,119
1712089064964,599616093803688390,121
1712089064972,599616093811354330,71
1712089064979,599616093819020270,27
1712089064987,599616093826686210,-2
1712089064995,599616093834352150,-25
1712089065001,599616093842018090,-68
1712089065009,599616093849684030,-190
1712089065017,599616093857349970,-281
1712089065025,599616093865015910,-240
1712089065033,599616093872681850,-201
1712089065041,599616093880347790,-199
1712089065048,599616093888013730,-96
1712089065056,599616093895679670,89
1712089065064,599616093903345610,286
1712089065071,599616093911011550,481
1712089065079,599616093918677490,364
1712089065087,599616093926343430,-306
1712089065094,599616093934009370,-726
1712089065102,599616093941675310,-297
1712089065110,599616093949341250,68
1712089065117,599616093957007190,-36
1712089065125,599616093964673130,-54
1712089065133,599616093972339070,-13
1712089065140,599616093980005010,-105
1712089065148,599616093987670950,-192
1712089065156,599616093995336890,-242
1712089065163,599616094003002830,-286
1712089065171,599616094010668770,-279
1712089065179,599616094018334710,-242
1712089065185,599616094026000650,-213
1712089065193,599616094033666590,-190
1712089065201,599616094041332530,-180
1712089065209,599616094048998470,-245
1712089065217,599616094056664410,-300
1712089065225,599616094064330350,-247
1712089065232,599616094071996290,-169
1712089065240,599616094079662230,-119
1712089065248,599616094087328170,-73
1712089065255,599616094094994110,-125
1712089065263,599616094102660050,-217
1712089065271,599616094110325990,-174
1712089065278,599616094117991930,-73
1712089065286,599616094125657870,-22
1712089065294,599616094133323810,36
1712089065301,599616094140989750,75
1712089065309,599616094148655690,50
1712089065317,599616094156321630,36
1712089065324,599616094163987570,66
1712089065332,599616094171653510,36
1712089065340,599616094179319450,-36
1712089065347,599616094186985390,-80
1712089065355,599616094194651330,-158
1712089065363,599616094202317302,-224
1712089065369,599616094209983242,-178
1712089065377,599616094217649182,-135
1712089065385,599616094225315122,-162
1712089065393,599616094232981062,-210
1712089065401,599616094240647002,-325
1712089065409,599616094248312942,-449
1712089065416,599616094255978882,-407
1712089065424,599616094263644822,-286
1712089065432,599616094271310762,-233
1712089065439,599616094278976702,-206
1712089065447,599616094286642642,-185
1712089065455,599616094294308582,-185
1712089065462,599616094301974522,-151
1712089065470,599616094309640462,-96
1712089065478,599616094317306402,-71
1712089065485,599616094324972342,-61
1712089065493,599616094332638282,-59
1712089065501,599616094340304222,-41
1712089065508,599616094347970162,-77
1712089065516,599616094355636102,-174
1712089065524,599616094363302042,-158
1712089065531,599616094370967982,-82
1712089065539,599616094378633922,-114
1712089065547,599616094386299862,-174
1712089065553,599616094393965802,-203
1712089065561,599616094401631742,-222
1712089065569,599616094409297682,-180
1712089065577,599616094416963622,-89
1712089065585,599616094424629562,-54
1712089065593,599616094432295502,-100
1712089065600,599616094439961442,-109
1712089065608,599616094447627382,-29
1712089065616,599616094455293322,18
1712089065623,599616094462959262,0
1712089065631,599616094470625202,9
1712089065639,599616094478291142,0
1712089065646,599616094485957082,-89
1712089065654,599616094493623022,-128
1712089065662,599616094501288962,-75
1712089065669,599616094508954902,-25
1712089065677,599616094516620842,-6
1712089065685,599616094524286782,-9
1712089065692,599616094531952722,-73
1712089065700,599616094539618662,-144
1712089065708,599616094547284602,-109
1712089065715,599616094554950542,-54
1712089065723,599616094562616482,-66
1712089065731,599616094570282422,-27
1712089065737,599616094577948362,128
1712089065745,599616094585614302,348
1712089065753,599616094593280242,552
1712089065761,599616094600946182,501
1712089065769,599616094608612122,-155
1712089065777,599616094616278062,-804
1712089065784,599616094623944002,-513
1712089065792,599616094631609942,-6
1712089065800,599616094639275882,-41
1712089065807,599616094646941822,-73
1712089065815,599616094654607762,52
1712089065823,599616094662273702,48
1712089065830,599616094669939642,25
1712089065838,599616094677605582,71
1712089065846,599616094685271522,71
1712089065853,599616094692937462,43
1712089065861,599616094700603402,52
1712089065869,599616094708269342,57
1712089065876,599616094715935282,43
1712089065884,599616094723601222,-13
1712089065892,599616094731267162,-128
1712089065899,599616094738933102,-167
1712089065907,599616094746599042,-96
1712089065915,599616094754264982,-66
1712089065921,599616094761930954,-89
1712089065929,599616094769596894,-87
1712089065937,599616094777262834,-98
1712089065945,599616094784928774,-142
1712089065953,599616094792594714,-137
1712089065961,599616094800260654,-82
1712089065968,599616094807926594,-41
1712089065976,599616094815592534,-25
1712089065984,599616094823258474,-59
1712089065991,599616094830924414,-135
1712089065999,599616094838590354,-164
1712089066007,599616094846256294,-180
1712089066014,599616094853922234,-272
1712089066022,599616094861588174,-332
1712089066030,599616094869254114,-325
1712089066037,599616094876920054,-398
1712089066045,599616094884585994,-499
1712089066053,599616094892251934,-462
1712089066060,599616094899917874,-373
1712089066068,599616094907583814,-334
1712089066076,599616094915249754,-332
1712089066083,599616094922915694,-375
1712089066091,599616094930581634,-421
1712089066099,599616094938247574,-389
1712089066105,599616094945913514,-309
1712089066113,599616094953579454,-238
1712089066121,599616094961245394,-199
1712089066129,599616094968911334,-245
1712089066137,599616094976577274,-302
1712089066145,599616094984243214,-251
1712089066152,599616094991909154,-187
1712089066160,599616094999575094,-158
1712089066168,599616095007241034,-96
1712089066175,599616095014906974,-71
1712089066183,599616095022572914,-119
1712089066191,599616095030238854,-125
1712089066198,599616095037904794,-73
1712089066206,599616095045570734,-48
1712089066214,599616095053236674,-45
1712089066221,599616095060902614,-41
1712089066229,599616095068568554,-119
1712089066237,599616095076234494,-226
1712089066244,599616095083900434,-190
1712089066252,599616095091566374,-96
1712089066260,599616095099232314,-89
1712089066267,599616095106898254,-87
1712089066275,599616095114564194,-50
1712089066283,599616095122230134,-48
1712089066289,599616095129896074,-52
1712089066297,599616095137562014,-32
1712089066305,599616095145227954,-16
1712089066313,599616095152893894,18
1712089066321,599616095160559834,48
1712089066329,599616095168225774,41
1712089066336,599616095175891714,34
1712089066344,599616095183557654,61
1712089066352,599616095191223594,80
1712089066359,599616095198889534,73
1712089066367,599616095206555474,59
1712089066375,599616095214221414,29
1712089066382,599616095221887354,-16
1712089066390,599616095229553294,-20
1712089066398,599616095237219234,13
1712089066405,599616095244885174,9
1712089066413,599616095252551114,-16
1712089066421,599616095260217054,-11
1712089066428,599616095267882994,-29
1712089066436,599616095275548934,25
1712089066444,599616095283214874,297
1712089066451,599616095290880814,588
1712089066459,599616095298546754,506
1712089066467,599616095306212694,-160
1712089066473,599616095313878634,-719
1712089066481,599616095321544608,-371
1712089066489,599616095329210548,114
1712089066497,599616095336876488,57
1712089066505,599616095344542428,-18
1712089066513,599616095352208368,32
1712089066520,599616095359874308,-52
1712089066528,599616095367540248,-146
1712089066536,599616095375206188,-93
1712089066543,599616095382872128,-36
1712089066551,599616095390538068,-52
1712089066559,599616095398204008,-34
1712089066566,599616095405869948,-2
1712089066574,599616095413535888,-48
1712089066582,599616095421201828,-103
1712089066589,599616095428867768,-73
1712089066597,599616095436533708,-27
1712089066605,599616095444199648,-9
1712089066612,599616095451865588,18
1712089066620,599616095459531528,32
1712089066628,599616095467197468,25
1712089066635,599616095474863408,45
1712089066643,599616095482529348,82
1712089066651,599616095490195288,96
1712089066657,599616095497861228,105
1712089066665,599616095505527168,59
1712089066673,599616095513193108,-45
1712089066681,599616095520859048,-93
1712089066689,599616095528524988,-103
1712089066697,599616095536190928,-139
1712089066704,599616095543856868,-132
1712089066712,599616095551522808,-123
1712089066720,599616095559188748,-190
1712089066727,599616095566854688,-233
1712089066735,599616095574520628,-210
1712089066743,599616095582186568,-203
1712089066750,599616095589852508,-222
1712089066758,599616095597518448,-235
1712089066766,599616095605184388,-293
1712089066773,599616095612850328,-364
1712089066781,599616095620516268,-350
1712089066789,599616095628182208,-302
1712089066796,599616095635848148,-251
1712089066804,599616095643514088,-185
1712089066812,599616095651180028,-176
1712089066819,599616095658845968,-197
1712089066827,599616095666511908,-151
1712089066835,599616095674177848,-93
1712089066841,599616095681843788,-68
1712089066849,599616095689509728,-20
1712089066857,599616095697175668,25
1712089066865,599616095704841608,-11
1712089066873,599616095712507548,-96
1712089066881,599616095720173488,-100
1712089066888,599616095727839428,-27
1712089066896,599616095735505368,11
1712089066904,599616095743171308,22
1712089066911,599616095750837248,27
1712089066919,599616095758503188,0
1712089066927,599616095766169128,-2
1712089066934,599616095773835068,34
1712089066942,599616095781501008,45
1712089066950,599616095789166948,54
1712089066957,599616095796832888,45
1712089066965,599616095804498828,-22
1712089066973,599616095812164768,-57
1712089066980,599616095819830708,-4
1712089066988,599616095827496648,45
1712089066996,599616095835162588,71
1712089067003,599616095842828528,77
1712089067011,599616095850494468,50
1712089067019,599616095858160408,0
1712089067025,599616095865826348,-43
1712089067033,599616095873492288,-57
1712089067041,599616095881158260,-25
1712089067049,599616095888824200,6
1712089067057,599616095896490140,0
1712089067065,599616095904156080,-16
1712089067072,599616095911822020,-6
1712089067080,599616095919487960,27
1712089067088,599616095927153900,75
1712089067095,599616095934819840,107
1712089067103,599616095942485780,103
1712089067111,599616095950151720,48
1712089067118,599616095957817660,-22
1712089067126,599616095965483600,-20
1712089067134,599616095973149540,48
1712089067141,599616095980815480,64
1712089067149,599616095988481420,11
1712089067157,599616095996147360,-25
1712089067164,599616096003813300,68
1712089067172,599616096011479240,334
1712089067180,599616096019145180,481
1712089067187,599616096026811120,73
1712089067195,599616096034477060,-593
1712089067203,599616096042143000,-611
1712089067209,599616096049808940,-162
1712089067217,599616096057474880,-61
1712089067225,599616096065140820,-148
1712089067233,599616096072806760,-100
1712089067241,599616096080472700,-71
1712089067249,599616096088138640,-87
1712089067256,599616096095804580,-52
1712089067264,599616096103470520,2
1712089067272,599616096111136460,18
1712089067279,599616096118802400,-4
1712089067287,599616096126468340,-9
1712089067295,599616096134134280,-9
1712089067302,599616096141800220,-73
1712089067310,599616096149466160,-144
1712089067318,599616096157132100,-109
1712089067325,599616096164798040,-43
1712089067333,599616096172463980,-32
1712089067341,599616096180129920,-13
1712089067348,599616096187795860,18
1712089067356,599616096195461800,11
1712089067364,599616096203127740,-27
1712089067371,599616096210793680,-75
1712089067379,599616096218459620,-109
1712089067387,599616096226125560,-123
1712089067393,599616096233791500,-121
1712089067401,599616096241457440,-105
1712089067409,599616096249123380,-80
1712089067417,599616096256789320,-52
1712089067425,599616096264455260,-61
1712089067432,599616096272121200,-105
1712089067440,599616096279787140,-123
1712089067448,599616096287453080,-135
1712089067455,599616096295119020,-167
1712089067463,599616096302784960,-203
1712089067471,599616096310450900,-238
1712089067478,599616096318116840,-245
1712089067486,599616096325782780,-208
1712089067494,599616096333448720,-215
1712089067501,599616096341114660,-295
1712089067509,599616096348780600,-320
1712089067517,599616096356446540,-247
1712089067524,599616096364112480,-203
1712089067532,599616096371778420,-258
1712089067540,599616096379444360,-327
1712089067547,599616096387110300,-316
1712089067555,599616096394776240,-290
1712089067563,599616096402442180,-286
1712089067569,599616096410108120,-229
1712089067577,599616096417774060,-151
1712089067585,599616096425440000,-121
1712089067593,599616096433105940,-121
1712089067601,599616096440771912,-130
1712089067609,599616096448437852,-174
1712089067616,599616096456103792,-208
1712089067624,599616096463769732,-167
1712089067632,599616096471435672,-103
1712089067639,599616096479101612,-93
1712089067647,599616096486767552,-125
1712089067655,599616096494433492,-148
1712089067662,599616096502099432,-125
1712089067670,599616096509765372,-71
1712089067678,599616096517431312,-27
1712089067685,599616096525097252,-27
1712089067693,599616096532763192,-128
1712089067701,599616096540429132,-249
1712089067708,599616096548095072,-215
1712089067716,599616096555761012,-107
1712089067724,599616096563426952,-80
1712089067731,599616096571092892,-61
1712089067739,599616096578758832,-13
1712089067747,599616096586424772,-20
1712089067753,599616096594090712,-68
1712089067761,599616096601756652,-45
1712089067769,599616096609422592,29
1712089067777,599616096617088532,82
1712089067785,599616096624754472,100
1712089067793,599616096632420412,100
1712089067800,599616096640086352,80
1712089067808,599616096647752292,61
1712089067816,599616096655418232,91
1712089067823,599616096663084172,132
1712089067831,599616096670750112,82
1712089067839,599616096678416052,-48
1712089067846,599616096686081992,-98
1712089067854,599616096693747932,-75
1712089067862,599616096701413872,-114
1712089067869,599616096709079812,-128
1712089067877,599616096716745752,-52
1712089067885,599616096724411692,-48
1712089067892,599616096732077632,-45
1712089067900,599616096739743572,176
1712089067908,599616096747409512,510
1712089067915,599616096755075452,625
1712089067923,599616096762741392,210
1712089067931,599616096770407332,-520
1712089067937,599616096778073272,-664
1712089067945,599616096785739212,-187
1712089067953,599616096793405152,20
1712089067961,599616096801071092,-48
1712089067969,599616096808737032,4
1712089067977,599616096816402972,38
1712089067984,599616096824068912,-22
1712089067992,599616096831734852,-34
1712089068000,599616096839400792,4
1712089068007,599616096847066732,0
1712089068015,599616096854732672,-16
1712089068023,599616096862398612,-4
1712089068030,599616096870064552,2
1712089068038,599616096877730492,-50
1712089068046,599616096885396432,-121
1712089068053,599616096893062372,-109
1712089068061,599616096900728312,-50
1712089068069,599616096908394252,-32
1712089068076,599616096916060192,-34
1712089068084,599616096923726132,-82
1712089068092,599616096931392072,-176
1712089068099,599616096939058012,-224
1712089068107,599616096946723952,-242
1712089068115,599616096954389892,-274
1712089068121,599616096962055832,-263
1712089068129,599616096969721772,-217
1712089068137,599616096977387712,-206
1712089068145,599616096985053652,-183
1712089068153,599616096992719592,-146
1712089068161,599616097000385564,-148
1712089068168,599616097008051504,-164
1712089068176,599616097015717444,-187
1712089068184,599616097023383384,-254
1712089068191,599616097031049324,-316
1712089068199,599616097038715264,-339
1712089068207,599616097046381204,-368
1712089068214,599616097054047144,-377
1712089068222,599616097061713084,-377
1712089068230,599616097069379024,-481
1712089068237,599616097077044964,-581
1712089068245,599616097084710904,-526
1712089068253,599616097092376844,-462
1712089068260,599616097100042784,-451
1712089068268,599616097107708724,-387
1712089068276,599616097115374664,-329
1712089068283,599616097123040604,-339
1712089068291,599616097130706544,-323
1712089068299,599616097138372484,-270
1712089068305,599616097146038424,-240
1712089068313,599616097153704364,-229
1712089068321,599616097161370304,-206
1712089068329,599616097169036244,-180
1712089068337,599616097176702184,-180
1712089068345,599616097184368124,-219
1712089068352,599616097192034064,-265
1712089068360,599616097199700004,-263
1712089068368,599616097207365944,-247
1712089068375,599616097215031884,-304
1712089068383,599616097222697824,-371
1712089068391,599616097230363764,-350
1712089068398,599616097238029704,-288
1712089068406,599616097245695644,-245
1712089068414,599616097253361584,-199
1712089068421,599616097261027524,-183
1712089068429,599616097268693464,-206
1712089068437,599616097276359404,-194
1712089068444,599616097284025344,-153
1712089068452,599616097291691284,-121
1712089068460,599616097299357224,-82
1712089068467,599616097307023164,-57
1712089068475,599616097314689104,-77
1712089068483,599616097322355044,-93
1712089068489,599616097330020984,-66
1712089068497,599616097337686924,-22
1712089068505,599616097345352864,13
1712089068513,599616097353018804,27
1712089068521,599616097360684744,-6
1712089068529,599616097368350684,-48
1712089068536,599616097376016624,-61
1712089068544,599616097383682564,-114
1712089068552,599616097391348504,-203
1712089068559,599616097399014444,-206
1712089068567,599616097406680384,-197
1712089068575,599616097414346324,-277
1712089068582,599616097422012264,-306
1712089068590,599616097429678204,-247
1712089068598,599616097437344144,-171
1712089068605,599616097445010084,25
1712089068613,599616097452676024,316
1712089068621,599616097460341964,394
1712089068628,599616097468007904,-103
1712089068636,599616097475673844,-854
1712089068644,599616097483339784,-797
1712089068651,599616097491005724,-158
1712089068659,599616097498671664,-25
1712089068667,599616097506337604,-171
1712089068673,599616097514003544,-132
1712089068681,599616097521669484,-112
1712089068689,599616097529335424,-130
1712089068697,599616097537001364,-77
1712089068705,599616097544667304,-43
1712089068713,599616097552333244,-82
1712089068720,599616097559999216,-125
1712089068728,599616097567665156,-107
1712089068736,599616097575331096,-61
1712089068743,599616097582997036,-34
1712089068751,599616097590662976,-13
1712089068759,599616097598328916,-36
1712089068766,599616097605994856,-171
1712089068774,599616097613660796,-272
1712089068782,599616097621326736,-197
1712089068789,599616097628992676,-89
1712089068797,599616097636658616,-59
1712089068805,599616097644324556,-38
1712089068812,599616097651990496,-22
1712089068820,599616097659656436,-25
1712089068828,599616097667322376,-32
1712089068835,599616097674988316,-61
1712089068843,599616097682654256,-132
1712089068851,599616097690320196,-190
1712089068857,599616097697986136,-197
1712089068865,599616097705652076,-217
1712089068873,599616097713318016,-258
1712089068881,599616097720983956,-277
1712089068889,599616097728649896,-320
1712089068897,599616097736315836,-410
1712089068904,599616097743981776,-494
1712089068912,599616097751647716,-570
1712089068920,599616097759313656,-595
1712089068927,599616097766979596,-529
1712089068935,599616097774645536,-471
1712089068943,599616097782311476,-469
1712089068950,599616097789977416,-444
1712089068958,599616097797643356,-416
1712089068966,599616097805309296,-410
1712089068973,599616097812975236,-361
1712089068981,599616097820641176,-306
1712089068989,599616097828307116,-295
1712089068996,599616097835973056,-270
1712089069004,599616097843638996,-224
1712089069012,599616097851304936,-215
1712089069019,599616097858970876,-215
1712089069027,599616097866636816,-185
1712089069035,599616097874302756,-164
1712089069041,599616097881968696,-190
1712089069049,599616097889634636,-263
1712089069057,599616097897300576,-316
1712089069065,599616097904966516,-295
1712089069073,599616097912632456,-274
1712089069081,599616097920298396,-313
1712089069088,599616097927964336,-350
1712089069096,599616097935630276,-329
1712089069104,599616097943296216,-327
1712089069111,599616097950962156,-377
1712089069119,599616097958628096,-380
1712089069127,599616097966294036,-325
1712089069134,599616097973959976,-277
1712089069142,599616097981625916,-224
1712089069150,599616097989291856,-174
1712089069157,599616097996957796,-171
1712089069165,599616098004623736,-180
1712089069173,599616098012289676,-153
1712089069180,599616098019955616,-114
1712089069188,599616098027621556,-80
1712089069196,599616098035287496,-64
1712089069203,599616098042953436,-77
1712089069211,599616098050619376,-98
1712089069219,599616098058285316,-100
1712089069225,599616098065951256,-77
1712089069233,599616098073617196,-41
1712089069241,599616098081283136,-11
1712089069249,599616098088949076,-48
1712089069257,599616098096615016,-155
1712089069265,599616098104280956,-203
1712089069272,599616098111946896,-142
1712089069280,599616098119612868,-82
1712089069288,599616098127278808,-18
1712089069295,599616098134944748,146
1712089069303,599616098142610688,366
1712089069311,599616098150276628,536
1712089069318,599616098157942568,391
1712089069326,599616098165608508,-293
1712089069334,599616098173274448,-746
1712089069341,599616098180940388,-345
1712089069349,599616098188606328,-57
1712089069357,599616098196272268,-295
1712089069364,599616098203938208,-323
1712089069372,599616098211604148,-162
1712089069380,599616098219270088,-155
1712089069387,599616098226936028,-132
1712089069395,599616098234601968,-82
1712089069403,599616098242267908,-137
1712089069409,599616098249933848,-135
1712089069417,599616098257599788,-59
1712089069425,599616098265265728,-61
1712089069433,599616098272931668,-82
1712089069441,599616098280597608,-84
1712089069449,599616098288263548,-142
1712089069456,599616098295929488,-176
1712089069464,599616098303595428,-105
1712089069472,599616098311261368,-41
1712089069479,599616098318927308,-11
1712089069487,599616098326593248,36
1712089069495,599616098334259188,52
1712089069502,599616098341925128,36
1712089069510,599616098349591068,43
1712089069518,599616098357257008,50
1712089069525,599616098364922948,45
1712089069533,599616098372588888,32
1712089069541,599616098380254828,6
1712089069548,599616098387920768,-22
1712089069556,599616098395586708,-100
1712089069564,599616098403252648,-194
1712089069571,599616098410918588,-247
1712089069579,599616098418584528,-332
1712089069587,599616098426250468,-451
1712089069593,599616098433916408,-494
1712089069601,599616098441582348,-485
1712089069609,599616098449248288,-474
1712089069617,599616098456914228,-442
1712089069625,599616098464580168,-394
1712089069633,599616098472246108,-387
1712089069640,599616098479912048,-428
1712089069648,599616098487577988,-460
1712089069656,599616098495243928,-410
1712089069663,599616098502909868,-323
1712089069671,599616098510575808,-290
1712089069679,599616098518241748,-293
1712089069686,599616098525907688,-288
1712089069694,599616098533573628,-313
1712089069702,599616098541239568,-332
1712089069709,599616098548905508,-272
1712089069717,599616098556571448,-210
1712089069725,599616098564237388,-199
1712089069732,599616098571903328,-185
1712089069740,599616098579569268,-164
1712089069748,599616098587235208,-158
1712089069755,599616098594901148,-128
1712089069763,599616098602567088,-89
1712089069771,599616098610233028,-89
1712089069777,599616098617898968,-91
1712089069785,599616098625564908,-121
1712089069793,599616098633230848,-192
1712089069801,599616098640896788,-197
1712089069809,599616098648562728,-132
1712089069817,599616098656228668,-123
1712089069824,599616098663894608,-174
1712089069832,599616098671560548,-224
1712089069840,599616098679246610,-270
1712089069847,599616098686912271,-281
1712089069855,599616098694577932,-238
1712089069863,599616098702243593,-206
1712089069870,599616098709909254,-183
1712089069878,599616098717574915,-144
1712089069886,599616098725240576,-192
1712089069893,599616098732906237,-295
1712089069901,599616098740571898,-270
1712089069909,599616098748237559,-174
1712089069916,599616098755903220,-139
1712089069924,599616098763568881,-119
1712089069932,599616098771234542,-93
1712089069939,599616098778900203,-96
1712089069947,599616098786565864,-80
1712089069955,599616098794231525,-54
1712089069961,599616098801897186,-80
1712089069969,599616098809562847,-96
1712089069977,599616098817228508,-77
1712089069985,599616098824894169,-112
1712089069993,599616098832559830,-162
1712089070001,599616098840225491,-144
1712089070008,599616098847891152,-107
1712089070016,599616098855556813,-73
1712089070024,599616098863222474,18
1712089070031,599616098870888135,185
1712089070039,599616098878553796,400
1712089070047,599616098886219457,549
1712089070054,599616098893885118,208
1712089070062,599616098901550779,-682
1712089070070,599616098909216440,-1028
1712089070077,599616098916882101,-499
1712089070085,599616098924547762,-233
1712089070093,599616098932213423,-364
1712089070100,599616098939879084,-279
1712089070108,599616098947544745,-153
1712089070116,599616098955210406,-169
1712089070123,599616098962876067,-148
1712089070131,599616098970541728,-119
1712089070139,599616098978207389,-162
1712089070145,599616098985873050,-174
1712089070153,599616098993538711,-116
1712089070161,599616099001204372,-68
1712089070169,599616099008870033,-45
1712089070177,599616099016535694,-82
1712089070185,599616099024201355,-180
1712089070192,599616099031867016,-185
1712089070200,599616099039532677,-91
1712089070208,599616099047198338,-68
1712089070215,599616099054863999,-96
1712089070223,599616099062529660,-91
1712089070231,599616099070195321,-119
1712089070238,599616099077860982,-144
1712089070246,599616099085526643,-87
1712089070254,599616099093192304,-18
1712089070261,599616099100857965,9
1712089070269,599616099108523626,20
1712089070277,599616099116189287,6
1712089070284,599616099123854948,-13
1712089070292,599616099131520609,-2
1712089070300,599616099139186270,-4
1712089070307,599616099146851931,-52
1712089070315,599616099154517592,-155
1712089070323,599616099162183253,-329
1712089070329,599616099169848914,-451
1712089070337,599616099177514575,-416
1712089070345,599616099185180236,-350
1712089070353,599616099192845897,-320
1712089070361,599616099200511558,-284
1712089070369,599616099208177219,-258
1712089070376,599616099215842880,-279
1712089070384,599616099223508541,-272
1712089070392,599616099231174202,-197
1712089070399,599616099238829836,-137
1712089070407,599616099246495637,-128
1712089070415,599616099254161438,-119
1712089070422,599616099261827239,-103
1712089070430,599616099269493040,-91
1712089070438,599616099277158841,-59
1712089070445,599616099284824642,-4
1712089070453,599616099292490443,0
1712089070461,599616099300156244,-38
1712089070468,599616099307822045,-68
1712089070476,599616099315487846,-114
1712089070484,599616099323153647,-142
1712089070491,599616099330819448,-105
1712089070499,599616099338485249,-89
1712089070507,599616099346151050,-100
1712089070513,599616099353816851,-103
1712089070521,599616099361482652,-148
1712089070529,599616099369148453,-185
1712089070537,599616099376814254,-112
1712089070545,599616099384480055,-59
1712089070553,599616099392145856,-98
1712089070560,599616099399811657,-142
1712089070568,599616099407477458,-224
1712089070576,599616099415143259,-320
1712089070583,599616099422809060,-256
1712089070591,599616099430474861,-116
1712089070599,599616099438140662,-103
1712089070606,599616099445806463,-171
1712089070614,599616099453472264,-171
1712089070622,599616099461138065,-128
1712089070629,599616099468803866,-137
1712089070637,599616099476469667,-142
1712089070645,599616099484135468,-96
1712089070652,599616099491801269,-52
1712089070660,599616099499467070,-27
1712089070668,599616099507132871,-25
1712089070675,599616099514798672,-43
1712089070683,599616099522464473,-29
1712089070691,599616099530130274,9
1712089070697,599616099537796075,-38
1712089070705,599616099545461876,-82
1712089070713,599616099553127677,-64
1712089070721,599616099560793478,-137
1712089070729,599616099568459279,-194
1712089070737,599616099576125080,-116
1712089070744,599616099583790881,-48
1712089070752,599616099591456682,-41
1712089070759,599616099599122483,-25
1712089070767,599616099606788284,-13
1712089070775,599616099614454085,-29
1712089070782,599616099622119886,-27
1712089070790,599616099629785687,114
1712089070798,599616099637451488,380
1712089070805,599616099645117289,542
1712089070813,599616099652783090,245
1712089070821,599616099660448891,-455
1712089070828,599616099668114692,-703
1712089070836,599616099675780493,-254
1712089070844,599616099683446294,-2
1712089070851,599616099691112095,-93
1712089070859,599616099698777896,-91
1712089070867,599616099706443697,-109
1712089070873,599616099714109498,-176
1712089070881,599616099721775299,-121
1712089070889,599616099729441100,-48
1712089070897,599616099737106901,-59
1712089070905,599616099744772702,-64
1712089070913,599616099752438503,-6
1712089070920,599616099760104304,45
1712089070928,599616099767770105,-2
1712089070936,599616099775435906,-52
1712089070943,599616099783101707,-25
1712089070951,599616099790767508,-22
1712089070959,599616099798423308,-82
1712089070966,599616099806089248,-107
1712089070974,599616099813755188,-64
1712089070982,599616099821421128,-9
1712089070989,599616099829087068,36
1712089070997,599616099836753008,77
1712089071005,599616099844418948,91
1712089071012,599616099852084888,71
1712089071020,599616099859750828,75
1712089071028,599616099867416768,112
1712089071035,599616099875082708,139
1712089071043,599616099882748648,176
1712089071051,599616099890414588,190
1712089071057,599616099898080528,114
1712089071065,599616099905746468,6
1712089071073,599616099913412408,-87
1712089071081,599616099921078348,-167
1712089071089,599616099928744288,-167
1712089071097,599616099936410228,-160
1712089071104,599616099944076168,-281
1712089071112,599616099951742108,-398
1712089071120,599616099959408048,-339
1712089071127,599616099967073988,-238
1712089071135,599616099974739928,-192
1712089071143,599616099982405868,-148
1712089071150,599616099990071808,-153
1712089071158,599616099997737748,-185
1712089071166,599616100005403688,-123
1712089071173,599616100013069628,-41
1712089071181,599616100020735568,-36
1712089071189,599616100028401508,-38
1712089071196,599616100036067448,-32
1712089071204,599616100043733388,-52
1712089071212,599616100051399328,-57
1712089071219,599616100059065268,-16
1712089071227,599616100066731208,11
1712089071235,599616100074397148,16
1712089071241,599616100082063088,16
1712089071249,599616100089729028,-43
1712089071257,599616100097394968,-128
1712089071265,599616100105060908,-100
1712089071273,599616100112726848,-11
1712089071281,599616100120392788,-16
1712089071288,599616100128058728,-54
1712089071296,599616100135724668,-20
1712089071304,599616100143390608,-13
1712089071311,599616100151056548,-50
1712089071319,599616100158722488,-9
1712089071327,599616100166388428,43
1712089071334,599616100174054368,27
1712089071342,599616100181720308,41
1712089071350,599616100189386248,80
1712089071357,599616100197052188,89
1712089071365,599616100204718128,112
1712089071373,599616100212384068,139
1712089071380,599616100220050008,123
1712089071388,599616100227715948,98
1712089071396,599616100235381888,64
1712089071403,599616100243047828,18
1712089071411,599616100250713768,32
1712089071419,599616100258379708,71
1712089071425,599616100266045648,52
1712089071433,599616100273711588,27
1712089071441,599616100281377528,38
1712089071449,599616100289043468,68
1712089071457,599616100296709408,116
1712089071465,599616100304375348,132
1712089071472,599616100312041288,105
1712089071480,599616100319707228,96
1712089071488,599616100327373168,105
1712089071495,599616100335039108,93
1712089071503,599616100342705048,96
1712089071511,599616100350370988,164
1712089071518,599616100358036960,295
1712089071526,599616100365702900,476
1712089071534,599616100373368840,588
1712089071541,599616100381034780,197
1712089071549,599616100388700720,-552
1712089071557,599616100396366660,-641
1712089071564,599616100404032600,-151
1712089071572,599616100411698540,-68
1712089071580,599616100419364480,-270
1712089071587,599616100427030420,-290
1712089071595,599616100434696360,-327
1712089071603,599616100442362300,-421
1712089071609,599616100450028240,-377
1712089071617,599616100457694180,-286
1712089071625,599616100465360120,-263
1712089071633,599616100473026060,-235
1712089071641,599616100480692000,-183
1712089071649,599616100488357940,-169
1712089071656,599616100496023880,-164
1712089071664,599616100503689820,-142
1712089071672,599616100511355760,-153
1712089071679,599616100519021700,-178
1712089071687,599616100526687640,-174
1712089071695,599616100534353580,-197
1712089071702,599616100542019520,-231
1712089071710,599616100549685460,-183
1712089071718,599616100557351400,-107
1712089071725,599616100565017340,-96
1712089071733,599616100572683280,-109
1712089071741,599616100580349220,-91
1712089071748,599616100588015160,-71
1712089071756,599616100595681100,-59
1712089071764,599616100603347040,-27
1712089071771,599616100611012980,18
1712089071779,599616100618678920,52
1712089071787,599616100626344860,36
1712089071793,599616100634010800,-93
1712089071801,599616100641676740,-226
1712089071809,599616100649342680,-197
1712089071817,599616100657008620,-128
1712089071825,599616100664674560,-155
1712089071833,599616100672340500,-213
1712089071840,599616100680006440,-251
1712089071848,599616100687672380,-245
1712089071856,599616100695338320,-210
1712089071863,599616100703004260,-185
1712089071871,599616100710670200,-125
1712089071879,599616100718336140,-77
1712089071886,599616100726002080,-96
1712089071894,599616100733668020,-107
1712089071902,599616100741333960,-61
1712089071909,599616100748999900,-6
1712089071917,599616100756665840,6
1712089071925,599616100764331780,9
1712089071932,599616100771997720,-25
1712089071940,599616100779663660,-128
1712089071948,599616100787329600,-137
1712089071955,599616100794995540,-27
1712089071963,599616100802661480,9
1712089071971,599616100810327420,-16
1712089071977,599616100817993360,4
1712089071985,599616100825659300,2
1712089071993,599616100833325240,-18
1712089072001,599616100840991180,22
1712089072009,599616100848657120,89
1712089072017,599616100856323060,103
1712089072024,599616100863989000,87
1712089072032,599616100871654940,93
1712089072040,599616100879320880,91
1712089072047,599616100886986820,48
1712089072055,599616100894652760,45
1712089072063,599616100902318700,82
1712089072070,599616100909984640,66
1712089072078,599616100917650612,16
1712089072086,599616100925316552,-36
1712089072093,599616100932982492,-61
1712089072101,599616100940648432,-29
1712089072109,599616100948314372,-11
1712089072116,599616100955980312,-27
1712089072124,599616100963646252,-52
1712089072132,599616100971312192,-148
1712089072139,599616100978978132,-224
1712089072147,599616100986644072,-142
1712089072155,599616100994310012,-68
1712089072161,599616101001975952,-91
1712089072169,599616101009641892,-89
1712089072177,599616101017307832,-64
1712089072185,599616101024973772,-45
1712089072193,599616101032639712,-11
1712089072201,599616101040305652,13
1712089072208,599616101047971592,27
1712089072216,599616101055637532,36
1712089072224,599616101063303472,-11
1712089072231,599616101070969412,-91
1712089072239,599616101078635352,-98
1712089072247,599616101086301292,-41
1712089072254,599616101093967232,-13
1712089072262,599616101101633172,-4
1712089072270,599616101109299112,-6
1712089072277,599616101116965052,-57
1712089072285,599616101124630992,-121
1712089072293,599616101132296932,-148
1712089072300,599616101139962872,-151
1712089072308,599616101147628812,-112
1712089072316,599616101155294752,-4
1712089072323,599616101162960692,137
1712089072331,599616101170626632,316
1712089072339,599616101178292572,416
1712089072345,599616101185958512,32
1712089072353,599616101193624452,-609
1712089072361,599616101201290392,-579
1712089072369,599616101208956332,-116
1712089072377,599616101216622272,-75
1712089072385,599616101224288212,-197
1712089072392,599616101231954152,-137
1712089072400,599616101239620092,-146
1712089072408,599616101247286032,-201
1712089072415,599616101254951972,-135
1712089072423,599616101262617912,-89
1712089072431,599616101270283852,-128
1712089072438,599616101277949792,-128
1712089072446,599616101285615732,-93
1712089072454,599616101293281672,-91
1712089072461,599616101300947612,-103
1712089072469,599616101308613552,-153
1712089072477,599616101316279492,-224
1712089072484,599616101323945432,-224
1712089072492,599616101331611372,-153
1712089072500,599616101339277312,-80
1712089072507,599616101346943252,-41
1712089072515,599616101354609192,-20
1712089072523,599616101362275132,-27
1712089072529,599616101369941072,-73
1712089072537,599616101377607012,-100
1712089072545,599616101385272952,-38
1712089072553,599616101392938892,45
1712089072561,599616101400604832,64
1712089072569,599616101408270772,34
1712089072576,599616101415936712,16
1712089072584,599616101423602652,20
1712089072592,599616101431268592,-29
1712089072599,599616101438934532,-130
1712089072607,599616101446600472,-164
1712089072615,599616101454266412,-180
1712089072622,599616101461932352,-251
1712089072630,599616101469598292,-281
1712089072638,599616101477294358,-245
1712089072645,599616101484959880,-213
1712089072653,599616101492625402,-187
1712089072661,599616101500290924,-171
1712089072668,599616101507956446,-203
1712089072676,599616101515621968,-242
1712089072684,599616101523287490,-206
1712089072691,599616101530953012,-132
1712089072699,599616101538618534,-91
1712089072707,599616101546284056,-91
1712089072713,599616101553949578,-153
1712089072721,599616101561615100,-215
1712089072729,599616101569280622,-169
1712089072737,599616101576946144,-98
1712089072745,599616101584611666,-66
1712089072753,599616101592277188,-45
1712089072760,599616101599942710,-68
1712089072768,599616101607608232,-116
1712089072776,599616101615273754,-128
1712089072783,599616101622939276,-132
1712089072791,599616101630604798,-123
1712089072799,599616101638270320,-80
1712089072806,599616101645935842,-119
1712089072814,599616101653601364,-238
1712089072822,599616101661266886,-268
1712089072829,599616101668932408,-192
1712089072837,599616101676597930,-128
1712089072845,599616101684263452,-109
1712089072852,599616101691928974,-103
1712089072860,599616101699594496,-105
1712089072868,599616101707260018,-107
1712089072875,599616101714925540,-75
1712089072883,599616101722591062,-27
1712089072891,599616101730256584,-27
1712089072897,599616101737922106,-48
1712089072905,599616101745587628,-41
1712089072913,599616101753253150,-64
1712089072921,599616101760918672,-107
1712089072929,599616101768584194,-75
1712089072937,599616101776249716,-27
1712089072944,599616101783915238,-38
1712089072952,599616101791580760,-38
1712089072960,599616101799246282,-20
1712089072967,599616101806911804,-36
1712089072975,599616101814577326,-6
1712089072983,599616101822242848,41
1712089072990,599616101829908370,-13
1712089072998,599616101837573892,-93
1712089073006,599616101845239414,-130
1712089073013,599616101852904936,-174
1712089073021,599616101860570458,-185
1712089073029,599616101868235980,-192
1712089073036,599616101875901502,-222
1712089073044,599616101883567024,-194
1712089073052,599616101891232546,-155
1712089073059,599616101898898068,-174
1712089073067,599616101906563590,-192
1712089073075,599616101914229112,-116
1712089073081,599616101921894634,68
1712089073089,599616101929560156,268
1712089073097,599616101937225678,242
1712089073105,599616101944891200,-380
1712089073113,599616101952556722,-1095
1712089073121,599616101960222244,-886
1712089073128,599616101967887766,-327
1712089073136,599616101975553288,-300
1712089073144,599616101983218810,-341
1712089073151,599616101990884332,-217
1712089073159,599616101998549854,-219
1712089073167,599616102006215376,-265
1712089073174,599616102013880898,-222
1712089073182,599616102021546420,-180
1712089073190,599616102029211942,-162
1712089073197,599616102036847400,-169
1712089073205,599616102044513340,-238
1712089073213,599616102052179280,-274
1712089073220,599616102059845220,-231
1712089073228,599616102067511160,-178
1712089073236,599616102075177100,-121
1712089073243,599616102082843040,-80
1712089073251,599616102090508980,-137
1712089073259,599616102098174920,-217
1712089073265,599616102105840860,-199
1712089073273,599616102113506800,-183
1712089073281,599616102121172740,-190
1712089073289,599616102128838680,-130
1712089073297,599616102136504620,-59
1712089073305,599616102144170560,-41
1712089073312,599616102151836500,-27
1712089073320,599616102159502440,27
1712089073328,599616102167168380,87
1712089073335,599616102174834320,103
1712089073343,599616102182500260,52
1712089073351,599616102190166200,-71
1712089073358,599616102197832140,-169
1712089073366,599616102205498080,-178
1712089073374,599616102213164020,-162
1712089073381,599616102220829960,-164
1712089073389,599616102228495900,-155
1712089073397,599616102236161840,-142
1712089073404,599616102243827780,-158
1712089073412,599616102251493720,-158
1712089073420,599616102259159660,-93
1712089073427,599616102266825600,-36
1712089073435,599616102274491540,-27
1712089073443,599616102282157480,-22
1712089073449,599616102289823420,-18
1712089073457,599616102297489360,-9
1712089073465,599616102305155300,34
1712089073473,599616102312821240,87
1712089073481,599616102320487180,121
1712089073489,599616102328153120,125
1712089073496,599616102335819060,109
1712089073504,599616102343485000,103
1712089073512,599616102351150940,107
1712089073519,599616102358816880,57
1712089073527,599616102366482820,-9
1712089073535,599616102374148760,-6
1712089073542,599616102381814700,-43
1712089073550,599616102389480640,-135
1712089073558,599616102397146580,-100
1712089073565,599616102404812520,-6
1712089073573,599616102412478460,20
1712089073581,599616102420144400,16
1712089073588,599616102427810340,-13
1712089073596,599616102435476280,-66
1712089073604,599616102443142220,-125
1712089073611,599616102450808160,-158
1712089073619,599616102458474100,-119
1712089073627,599616102466140040,-75
1712089073633,599616102473805980,-91
1712089073641,599616102481471920,-119
1712089073649,599616102489137860,-125
1712089073657,599616102496803800,-116
1712089073665,599616102504469740,-82
1712089073673,599616102512135680,-50
1712089073680,599616102519801620,-59
1712089073688,599616102527467560,-87
1712089073696,599616102535133500,-96
1712089073703,599616102542799440,-89
1712089073711,599616102550465380,-64
1712089073719,599616102558131320,-36
1712089073726,599616102565797260,-41
1712089073734,599616102573463200,-89
1712089073742,599616102581129140,-146
1712089073749,599616102588795080,-137
1712089073757,599616102596461052,-84
1712089073765,599616102604126992,-100
1712089073772,599616102611792932,-169
1712089073780,599616102619458872,-178
1712089073788,599616102627124812,-155
1712089073795,599616102634790752,-176
1712089073803,599616102642456692,-201
1712089073809,599616102650122632,-206
1712089073817,599616102657788572,-238
1712089073825,599616102665454512,-288
1712089073833,599616102673120452,-336
1712089073841,599616102680786392,-382
1712089073849,599616102688452332,-366
1712089073856,599616102696118272,-288
1712089073864,599616102703784212,-155
1712089073872,599616102711450152,75
1712089073879,599616102719116092,245
1712089073887,599616102726782032,-2
1712089073895,599616102734447972,-684
1712089073902,599616102742113912,-994
1712089073910,599616102749779852,-552
1712089073918,599616102757445792,-197
1712089073925,599616102765111732,-229
1712089073933,599616102772777672,-199
1712089073941,599616102780443612,-132
1712089073948,599616102788109552,-153
1712089073956,599616102795775492,-151
1712089073964,599616102803441432,-105
1712089073971,599616102811107372,-66
1712089073979,599616102818773312,-41
1712089073987,599616102826439252,-20
1712089073993,599616102834105192,2
1712089074001,599616102841771132,6
1712089074009,599616102849437072,-25
1712089074017,599616102857103012,-64
1712089074025,599616102864768952,-52
1712089074033,599616102872434892,-16
1712089074040,599616102880100832,2
1712089074048,599616102887766772,16
1712089074056,599616102895432712,34
1712089074063,599616102903098652,73
1712089074071,599616102910764592,116
1712089074079,599616102918430532,89
1712089074086,599616102926096472,27
1712089074094,599616102933762412,43
1712089074102,599616102941428352,48
1712089074109,599616102949094292,-16
1712089074117,599616102956760232,-6
1712089074125,599616102964426172,59
1712089074132,599616102972092112,36
1712089074140,599616102979758052,-25
1712089074148,599616102987423992,-48
1712089074155,599616102995089932,-45
1712089074163,599616103002755872,-50
1712089074171,599616103010421812,-71
1712089074177,599616103018087752,-109
1712089074185,599616103025753692,-125
1712089074193,599616103033419632,-82
1712089074201,599616103041085572,-36
1712089074209,599616103048751512,-32
1712089074217,599616103056417452,-22
1712089074224,599616103064083392,-6
1712089074232,599616103071749332,-36
1712089074240,599616103079415272,-45
1712089074247,599616103087081212,2
1712089074255,599616103094747152,2
1712089074263,599616103102413092,-52
1712089074270,599616103110079032,-75
1712089074278,599616103117744972,-107
1712089074286,599616103125410912,-130
1712089074293,599616103133076852,-73
1712089074301,599616103140742792,-13
1712089074309,599616103148408732,11
1712089074316,599616103156074704,22
1712089074324,599616103163740644,2
